4998.81105,0.00044
4997.78079,0.00182
4996.75054,0.00245
4995.72028,0.00122
4994.69002,-0.00001
4993.65976,0.00004
4992.62951,0.00047
4991.59925,0.00090
4990.56899,0.00137
4989.53873,0.00126
4988.50847,0.00060
4987.47822,0.00025
4986.44796,0.00062
4985.41770,0.00114
4984.38744,0.00139
4983.35718,0.00137
4982.32693,0.00110
4981.29667,0.00091
4980.26641,0.00110
4979.23615,0.00157
4978.20590,0.00206
4977.17564,0.00223
4976.14538,0.00192
4975.11512,0.00130
4974.08486,0.00054
4973.05461,0.00042
4972.02435,0.00083
4970.99409,0.00129
4969.96383,0.00185
4968.93357,0.00167
4967.90332,0.00107
4966.87306,0.00087
4965.84280,0.00072
4964.81254,0.00081
4963.78229,0.00125
4962.75203,0.00142
4961.72177,0.00185
4960.69151,0.00295
4959.66125,0.00329
4958.63100,0.00258
4957.60074,0.00191
4956.57048,0.00140
4955.54022,0.00113
4954.50997,0.00126
4953.47971,0.00064
4952.44945,-0.00039
4951.41919,0.00001
4950.38893,0.00166
4949.35868,0.00320
4948.32842,0.00313
4947.29816,0.00157
4946.26790,0.00059
4945.23764,0.00048
4944.20739,-0.00004
4943.17713,-0.00061
4942.14687,-0.00058
4941.11661,-0.00050
4940.08636,-0.00058
4939.05610,-0.00053
4938.02584,-0.00016
4936.99558,0.00036
4935.96532,0.00033
4934.93507,0.00026
4933.90481,0.00160
4932.87455,0.00342
4931.84429,0.00369
4930.81403,0.00264
4929.78378,0.00156
4928.75352,0.00136
4927.72326,0.00165
4926.69300,0.00131
4925.66275,0.00052
4924.63249,0.00043
4923.60223,0.00082
4922.57197,0.00029
4921.54171,0.00020
4920.51146,0.00181
4919.48120,0.00284
4918.45094,0.00242
4917.42068,0.00158
4916.39042,0.00066
4915.36017,0.00010
4914.32991,0.00006
4913.29965,-0.00011
4912.26939,-0.00029
4911.23914,0.00036
4910.20888,0.00116
4909.17862,0.00138
4908.14836,0.00171
4907.11810,0.00178
4906.08785,0.00119
4905.05759,0.00064
4904.02733,0.00007
4902.99707,-0.00044
4901.96682,-0.00053
4900.93656,-0.00004
4899.90630,0.00105
4898.87604,0.00208
4897.84578,0.00242
4896.81553,0.00238
4895.78527,0.00254
4894.75501,0.00252
4893.72475,0.00158
4892.69449,0.00047
4891.66424,-0.00028
4890.63398,-0.00073
4889.60372,-0.00033
4888.57346,0.00018
4887.54321,0.00051
4886.51295,0.00126
4885.48269,0.00155
4884.45243,0.00091
4883.42217,0.00038
4882.39192,0.00093
4881.36166,0.00178
4880.33140,0.00182
4879.30114,0.00150
4878.27088,0.00141
4877.24063,0.00145
4876.21037,0.00125
4875.18011,0.00080
4874.14985,0.00041
4873.11960,0.00003
4872.08934,-0.00049
4871.05908,-0.00056
4870.02882,0.00019
4868.99856,0.00120
4867.96831,0.00225
4866.93805,0.00300
4865.90779,0.00290
4864.87753,0.00236
4863.84727,0.00187
4862.81702,0.00157
4861.78676,0.00142
4860.75650,0.00130
4859.72624,0.00142
4858.69599,0.00164
4857.66573,0.00130
4856.63547,0.00038
4855.60521,0.00013
4854.57495,0.00103
4853.54470,0.00205
4852.51444,0.00252
4851.48418,0.00221
4850.45392,0.00147
4849.42367,0.00112
4848.39341,0.00090
4847.36315,0.00033
4846.33289,0.00030
4845.30263,0.00128
4844.27238,0.00175
4843.24212,0.00102
4842.21186,0.00049
4841.18160,0.00071
4840.15134,0.00111
4839.12109,0.00129
4838.09083,0.00092
4837.06057,0.00067
4836.03031,0.00079
4835.00006,0.00071
4833.96980,0.00101
4832.93954,0.00160
4831.90928,0.00136
4830.87902,0.00083
4829.84877,0.00081
4828.81851,0.00088
4827.78825,0.00088
4826.75799,0.00096
4825.72773,0.00138
4824.69748,0.00176
4823.66722,0.00153
4822.63696,0.00088
4821.60670,0.00059
4820.57645,0.00081
4819.54619,0.00061
4818.51593,-0.00042
4817.48567,-0.00145
4816.45541,-0.00113
4815.42516,-0.00012
4814.39490,0.00015
4813.36464,0.00033
4812.33438,0.00067
4811.30412,0.00052
4810.27387,0.00031
4809.24361,0.00044
4808.21335,0.00035
4807.18309,0.00008
4806.15284,0.00017
4805.12258,-0.00000
4804.09232,-0.00079
4803.06206,-0.00082
4802.03180,0.00029
4801.00155,0.00116
4799.97129,0.00106
4798.94103,0.00072
4797.91077,0.00071
4796.88052,0.00043
4795.85026,0.00007
4794.82000,0.00020
4793.78974,0.00060
4792.75948,0.00112
4791.72923,0.00134
4790.69897,0.00119
4789.66871,0.00139
4788.63845,0.00151
4787.60819,0.00080
4786.57794,0.00043
4785.54768,0.00109
4784.51742,0.00156
4783.48716,0.00163
4782.45691,0.00156
4781.42665,0.00089
4780.39639,0.00022
4779.36613,-0.00007
4778.33587,-0.00022
4777.30562,0.00035
4776.27536,0.00150
4775.24510,0.00211
4774.21484,0.00179
4773.18458,0.00077
4772.15433,0.00013
4771.12407,0.00039
4770.09381,0.00075
4769.06355,0.00085
4768.03330,0.00080
4767.00304,0.00090
4765.97278,0.00102
4764.94252,0.00077
4763.91226,0.00070
4762.88201,0.00101
4761.85175,0.00115
4760.82149,0.00143
4759.79123,0.00164
4758.76098,0.00101
4757.73072,0.00003
4756.70046,-0.00028
4755.67020,0.00039
4754.63994,0.00118
4753.60969,0.00120
4752.57943,0.00094
4751.54917,0.00124
4750.51891,0.00117
4749.48865,0.00028
4748.45840,0.00006
4747.42814,0.00068
4746.39788,0.00128
4745.36762,0.00159
4744.33737,0.00156
4743.30711,0.00107
4742.27685,0.00035
4741.24659,-0.00018
4740.21633,0.00002
4739.18608,0.00058
4738.15582,0.00035
4737.12556,0.00013
4736.09530,0.00063
4735.06504,0.00124
4734.03479,0.00185
4733.00453,0.00175
4731.97427,0.00091
4730.94401,0.00086
4729.91376,0.00164
4728.88350,0.00203
4727.85324,0.00131
4726.82298,0.00018
4725.79272,-0.00008
4724.76247,0.00086
4723.73221,0.00207
4722.70195,0.00204
4721.67169,0.00096
4720.64143,0.00034
4719.61118,0.00073
4718.58092,0.00145
4717.55066,0.00144
4716.52040,0.00086
4715.49015,0.00103
4714.45989,0.00168
4713.42963,0.00147
4712.39937,0.00102
4711.36911,0.00163
4710.33886,0.00266
4709.30860,0.00286
4708.27834,0.00241
4707.24808,0.00216
4706.21783,0.00237
4705.18757,0.00237
4704.15731,0.00161
4703.12705,0.00070
4702.09679,0.00077
4701.06654,0.00161
4700.03628,0.00160
4699.00602,0.00088
4697.97576,0.00077
4696.94550,0.00126
4695.91525,0.00178
4694.88499,0.00205
4693.85473,0.00178
4692.82447,0.00134
4691.79422,0.00125
4690.76396,0.00087
4689.73370,0.00030
4688.70344,0.00039
4687.67318,0.00038
4686.64293,-0.00011
4685.61267,0.00005
4684.58241,0.00056
4683.55215,0.00028
4682.52189,-0.00004
4681.49164,0.00043
4680.46138,0.00107
4679.43112,0.00170
4678.40086,0.00235
4677.37061,0.00227
4676.34035,0.00160
4675.31009,0.00156
4674.27983,0.00195
4673.24957,0.00174
4672.21932,0.00110
4671.18906,0.00054
4670.15880,0.00066
4669.12854,0.00160
4668.09828,0.00215
4667.06803,0.00174
4666.03777,0.00115
4665.00751,0.00082
4663.97725,0.00062
4662.94700,0.00067
4661.91674,0.00085
4660.88648,0.00099
4659.85622,0.00127
4658.82596,0.00141
4657.79571,0.00124
4656.76545,0.00107
4655.73519,0.00073
4654.70493,0.00012
4653.67468,-0.00010
4652.64442,0.00034
4651.61416,0.00098
4650.58390,0.00111
4649.55364,0.00069
4648.52339,0.00039
4647.49313,0.00058
4646.46287,0.00085
4645.43261,0.00048
4644.40235,-0.00023
4643.37210,-0.00044
4642.34184,-0.00046
4641.31158,-0.00067
4640.28132,-0.00094
4639.25107,-0.00081
4638.22081,0.00018
4637.19055,0.00089
4636.16029,0.00074
4635.13003,0.00089
4634.09978,0.00139
4633.06952,0.00174
4632.03926,0.00179
4631.00900,0.00115
4629.97874,0.00048
4628.94849,0.00026
4627.91823,-0.00045
4626.88797,-0.00087
4625.85771,0.00002
4624.82746,0.00078
4623.79720,0.00065
4622.76694,0.00022
4621.73668,-0.00001
4620.70642,0.00006
4619.67617,-0.00011
4618.64591,0.00001
4617.61565,0.00081
4616.58539,0.00119
4615.55513,0.00117
4614.52488,0.00140
4613.49462,0.00163
4612.46436,0.00155
4611.43410,0.00142
4610.40385,0.00136
4609.37359,0.00120
4608.34333,0.00105
4607.31307,0.00087
4606.28281,0.00054
4605.25256,0.00023
4604.22230,0.00040
4603.19204,0.00114
4602.16178,0.00170
4601.13153,0.00166
4600.10127,0.00143
4599.07101,0.00117
4598.04075,0.00097
4597.01049,0.00099
4595.98024,0.00050
4594.94998,-0.00027
4593.91972,-0.00049
4592.88946,-0.00065
4591.85920,-0.00058
4590.82895,0.00020
4589.79869,0.00103
4588.76843,0.00171
4587.73817,0.00226
4586.70792,0.00246
4585.67766,0.00232
4584.64740,0.00160
4583.61714,0.00100
4582.58688,0.00127
4581.55663,0.00136
4580.52637,0.00080
4579.49611,0.00054
4578.46585,0.00074
4577.43559,0.00084
4576.40534,0.00101
4575.37508,0.00143
4574.34482,0.00170
4573.31456,0.00147
4572.28431,0.00079
4571.25405,0.00002
4570.22379,-0.00034
4569.19353,0.00019
4568.16327,0.00113
4567.13302,0.00134
4566.10276,0.00083
4565.07250,0.00049
4564.04224,0.00068
4563.01198,0.00133
4561.98173,0.00184
4560.95147,0.00146
4559.92121,0.00082
4558.89095,0.00086
4557.86070,0.00122
4556.83044,0.00134
4555.80018,0.00141
4554.76992,0.00140
4553.73966,0.00134
4552.70941,0.00132
4551.67915,0.00121
4550.64889,0.00134
4549.61863,0.00187
4548.58838,0.00239
4547.55812,0.00257
4546.52786,0.00253
4545.49760,0.00251
4544.46734,0.00267
4543.43709,0.00257
4542.40683,0.00194
4541.37657,0.00134
4540.34631,0.00124
4539.31605,0.00134
4538.28580,0.00118
4537.25554,0.00087
4536.22528,0.00016
4535.19502,-0.00053
4534.16477,-0.00012
4533.13451,0.00052
4532.10425,0.00055
4531.07399,0.00066
4530.04373,0.00099
4529.01348,0.00107
4527.98322,0.00063
4526.95296,-0.00008
4525.92270,-0.00053
4524.89244,-0.00010
4523.86219,0.00097
4522.83193,0.00162
4521.80167,0.00153
4520.77141,0.00088
4519.74116,0.00037
4518.71090,0.00058
4517.68064,0.00113
4516.65038,0.00144
4515.62012,0.00144
4514.58987,0.00137
4513.55961,0.00138
4512.52935,0.00096
4511.49909,0.00008
4510.46883,0.00015
4509.43858,0.00096
4508.40832,0.00110
4507.37806,0.00079
4506.34780,0.00055
4505.31755,0.00047
4504.28729,0.00054
4503.25703,0.00064
4502.22677,0.00060
4501.19651,0.00052
4500.16626,0.00063
4499.13600,0.00098
4498.10574,0.00130
4497.07548,0.00128
4496.04523,0.00108
4495.01497,0.00109
4493.98471,0.00156
4492.95445,0.00155
4491.92419,0.00013
4490.89394,-0.00088
4489.86368,0.00001
4488.83342,0.00101
4487.80316,0.00089
4486.77290,0.00060
4485.74265,0.00090
4484.71239,0.00153
4483.68213,0.00161
4482.65187,0.00086
4481.62162,0.00073
4480.59136,0.00155
4479.56110,0.00181
4478.53084,0.00145
4477.50058,0.00118
4476.47033,0.00097
4475.44007,0.00097
4474.40981,0.00120
4473.37955,0.00123
4472.34929,0.00152
4471.31904,0.00181
4470.28878,0.00095
4469.25852,0.00014
4468.22826,0.00055
4467.19801,0.00116
4466.16775,0.00102
4465.13749,0.00047
4464.10723,0.00010
4463.07697,0.00003
4462.04672,0.00033
4461.01646,0.00062
4459.98620,0.00063
4458.95594,0.00062
4457.92568,0.00083
4456.89543,0.00118
4455.86517,0.00132
4454.83491,0.00132
4453.80465,0.00149
4452.77440,0.00169
4451.74414,0.00138
4450.71388,0.00071
4449.68362,0.00074
4448.65336,0.00135
4447.62311,0.00177
4446.59285,0.00168
4445.56259,0.00101
4444.53233,0.00072
4443.50208,0.00127
4442.47182,0.00156
4441.44156,0.00149
4440.41130,0.00150
4439.38104,0.00148
4438.35079,0.00138
4437.32053,0.00112
4436.29027,0.00064
4435.26001,0.00034
4434.22975,0.00079
4433.19950,0.00152
4432.16924,0.00174
4431.13898,0.00109
4430.10872,-0.00009
4429.07847,-0.00003
4428.04821,0.00130
4427.01795,0.00213
4425.98769,0.00209
4424.95743,0.00178
4423.92718,0.00151
4422.89692,0.00107
4421.86666,0.00048
4420.83640,0.00030
4419.80614,0.00081
4418.77589,0.00143
4417.74563,0.00145
4416.71537,0.00094
4415.68511,0.00087
4414.65486,0.00142
4413.62460,0.00200
4412.59434,0.00227
4411.56408,0.00211
4410.53382,0.00169
4409.50357,0.00117
4408.47331,0.00088
4407.44305,0.00102
4406.41279,0.00143
4405.38253,0.00212
4404.35228,0.00249
4403.32202,0.00191
4402.29176,0.00107
4401.26150,0.00052
4400.23125,0.00037
4399.20099,0.00084
4398.17073,0.00129
4397.14047,0.00121
4396.11021,0.00123
4395.07996,0.00159
4394.04970,0.00193
4393.01944,0.00219
4391.98918,0.00228
4390.95893,0.00203
4389.92867,0.00150
4388.89841,0.00116
4387.86815,0.00138
4386.83789,0.00155
4385.80764,0.00122
4384.77738,0.00125
4383.74712,0.00184
4382.71686,0.00218
4381.68660,0.00227
4380.65635,0.00234
4379.62609,0.00218
4378.59583,0.00207
4377.56557,0.00214
4376.53532,0.00197
4375.50506,0.00157
4374.47480,0.00146
4373.44454,0.00167
4372.41428,0.00191
4371.38403,0.00214
4370.35377,0.00236
4369.32351,0.00240
4368.29325,0.00233
4367.26299,0.00242
4366.23274,0.00243
4365.20248,0.00251
4364.17222,0.00286
4363.14196,0.00279
4362.11171,0.00238
4361.08145,0.00208
4360.05119,0.00209
4359.02093,0.00258
4357.99067,0.00276
4356.96042,0.00206
4355.93016,0.00145
4354.89990,0.00154
4353.86964,0.00177
4352.83939,0.00182
4351.80913,0.00178
4350.77887,0.00198
4349.74861,0.00244
4348.71835,0.00261
4347.68810,0.00281
4346.65784,0.00327
4345.62758,0.00320
4344.59732,0.00264
4343.56706,0.00229
4342.53681,0.00206
4341.50655,0.00173
4340.47629,0.00185
4339.44603,0.00250
4338.41578,0.00274
4337.38552,0.00267
4336.35526,0.00296
4335.32500,0.00293
4334.29474,0.00234
4333.26449,0.00220
4332.23423,0.00262
4331.20397,0.00281
4330.17371,0.00285
4329.14345,0.00295
4328.11320,0.00283
4327.08294,0.00266
4326.05268,0.00238
4325.02242,0.00183
4323.99217,0.00175
4322.96191,0.00223
4321.93165,0.00262
4320.90139,0.00280
4319.87113,0.00259
4318.84088,0.00226
4317.81062,0.00248
4316.78036,0.00301
4315.75010,0.00293
4314.71984,0.00221
4313.68959,0.00194
4312.65933,0.00241
4311.62907,0.00282
4310.59881,0.00278
4309.56856,0.00266
4308.53830,0.00259
4307.50804,0.00257
4306.47778,0.00286
4305.44752,0.00327
4304.41727,0.00333
4303.38701,0.00315
4302.35675,0.00300
4301.32649,0.00275
4300.29624,0.00267
4299.26598,0.00311
4298.23572,0.00331
4297.20546,0.00269
4296.17520,0.00217
4295.14495,0.00248
4294.11469,0.00297
4293.08443,0.00298
4292.05417,0.00280
4291.02391,0.00263
4289.99366,0.00256
4288.96340,0.00267
4287.93314,0.00280
4286.90288,0.00270
4285.87263,0.00223
4284.84237,0.00176
4283.81211,0.00130
4282.78185,0.00094
4281.75159,0.00118
4280.72134,0.00167
4279.69108,0.00168
4278.66082,0.00134
4277.63056,0.00170
4276.60030,0.00278
4275.57005,0.00309
4274.53979,0.00256
4273.50953,0.00229
4272.47927,0.00216
4271.44902,0.00206
4270.41876,0.00215
4269.38850,0.00219
4268.35824,0.00210
4267.32798,0.00201
4266.29773,0.00155
4265.26747,0.00071
4264.23721,0.00025
4263.20695,0.00027
4262.17669,0.00050
4261.14644,0.00112
4260.11618,0.00182
4259.08592,0.00181
4258.05566,0.00134
4257.02541,0.00116
4255.99515,0.00165
4254.96489,0.00236
4253.93463,0.00220
4252.90437,0.00170
4251.87412,0.00188
4250.84386,0.00213
4249.81360,0.00192
4248.78334,0.00174
4247.75309,0.00167
4246.72283,0.00137
4245.69257,0.00131
4244.66231,0.00156
4243.63205,0.00161
4242.60180,0.00141
4241.57154,0.00117
4240.54128,0.00129
4239.51102,0.00139
4238.48076,0.00131
4237.45051,0.00183
4236.42025,0.00237
4235.38999,0.00181
4234.35973,0.00116
4233.32948,0.00132
4232.29922,0.00138
4231.26896,0.00107
4230.23870,0.00099
4229.20844,0.00129
4228.17819,0.00177
4227.14793,0.00213
4226.11767,0.00238
4225.08741,0.00258
4224.05715,0.00251
4223.02690,0.00219
4221.99664,0.00178
4220.96638,0.00155
4219.93612,0.00174
4218.90587,0.00196
4217.87561,0.00230
4216.84535,0.00267
4215.81509,0.00246
4214.78483,0.00229
4213.75458,0.00235
4212.72432,0.00200
4211.69406,0.00179
4210.66380,0.00223
4209.63354,0.00257
4208.60329,0.00236
4207.57303,0.00191
4206.54277,0.00164
4205.51251,0.00186
4204.48226,0.00218
4203.45200,0.00178
4202.42174,0.00108
4201.39148,0.00109
4200.36122,0.00136
4199.33097,0.00143
4198.30071,0.00157
4197.27045,0.00150
4196.24019,0.00115
4195.20994,0.00100
4194.17968,0.00136
4193.14942,0.00195
4192.11916,0.00212
4191.08890,0.00172
4190.05865,0.00113
4189.02839,0.00090
4187.99813,0.00122
4186.96787,0.00182
4185.93761,0.00219
4184.90736,0.00216
4183.87710,0.00206
4182.84684,0.00189
4181.81658,0.00164
4180.78633,0.00145
4179.75607,0.00130
4178.72581,0.00121
4177.69555,0.00141
4176.66529,0.00172
4175.63504,0.00175
4174.60478,0.00152
4173.57452,0.00127
4172.54426,0.00145
4171.51400,0.00226
4170.48375,0.00288
4169.45349,0.00263
4168.42323,0.00208
4167.39297,0.00210
4166.36272,0.00236
4165.33246,0.00219
4164.30220,0.00163
4163.27194,0.00114
4162.24168,0.00095
4161.21143,0.00065
4160.18117,0.00026
4159.15091,0.00055
4158.12065,0.00124
4157.09039,0.00168
4156.06014,0.00193
4155.02988,0.00220
4153.99962,0.00237
4152.96936,0.00194
4151.93911,0.00105
4150.90885,0.00085
4149.87859,0.00146
4148.84833,0.00195
4147.81807,0.00191
4146.78782,0.00149
4145.75756,0.00116
4144.72730,0.00099
4143.69704,0.00123
4142.66679,0.00190
4141.63653,0.00254
4140.60627,0.00279
4139.57601,0.00234
4138.54575,0.00176
4137.51550,0.00154
4136.48524,0.00154
4135.45498,0.00196
4134.42472,0.00251
4133.39446,0.00247
4132.36421,0.00219
4131.33395,0.00222
4130.30369,0.00229
4129.27343,0.00225
4128.24318,0.00219
4127.21292,0.00205
4126.18266,0.00205
4125.15240,0.00233
4124.12214,0.00251
4123.09189,0.00234
4122.06163,0.00196
4121.03137,0.00161
4120.00111,0.00134
4118.97085,0.00105
4117.94060,0.00113
4116.91034,0.00167
4115.88008,0.00199
4114.84982,0.00210
4113.81957,0.00232
4112.78931,0.00224
4111.75905,0.00194
4110.72879,0.00218
4109.69853,0.00268
4108.66828,0.00262
4107.63802,0.00238
4106.60776,0.00243
4105.57750,0.00220
4104.54724,0.00189
4103.51699,0.00201
4102.48673,0.00182
4101.45647,0.00127
4100.42621,0.00121
4099.39596,0.00153
4098.36570,0.00137
4097.33544,0.00125
4096.30518,0.00201
4095.27492,0.00278
4094.24467,0.00272
4093.21441,0.00235
4092.18415,0.00233
4091.15389,0.00250
4090.12364,0.00242
4089.09338,0.00199
4088.06312,0.00147
4087.03286,0.00117
4086.00260,0.00162
4084.97235,0.00261
4083.94209,0.00301
4082.91183,0.00270
4081.88157,0.00240
4080.85131,0.00226
4079.82106,0.00200
4078.79080,0.00200
4077.76054,0.00242
4076.73028,0.00263
4075.70003,0.00278
4074.66977,0.00313
4073.63951,0.00314
4072.60925,0.00275
4071.57899,0.00268
4070.54874,0.00295
4069.51848,0.00286
4068.48822,0.00265
4067.45796,0.00294
4066.42770,0.00302
4065.39745,0.00253
4064.36719,0.00201
4063.33693,0.00185
4062.30667,0.00221
4061.27642,0.00246
4060.24616,0.00228
4059.21590,0.00238
4058.18564,0.00253
4057.15538,0.00236
4056.12513,0.00245
4055.09487,0.00264
4054.06461,0.00272
4053.03435,0.00283
4052.00409,0.00296
4050.97384,0.00285
4049.94358,0.00246
4048.91332,0.00219
4047.88306,0.00215
4046.85281,0.00238
4045.82255,0.00289
4044.79229,0.00340
4043.76203,0.00353
4042.73177,0.00317
4041.70152,0.00274
4040.67126,0.00261
4039.64100,0.00291
4038.61074,0.00340
4037.58049,0.00356
4036.55023,0.00360
4035.51997,0.00375
4034.48971,0.00373
4033.45945,0.00368
4032.42920,0.00386
4031.39894,0.00397
4030.36868,0.00364
4029.33842,0.00317
4028.30816,0.00287
4027.27791,0.00263
4026.24765,0.00282
4025.21739,0.00338
4024.18713,0.00364
4023.15688,0.00346
4022.12662,0.00313
4021.09636,0.00293
4020.06610,0.00294
4019.03584,0.00306
4018.00559,0.00326
4016.97533,0.00352
4015.94507,0.00384
4014.91481,0.00412
4013.88455,0.00395
4012.85430,0.00334
4011.82404,0.00289
4010.79378,0.00299
4009.76352,0.00328
4008.73327,0.00317
4007.70301,0.00304
4006.67275,0.00325
4005.64249,0.00337
4004.61223,0.00336
4003.58198,0.00350
4002.55172,0.00365
4001.52146,0.00359
4000.49120,0.00369
3999.46095,0.00406
3998.43069,0.00417
3997.40043,0.00380
3996.37017,0.00327
3995.33991,0.00293
3994.30966,0.00281
3993.27940,0.00297
3992.24914,0.00317
3991.21888,0.00314
3990.18862,0.00309
3989.15837,0.00314
3988.12811,0.00313
3987.09785,0.00317
3986.06759,0.00330
3985.03734,0.00340
3984.00708,0.00347
3982.97682,0.00341
3981.94656,0.00336
3980.91630,0.00365
3979.88605,0.00372
3978.85579,0.00329
3977.82553,0.00295
3976.79527,0.00282
3975.76501,0.00264
3974.73476,0.00260
3973.70450,0.00289
3972.67424,0.00310
3971.64398,0.00298
3970.61373,0.00303
3969.58347,0.00334
3968.55321,0.00350
3967.52295,0.00326
3966.49269,0.00289
3965.46244,0.00254
3964.43218,0.00201
3963.40192,0.00181
3962.37166,0.00237
3961.34140,0.00316
3960.31115,0.00370
3959.28089,0.00378
3958.25063,0.00307
3957.22037,0.00251
3956.19012,0.00280
3955.15986,0.00280
3954.12960,0.00227
3953.09934,0.00194
3952.06908,0.00201
3951.03883,0.00228
3950.00857,0.00220
3948.97831,0.00183
3947.94805,0.00179
3946.91780,0.00209
3945.88754,0.00227
3944.85728,0.00214
3943.82702,0.00221
3942.79676,0.00249
3941.76651,0.00258
3940.73625,0.00305
3939.70599,0.00377
3938.67573,0.00397
3937.64547,0.00352
3936.61522,0.00298
3935.58496,0.00261
3934.55470,0.00236
3933.52444,0.00263
3932.49419,0.00328
3931.46393,0.00360
3930.43367,0.00362
3929.40341,0.00341
3928.37315,0.00272
3927.34290,0.00209
3926.31264,0.00183
3925.28238,0.00175
3924.25212,0.00192
3923.22186,0.00188
3922.19161,0.00140
3921.16135,0.00126
3920.13109,0.00165
3919.10083,0.00189
3918.07058,0.00199
3917.04032,0.00234
3916.01006,0.00265
3914.97980,0.00234
3913.94954,0.00160
3912.91929,0.00104
3911.88903,0.00113
3910.85877,0.00181
3909.82851,0.00239
3908.79825,0.00244
3907.76800,0.00233
3906.73774,0.00237
3905.70748,0.00207
3904.67722,0.00129
3903.64697,0.00130
3902.61671,0.00210
3901.58645,0.00221
3900.55619,0.00182
3899.52593,0.00192
3898.49568,0.00242
3897.46542,0.00272
3896.43516,0.00242
3895.40490,0.00181
3894.37465,0.00154
3893.34439,0.00160
3892.31413,0.00155
3891.28387,0.00143
3890.25361,0.00169
3889.22336,0.00212
3888.19310,0.00197
3887.16284,0.00132
3886.13258,0.00125
3885.10232,0.00191
3884.07207,0.00215
3883.04181,0.00203
3882.01155,0.00195
3880.98129,0.00174
3879.95104,0.00149
3878.92078,0.00153
3877.89052,0.00156
3876.86026,0.00164
3875.83000,0.00196
3874.79975,0.00220
3873.76949,0.00242
3872.73923,0.00285
3871.70897,0.00309
3870.67871,0.00307
3869.64846,0.00294
3868.61820,0.00241
3867.58794,0.00172
3866.55768,0.00157
3865.52743,0.00188
3864.49717,0.00201
3863.46691,0.00193
3862.43665,0.00186
3861.40639,0.00182
3860.37614,0.00187
3859.34588,0.00183
3858.31562,0.00179
3857.28536,0.00167
3856.25510,0.00125
3855.22485,0.00093
3854.19459,0.00135
3853.16433,0.00236
3852.13407,0.00219
3851.10382,0.00136
3850.07356,0.00131
3849.04330,0.00172
3848.01304,0.00190
3846.98278,0.00193
3845.95253,0.00174
3844.92227,0.00154
3843.89201,0.00181
3842.86175,0.00184
3841.83150,0.00118
3840.80124,0.00046
3839.77098,0.00041
3838.74072,0.00095
3837.71046,0.00127
3836.68021,0.00118
3835.64995,0.00099
3834.61969,0.00080
3833.58943,0.00085
3832.55917,0.00130
3831.52892,0.00187
3830.49866,0.00222
3829.46840,0.00251
3828.43814,0.00247
3827.40789,0.00217
3826.37763,0.00204
3825.34737,0.00188
3824.31711,0.00150
3823.28685,0.00114
3822.25660,0.00088
3821.22634,0.00067
3820.19608,0.00084
3819.16582,0.00122
3818.13556,0.00148
3817.10531,0.00157
3816.07505,0.00177
3815.04479,0.00212
3814.01453,0.00202
3812.98428,0.00179
3811.95402,0.00180
3810.92376,0.00205
3809.89350,0.00256
3808.86324,0.00305
3807.83299,0.00322
3806.80273,0.00249
3805.77247,0.00129
3804.74221,0.00097
3803.71195,0.00126
3802.68170,0.00112
3801.65144,0.00040
3800.62118,0.00036
3799.59092,0.00105
3798.56067,0.00177
3797.53041,0.00213
3796.50015,0.00187
3795.46989,0.00133
3794.43963,0.00121
3793.40938,0.00161
3792.37912,0.00168
3791.34886,0.00116
3790.31860,0.00094
3789.28835,0.00107
3788.25809,0.00100
3787.22783,0.00106
3786.19757,0.00149
3785.16731,0.00173
3784.13706,0.00163
3783.10680,0.00162
3782.07654,0.00179
3781.04628,0.00178
3780.01602,0.00137
3778.98577,0.00109
3777.95551,0.00113
3776.92525,0.00077
3775.89499,0.00029
3774.86474,0.00022
3773.83448,0.00040
3772.80422,0.00101
3771.77396,0.00192
3770.74370,0.00236
3769.71345,0.00215
3768.68319,0.00171
3767.65293,0.00139
3766.62267,0.00142
3765.59241,0.00179
3764.56216,0.00201
3763.53190,0.00213
3762.50164,0.00238
3761.47138,0.00244
3760.44113,0.00234
3759.41087,0.00203
3758.38061,0.00158
3757.35035,0.00166
3756.32009,0.00178
3755.28984,0.00157
3754.25958,0.00144
3753.22932,0.00124
3752.19906,0.00106
3751.16880,0.00099
3750.13855,0.00053
3749.10829,0.00052
3748.07803,0.00108
3747.04777,0.00116
3746.01752,0.00112
3744.98726,0.00169
3743.95700,0.00196
3742.92674,0.00140
3741.89648,0.00153
3740.86623,0.00203
3739.83597,0.00205
3738.80571,0.00176
3737.77545,0.00170
3736.74520,0.00177
3735.71494,0.00180
3734.68468,0.00198
3733.65442,0.00174
3732.62416,0.00102
3731.59391,0.00070
3730.56365,0.00108
3729.53339,0.00157
3728.50313,0.00173
3727.47287,0.00151
3726.44262,0.00119
3725.41236,0.00108
3724.38210,0.00140
3723.35184,0.00168
3722.32159,0.00168
3721.29133,0.00132
3720.26107,0.00076
3719.23081,0.00070
3718.20055,0.00131
3717.17030,0.00175
3716.14004,0.00166
3715.10978,0.00157
3714.07952,0.00160
3713.04926,0.00178
3712.01901,0.00225
3710.98875,0.00225
3709.95849,0.00190
3708.92823,0.00183
3707.89798,0.00181
3706.86772,0.00160
3705.83746,0.00136
3704.80720,0.00120
3703.77694,0.00130
3702.74669,0.00156
3701.71643,0.00148
3700.68617,0.00124
3699.65591,0.00138
3698.62565,0.00165
3697.59540,0.00173
3696.56514,0.00167
3695.53488,0.00147
3694.50462,0.00117
3693.47437,0.00103
3692.44411,0.00136
3691.41385,0.00197
3690.38359,0.00230
3689.35333,0.00230
3688.32308,0.00172
3687.29282,0.00059
3686.26256,0.00016
3685.23230,0.00056
3684.20205,0.00106
3683.17179,0.00121
3682.14153,0.00120
3681.11127,0.00120
3680.08101,0.00142
3679.05076,0.00200
3678.02050,0.00220
3676.99024,0.00155
3675.95998,0.00065
3674.92972,0.00062
3673.89947,0.00109
3672.86921,0.00112
3671.83895,0.00116
3670.80869,0.00126
3669.77844,0.00077
3668.74818,0.00021
3667.71792,0.00022
3666.68766,0.00047
3665.65740,0.00068
3664.62715,0.00115
3663.59689,0.00164
3662.56663,0.00175
3661.53637,0.00177
3660.50611,0.00172
3659.47586,0.00154
3658.44560,0.00160
3657.41534,0.00223
3656.38508,0.00291
3655.35483,0.00244
3654.32457,0.00155
3653.29431,0.00132
3652.26405,0.00148
3651.23379,0.00151
3650.20354,0.00114
3649.17328,0.00072
3648.14302,0.00120
3647.11276,0.00242
3646.08250,0.00283
3645.05225,0.00250
3644.02199,0.00211
3642.99173,0.00151
3641.96147,0.00101
3640.93122,0.00104
3639.90096,0.00159
3638.87070,0.00229
3637.84044,0.00243
3636.81018,0.00203
3635.77993,0.00183
3634.74967,0.00214
3633.71941,0.00262
3632.68915,0.00303
3631.65890,0.00333
3630.62864,0.00338
3629.59838,0.00316
3628.56812,0.00282
3627.53786,0.00274
3626.50761,0.00292
3625.47735,0.00300
3624.44709,0.00303
3623.41683,0.00318
3622.38657,0.00338
3621.35632,0.00378
3620.32606,0.00429
3619.29580,0.00435
3618.26554,0.00385
3617.23529,0.00323
3616.20503,0.00300
3615.17477,0.00301
3614.14451,0.00283
3613.11425,0.00288
3612.08400,0.00361
3611.05374,0.00425
3610.02348,0.00431
3608.99322,0.00412
3607.96296,0.00409
3606.93271,0.00440
3605.90245,0.00457
3604.87219,0.00424
3603.84193,0.00384
3602.81168,0.00381
3601.78142,0.00432
3600.75116,0.00501
3599.72090,0.00517
3598.69064,0.00464
3597.66039,0.00404
3596.63013,0.00404
3595.59987,0.00470
3594.56961,0.00536
3593.53936,0.00546
3592.50910,0.00561
3591.47884,0.00608
3590.44858,0.00618
3589.41832,0.00597
3588.38807,0.00587
3587.35781,0.00566
3586.32755,0.00565
3585.29729,0.00608
3584.26703,0.00630
3583.23678,0.00612
3582.20652,0.00597
3581.17626,0.00628
3580.14600,0.00689
3579.11575,0.00732
3578.08549,0.00736
3577.05523,0.00700
3576.02497,0.00679
3574.99471,0.00719
3573.96446,0.00779
3572.93420,0.00832
3571.90394,0.00864
3570.87368,0.00857
3569.84342,0.00861
3568.81317,0.00909
3567.78291,0.00951
3566.75265,0.00935
3565.72239,0.00907
3564.69214,0.00927
3563.66188,0.00962
3562.63162,0.01013
3561.60136,0.01073
3560.57110,0.01082
3559.54085,0.01079
3558.51059,0.01110
3557.48033,0.01111
3556.45007,0.01065
3555.41981,0.01058
3554.38956,0.01124
3553.35930,0.01224
3552.32904,0.01302
3551.29878,0.01315
3550.26853,0.01303
3549.23827,0.01309
3548.20801,0.01346
3547.17775,0.01400
3546.14749,0.01430
3545.11724,0.01450
3544.08698,0.01489
3543.05672,0.01535
3542.02646,0.01569
3540.99621,0.01614
3539.96595,0.01699
3538.93569,0.01770
3537.90543,0.01803
3536.87517,0.01842
3535.84492,0.01880
3534.81466,0.01904
3533.78440,0.01931
3532.75414,0.01972
3531.72388,0.02039
3530.69363,0.02108
3529.66337,0.02114
3528.63311,0.02085
3527.60285,0.02110
3526.57260,0.02163
3525.54234,0.02185
3524.51208,0.02212
3523.48182,0.02276
3522.45156,0.02352
3521.42131,0.02410
3520.39105,0.02432
3519.36079,0.02451
3518.33053,0.02529
3517.30027,0.02619
3516.27002,0.02641
3515.23976,0.02628
3514.20950,0.02637
3513.17924,0.02675
3512.14899,0.02707
3511.11873,0.02728
3510.08847,0.02787
3509.05821,0.02887
3508.02795,0.02966
3506.99770,0.02972
3505.96744,0.02955
3504.93718,0.02994
3503.90692,0.03056
3502.87666,0.03115
3501.84641,0.03196
3500.81615,0.03264
3499.78589,0.03278
3498.75563,0.03270
3497.72538,0.03275
3496.69512,0.03294
3495.66486,0.03333
3494.63460,0.03352
3493.60434,0.03347
3492.57409,0.03351
3491.54383,0.03353
3490.51357,0.03371
3489.48331,0.03460
3488.45306,0.03602
3487.42280,0.03689
3486.39254,0.03685
3485.36228,0.03664
3484.33202,0.03679
3483.30177,0.03713
3482.27151,0.03752
3481.24125,0.03766
3480.21099,0.03729
3479.18073,0.03683
3478.15048,0.03673
3477.12022,0.03716
3476.08996,0.03785
3475.05970,0.03802
3474.02945,0.03750
3472.99919,0.03700
3471.96893,0.03669
3470.93867,0.03661
3469.90841,0.03720
3468.87816,0.03815
3467.84790,0.03852
3466.81764,0.03818
3465.78738,0.03759
3464.75712,0.03706
3463.72687,0.03714
3462.69661,0.03773
3461.66635,0.03817
3460.63609,0.03854
3459.60584,0.03884
3458.57558,0.03850
3457.54532,0.03785
3456.51506,0.03775
3455.48480,0.03811
3454.45455,0.03830
3453.42429,0.03819
3452.39403,0.03819
3451.36377,0.03843
3450.33351,0.03820
3449.30326,0.03725
3448.27300,0.03663
3447.24274,0.03684
3446.21248,0.03716
3445.18223,0.03701
3444.15197,0.03668
3443.12171,0.03650
3442.09145,0.03646
3441.06119,0.03647
3440.03094,0.03633
3439.00068,0.03619
3437.97042,0.03606
3436.94016,0.03580
3435.90991,0.03551
3434.87965,0.03504
3433.84939,0.03460
3432.81913,0.03478
3431.78887,0.03509
3430.75862,0.03486
3429.72836,0.03472
3428.69810,0.03467
3427.66784,0.03406
3426.63758,0.03347
3425.60733,0.03350
3424.57707,0.03354
3423.54681,0.03320
3422.51655,0.03288
3421.48630,0.03273
3420.45604,0.03268
3419.42578,0.03261
3418.39552,0.03225
3417.36526,0.03176
3416.33501,0.03175
3415.30475,0.03206
3414.27449,0.03212
3413.24423,0.03163
3412.21397,0.03094
3411.18372,0.03072
3410.15346,0.03069
3409.12320,0.03034
3408.09294,0.03004
3407.06269,0.03016
3406.03243,0.03031
3405.00217,0.03000
3403.97191,0.02944
3402.94165,0.02919
3401.91140,0.02927
3400.88114,0.02922
3399.85088,0.02891
3398.82062,0.02851
3397.79036,0.02808
3396.76011,0.02771
3395.72985,0.02752
3394.69959,0.02744
3393.66933,0.02745
3392.63908,0.02735
3391.60882,0.02694
3390.57856,0.02666
3389.54830,0.02639
3388.51804,0.02590
3387.48779,0.02575
3386.45753,0.02590
3385.42727,0.02565
3384.39701,0.02509
3383.36676,0.02463
3382.33650,0.02428
3381.30624,0.02413
3380.27598,0.02427
3379.24572,0.02433
3378.21547,0.02412
3377.18521,0.02380
3376.15495,0.02361
3375.12469,0.02347
3374.09443,0.02304
3373.06418,0.02263
3372.03392,0.02231
3371.00366,0.02193
3369.97340,0.02176
3368.94315,0.02164
3367.91289,0.02146
3366.88263,0.02149
3365.85237,0.02157
3364.82211,0.02146
3363.79186,0.02144
3362.76160,0.02143
3361.73134,0.02097
3360.70108,0.02027
3359.67082,0.01978
3358.64057,0.01956
3357.61031,0.01948
3356.58005,0.01960
3355.54979,0.01979
3354.51954,0.01985
3353.48928,0.01981
3352.45902,0.01957
3351.42876,0.01936
3350.39850,0.01906
3349.36825,0.01857
3348.33799,0.01837
3347.30773,0.01830
3346.27747,0.01809
3345.24721,0.01779
3344.21696,0.01764
3343.18670,0.01772
3342.15644,0.01756
3341.12618,0.01708
3340.09593,0.01662
3339.06567,0.01641
3338.03541,0.01644
3337.00515,0.01639
3335.97489,0.01609
3334.94464,0.01592
3333.91438,0.01597
3332.88412,0.01580
3331.85386,0.01552
3330.82361,0.01543
3329.79335,0.01535
3328.76309,0.01529
3327.73283,0.01532
3326.70257,0.01510
3325.67232,0.01468
3324.64206,0.01460
3323.61180,0.01453
3322.58154,0.01413
3321.55128,0.01392
3320.52103,0.01395
3319.49077,0.01400
3318.46051,0.01412
3317.43025,0.01406
3316.40000,0.01373
3315.36974,0.01377
3314.33948,0.01422
3313.30922,0.01423
3312.27896,0.01377
3311.24871,0.01337
3310.21845,0.01313
3309.18819,0.01270
3308.15793,0.01221
3307.12767,0.01212
3306.09742,0.01217
3305.06716,0.01206
3304.03690,0.01210
3303.00664,0.01214
3301.97639,0.01197
3300.94613,0.01180
3299.91587,0.01164
3298.88561,0.01149
3297.85535,0.01109
3296.82510,0.01072
3295.79484,0.01076
3294.76458,0.01074
3293.73432,0.01043
3292.70406,0.01018
3291.67381,0.01023
3290.64355,0.01030
3289.61329,0.01017
3288.58303,0.00992
3287.55278,0.00974
3286.52252,0.00997
3285.49226,0.01026
3284.46200,0.01009
3283.43174,0.00971
3282.40149,0.00948
3281.37123,0.00944
3280.34097,0.00938
3279.31071,0.00932
3278.28046,0.00947
3277.25020,0.00940
3276.21994,0.00901
3275.18968,0.00889
3274.15942,0.00906
3273.12917,0.00900
3272.09891,0.00872
3271.06865,0.00846
3270.03839,0.00845
3269.00813,0.00896
3267.97788,0.00938
3266.94762,0.00926
3265.91736,0.00886
3264.88710,0.00850
3263.85685,0.00831
3262.82659,0.00827
3261.79633,0.00833
3260.76607,0.00835
3259.73581,0.00808
3258.70556,0.00771
3257.67530,0.00768
3256.64504,0.00785
3255.61478,0.00802
3254.58452,0.00829
3253.55427,0.00844
3252.52401,0.00833
3251.49375,0.00788
3250.46349,0.00737
3249.43324,0.00735
3248.40298,0.00765
3247.37272,0.00768
3246.34246,0.00738
3245.31220,0.00717
3244.28195,0.00696
3243.25169,0.00674
3242.22143,0.00705
3241.19117,0.00744
3240.16092,0.00739
3239.13066,0.00709
3238.10040,0.00664
3237.07014,0.00651
3236.03988,0.00667
3235.00963,0.00664
3233.97937,0.00649
3232.94911,0.00618
3231.91885,0.00588
3230.88859,0.00594
3229.85834,0.00630
3228.82808,0.00648
3227.79782,0.00611
3226.76756,0.00565
3225.73731,0.00550
3224.70705,0.00542
3223.67679,0.00535
3222.64653,0.00543
3221.61627,0.00561
3220.58602,0.00563
3219.55576,0.00548
3218.52550,0.00516
3217.49524,0.00485
3216.46498,0.00501
3215.43473,0.00535
3214.40447,0.00532
3213.37421,0.00509
3212.34395,0.00497
3211.31370,0.00467
3210.28344,0.00421
3209.25318,0.00440
3208.22292,0.00511
3207.19266,0.00555
3206.16241,0.00558
3205.13215,0.00553
3204.10189,0.00542
3203.07163,0.00503
3202.04137,0.00460
3201.01112,0.00458
3199.98086,0.00488
3198.95060,0.00511
3197.92034,0.00511
3196.89009,0.00514
3195.85983,0.00516
3194.82957,0.00487
3193.79931,0.00467
3192.76905,0.00481
3191.73880,0.00488
3190.70854,0.00480
3189.67828,0.00490
3188.64802,0.00519
3187.61777,0.00513
3186.58751,0.00479
3185.55725,0.00459
3184.52699,0.00446
3183.49673,0.00433
3182.46648,0.00431
3181.43622,0.00427
3180.40596,0.00392
3179.37570,0.00353
3178.34544,0.00359
3177.31519,0.00394
3176.28493,0.00417
3175.25467,0.00435
3174.22441,0.00466
3173.19416,0.00472
3172.16390,0.00453
3171.13364,0.00441
3170.10338,0.00415
3169.07312,0.00381
3168.04287,0.00383
3167.01261,0.00412
3165.98235,0.00433
3164.95209,0.00438
3163.92183,0.00417
3162.89158,0.00375
3161.86132,0.00351
3160.83106,0.00352
3159.80080,0.00360
3158.77055,0.00347
3157.74029,0.00320
3156.71003,0.00325
3155.67977,0.00369
3154.64951,0.00400
3153.61926,0.00417
3152.58900,0.00428
3151.55874,0.00396
3150.52848,0.00358
3149.49822,0.00366
3148.46797,0.00409
3147.43771,0.00439
3146.40745,0.00418
3145.37719,0.00361
3144.34694,0.00338
3143.31668,0.00345
3142.28642,0.00318
3141.25616,0.00294
3140.22590,0.00312
3139.19565,0.00337
3138.16539,0.00360
3137.13513,0.00386
3136.10487,0.00397
3135.07462,0.00391
3134.04436,0.00353
3133.01410,0.00309
3131.98384,0.00309
3130.95358,0.00347
3129.92333,0.00387
3128.89307,0.00383
3127.86281,0.00334
3126.83255,0.00293
3125.80229,0.00280
3124.77204,0.00292
3123.74178,0.00319
3122.71152,0.00321
3121.68126,0.00285
3120.65101,0.00258
3119.62075,0.00285
3118.59049,0.00331
3117.56023,0.00337
3116.52997,0.00313
3115.49972,0.00322
3114.46946,0.00373
3113.43920,0.00398
3112.40894,0.00391
3111.37868,0.00389
3110.34843,0.00393
3109.31817,0.00400
3108.28791,0.00389
3107.25765,0.00350
3106.22740,0.00340
3105.19714,0.00380
3104.16688,0.00397
3103.13662,0.00362
3102.10636,0.00319
3101.07611,0.00308
3100.04585,0.00337
3099.01559,0.00366
3097.98533,0.00348
3096.95507,0.00308
3095.92482,0.00294
3094.89456,0.00303
3093.86430,0.00330
3092.83404,0.00386
3091.80379,0.00419
3090.77353,0.00377
3089.74327,0.00325
3088.71301,0.00328
3087.68275,0.00353
3086.65250,0.00337
3085.62224,0.00288
3084.59198,0.00272
3083.56172,0.00308
3082.53147,0.00375
3081.50121,0.00416
3080.47095,0.00404
3079.44069,0.00398
3078.41043,0.00397
3077.38018,0.00369
3076.34992,0.00341
3075.31966,0.00341
3074.28940,0.00342
3073.25914,0.00342
3072.22889,0.00378
3071.19863,0.00419
3070.16837,0.00430
3069.13811,0.00426
3068.10786,0.00414
3067.07760,0.00403
3066.04734,0.00423
3065.01708,0.00452
3063.98682,0.00446
3062.95657,0.00424
3061.92631,0.00389
3060.89605,0.00336
3059.86579,0.00315
3058.83553,0.00338
3057.80528,0.00390
3056.77502,0.00448
3055.74476,0.00466
3054.71450,0.00448
3053.68425,0.00431
3052.65399,0.00429
3051.62373,0.00404
3050.59347,0.00351
3049.56321,0.00337
3048.53296,0.00390
3047.50270,0.00456
3046.47244,0.00467
3045.44218,0.00429
3044.41192,0.00396
3043.38167,0.00411
3042.35141,0.00467
3041.32115,0.00499
3040.29089,0.00477
3039.26064,0.00440
3038.23038,0.00410
3037.20012,0.00376
3036.16986,0.00364
3035.13960,0.00399
3034.10935,0.00437
3033.07909,0.00436
3032.04883,0.00424
3031.01857,0.00435
3029.98832,0.00450
3028.95806,0.00451
3027.92780,0.00464
3026.89754,0.00486
3025.86728,0.00496
3024.83703,0.00501
3023.80677,0.00521
3022.77651,0.00549
3021.74625,0.00550
3020.71599,0.00544
3019.68574,0.00552
3018.65548,0.00531
3017.62522,0.00507
3016.59496,0.00525
3015.56471,0.00545
3014.53445,0.00551
3013.50419,0.00566
3012.47393,0.00587
3011.44367,0.00605
3010.41342,0.00613
3009.38316,0.00618
3008.35290,0.00630
3007.32264,0.00665
3006.29238,0.00706
3005.26213,0.00718
3004.23187,0.00712
3003.20161,0.00724
3002.17135,0.00746
3001.14110,0.00746
3000.11084,0.00740
2999.08058,0.00737
2998.05032,0.00756
2997.02006,0.00832
2995.98981,0.00910
2994.95955,0.00936
2993.92929,0.00956
2992.89903,0.00995
2991.86877,0.01022
2990.83852,0.01032
2989.80826,0.01067
2988.77800,0.01145
2987.74774,0.01237
2986.71749,0.01321
2985.68723,0.01380
2984.65697,0.01428
2983.62671,0.01509
2982.59645,0.01620
2981.56620,0.01737
2980.53594,0.01843
2979.50568,0.01915
2978.47542,0.01999
2977.44517,0.02159
2976.41491,0.02332
2975.38465,0.02460
2974.35439,0.02585
2973.32413,0.02735
2972.29388,0.02900
2971.26362,0.03071
2970.23336,0.03250
2969.20310,0.03434
2968.17284,0.03615
2967.14259,0.03793
2966.11233,0.03995
2965.08207,0.04228
2964.05181,0.04453
2963.02156,0.04651
2961.99130,0.04860
2960.96104,0.05100
2959.93078,0.05353
2958.90052,0.05602
2957.87027,0.05858
2956.84001,0.06102
2955.80975,0.06303
2954.77949,0.06502
2953.74923,0.06719
2952.71898,0.06947
2951.68872,0.07203
2950.65846,0.07434
2949.62820,0.07618
2948.59795,0.07803
2947.56769,0.07995
2946.53743,0.08177
2945.50717,0.08349
2944.47691,0.08509
2943.44666,0.08656
2942.41640,0.08779
2941.38614,0.08872
2940.35588,0.08974
2939.32562,0.09098
2938.29537,0.09206
2937.26511,0.09253
2936.23485,0.09286
2935.20459,0.09387
2934.17434,0.09527
2933.14408,0.09630
2932.11382,0.09688
2931.08356,0.09731
2930.05330,0.09801
2929.02305,0.09928
2927.99279,0.10070
2926.96253,0.10185
2925.93227,0.10284
2924.90202,0.10395
2923.87176,0.10523
2922.84150,0.10641
2921.81124,0.10755
2920.78098,0.10874
2919.75073,0.11011
2918.72047,0.11173
2917.69021,0.11331
2916.65995,0.11470
2915.62969,0.11597
2914.59944,0.11740
2913.56918,0.11911
2912.53892,0.12080
2911.50866,0.12248
2910.47841,0.12421
2909.44815,0.12562
2908.41789,0.12693
2907.38763,0.12862
2906.35737,0.13038
2905.32712,0.13172
2904.29686,0.13267
2903.26660,0.13378
2902.23634,0.13519
2901.20608,0.13631
2900.17583,0.13699
2899.14557,0.13761
2898.11531,0.13856
2897.08505,0.14006
2896.05480,0.14186
2895.02454,0.14366
2893.99428,0.14538
2892.96402,0.14706
2891.93376,0.14870
2890.90351,0.15030
2889.87325,0.15224
2888.84299,0.15458
2887.81273,0.15715
2886.78247,0.15980
2885.75222,0.16215
2884.72196,0.16413
2883.69170,0.16639
2882.66144,0.16906
2881.63119,0.17170
2880.60093,0.17450
2879.57067,0.17749
2878.54041,0.18037
2877.51015,0.18304
2876.47990,0.18579
2875.44964,0.18896
2874.41938,0.19212
2873.38912,0.19500
2872.35887,0.19799
2871.32861,0.20076
2870.29835,0.20336
2869.26809,0.20625
2868.23783,0.20872
2867.20758,0.21027
2866.17732,0.21105
2865.14706,0.21150
2864.11680,0.21201
2863.08654,0.21207
2862.05629,0.21134
2861.02603,0.21017
2859.99577,0.20847
2858.96551,0.20644
2857.93526,0.20402
2856.90500,0.20049
2855.87474,0.19619
2854.84448,0.19165
2853.81422,0.18671
2852.78397,0.18150
2851.75371,0.17617
2850.72345,0.17084
2849.69319,0.16571
2848.66293,0.16035
2847.63268,0.15453
2846.60242,0.14874
2845.57216,0.14344
2844.54190,0.13836
2843.51165,0.13299
2842.48139,0.12758
2841.45113,0.12245
2840.42087,0.11747
2839.39061,0.11266
2838.36036,0.10826
2837.33010,0.10424
2836.29984,0.10035
2835.26958,0.09660
2834.23933,0.09313
2833.20907,0.08989
2832.17881,0.08661
2831.14855,0.08355
2830.11829,0.08117
2829.08804,0.07927
2828.05778,0.07731
2827.02752,0.07513
2825.99726,0.07319
2824.96700,0.07183
2823.93675,0.07048
2822.90649,0.06881
2821.87623,0.06720
2820.84597,0.06568
2819.81572,0.06407
2818.78546,0.06260
2817.75520,0.06145
2816.72494,0.06030
2815.69468,0.05903
2814.66443,0.05781
2813.63417,0.05667
2812.60391,0.05546
2811.57365,0.05423
2810.54339,0.05318
2809.51314,0.05231
2808.48288,0.05139
2807.45262,0.05028
2806.42236,0.04908
2805.39211,0.04783
2804.36185,0.04656
2803.33159,0.04554
2802.30133,0.04487
2801.27107,0.04421
2800.24082,0.04333
2799.21056,0.04233
2798.18030,0.04143
2797.15004,0.04070
2796.11978,0.03989
2795.08953,0.03893
2794.05927,0.03800
2793.02901,0.03721
2791.99875,0.03642
2790.96850,0.03551
2789.93824,0.03466
2788.90798,0.03413
2787.87772,0.03374
2786.84746,0.03321
2785.81721,0.03265
2784.78695,0.03215
2783.75669,0.03161
2782.72643,0.03096
2781.69618,0.03017
2780.66592,0.02944
2779.63566,0.02893
2778.60540,0.02854
2777.57514,0.02812
2776.54489,0.02765
2775.51463,0.02717
2774.48437,0.02674
2773.45411,0.02632
2772.42385,0.02572
2771.39360,0.02515
2770.36334,0.02486
2769.33308,0.02458
2768.30282,0.02432
2767.27257,0.02414
2766.24231,0.02386
2765.21205,0.02372
2764.18179,0.02379
2763.15153,0.02363
2762.12128,0.02314
2761.09102,0.02259
2760.06076,0.02222
2759.03050,0.02217
2758.00024,0.02225
2756.96999,0.02196
2755.93973,0.02153
2754.90947,0.02144
2753.87921,0.02142
2752.84896,0.02134
2751.81870,0.02134
2750.78844,0.02132
2749.75818,0.02129
2748.72792,0.02127
2747.69767,0.02121
2746.66741,0.02115
2745.63715,0.02112
2744.60689,0.02110
2743.57663,0.02099
2742.54638,0.02088
2741.51612,0.02094
2740.48586,0.02096
2739.45560,0.02087
2738.42535,0.02084
2737.39509,0.02083
2736.36483,0.02089
2735.33457,0.02097
2734.30431,0.02084
2733.27406,0.02060
2732.24380,0.02045
2731.21354,0.02016
2730.18328,0.01970
2729.15303,0.01965
2728.12277,0.01989
2727.09251,0.01984
2726.06225,0.01948
2725.03199,0.01888
2724.00174,0.01836
2722.97148,0.01835
2721.94122,0.01853
2720.91096,0.01851
2719.88070,0.01843
2718.85045,0.01826
2717.82019,0.01788
2716.78993,0.01756
2715.75967,0.01732
2714.72942,0.01695
2713.69916,0.01650
2712.66890,0.01632
2711.63864,0.01643
2710.60838,0.01636
2709.57813,0.01608
2708.54787,0.01582
2707.51761,0.01553
2706.48735,0.01532
2705.45709,0.01516
2704.42684,0.01496
2703.39658,0.01465
2702.36632,0.01429
2701.33606,0.01415
2700.30581,0.01411
2699.27555,0.01399
2698.24529,0.01384
2697.21503,0.01361
2696.18477,0.01331
2695.15452,0.01312
2694.12426,0.01289
2693.09400,0.01238
2692.06374,0.01194
2691.03348,0.01178
2690.00323,0.01156
2688.97297,0.01126
2687.94271,0.01116
2686.91245,0.01096
2685.88220,0.01027
2684.85194,0.00955
2683.82168,0.00913
2682.79142,0.00893
2681.76116,0.00898
2680.73091,0.00906
2679.70065,0.00880
2678.67039,0.00836
2677.64013,0.00805
2676.60988,0.00764
2675.57962,0.00716
2674.54936,0.00696
2673.51910,0.00703
2672.48884,0.00718
2671.45859,0.00731
2670.42833,0.00719
2669.39807,0.00682
2668.36781,0.00652
2667.33755,0.00633
2666.30730,0.00606
2665.27704,0.00595
2664.24678,0.00613
2663.21652,0.00618
2662.18627,0.00611
2661.15601,0.00616
2660.12575,0.00622
2659.09549,0.00612
2658.06523,0.00585
2657.03498,0.00552
2656.00472,0.00538
2654.97446,0.00552
2653.94420,0.00568
2652.91394,0.00569
2651.88369,0.00561
2650.85343,0.00539
2649.82317,0.00522
2648.79291,0.00515
2647.76266,0.00492
2646.73240,0.00470
2645.70214,0.00487
2644.67188,0.00527
2643.64162,0.00548
2642.61137,0.00554
2641.58111,0.00559
2640.55085,0.00542
2639.52059,0.00495
2638.49033,0.00476
2637.46008,0.00493
2636.42982,0.00498
2635.39956,0.00491
2634.36930,0.00491
2633.33905,0.00484
2632.30879,0.00482
2631.27853,0.00481
2630.24827,0.00435
2629.21801,0.00384
2628.18776,0.00391
2627.15750,0.00422
2626.12724,0.00442
2625.09698,0.00443
2624.06673,0.00429
2623.03647,0.00416
2622.00621,0.00420
2620.97595,0.00433
2619.94569,0.00425
2618.91544,0.00416
2617.88518,0.00440
2616.85492,0.00450
2615.82466,0.00422
2614.79440,0.00390
2613.76415,0.00367
2612.73389,0.00352
2611.70363,0.00358
2610.67337,0.00417
2609.64312,0.00480
2608.61286,0.00469
2607.58260,0.00423
2606.55234,0.00406
2605.52208,0.00395
2604.49183,0.00373
2603.46157,0.00364
2602.43131,0.00381
2601.40105,0.00405
2600.37079,0.00401
2599.34054,0.00385
2598.31028,0.00399
2597.28002,0.00435
2596.24976,0.00445
2595.21951,0.00409
2594.18925,0.00370
2593.15899,0.00351
2592.12873,0.00352
2591.09847,0.00376
2590.06822,0.00378
2589.03796,0.00357
2588.00770,0.00353
2586.97744,0.00340
2585.94718,0.00312
2584.91693,0.00323
2583.88667,0.00366
2582.85641,0.00381
2581.82615,0.00360
2580.79590,0.00355
2579.76564,0.00368
2578.73538,0.00358
2577.70512,0.00334
2576.67486,0.00313
2575.64461,0.00290
2574.61435,0.00277
2573.58409,0.00277
2572.55383,0.00258
2571.52358,0.00215
2570.49332,0.00193
2569.46306,0.00233
2568.43280,0.00315
2567.40254,0.00367
2566.37229,0.00346
2565.34203,0.00289
2564.31177,0.00276
2563.28151,0.00323
2562.25125,0.00378
2561.22100,0.00389
2560.19074,0.00336
2559.16048,0.00298
2558.13022,0.00333
2557.09997,0.00350
2556.06971,0.00321
2555.03945,0.00297
2554.00919,0.00273
2552.97893,0.00250
2551.94868,0.00229
2550.91842,0.00226
2549.88816,0.00277
2548.85790,0.00310
2547.82764,0.00269
2546.79739,0.00255
2545.76713,0.00318
2544.73687,0.00386
2543.70661,0.00405
2542.67636,0.00374
2541.64610,0.00345
2540.61584,0.00360
2539.58558,0.00362
2538.55532,0.00323
2537.52507,0.00297
2536.49481,0.00314
2535.46455,0.00355
2534.43429,0.00375
2533.40403,0.00374
2532.37378,0.00366
2531.34352,0.00324
2530.31326,0.00273
2529.28300,0.00274
2528.25275,0.00300
2527.22249,0.00318
2526.19223,0.00320
2525.16197,0.00280
2524.13171,0.00241
2523.10146,0.00249
2522.07120,0.00264
2521.04094,0.00246
2520.01068,0.00237
2518.98043,0.00258
2517.95017,0.00266
2516.91991,0.00268
2515.88965,0.00280
2514.85939,0.00282
2513.82914,0.00251
2512.79888,0.00198
2511.76862,0.00190
2510.73836,0.00215
2509.70810,0.00204
2508.67785,0.00159
2507.64759,0.00132
2506.61733,0.00155
2505.58707,0.00187
2504.55682,0.00196
2503.52656,0.00206
2502.49630,0.00206
2501.46604,0.00172
2500.43578,0.00146
2499.40553,0.00147
2498.37527,0.00167
2497.34501,0.00213
2496.31475,0.00258
2495.28449,0.00281
2494.25424,0.00271
2493.22398,0.00225
2492.19372,0.00209
2491.16346,0.00237
2490.13321,0.00261
2489.10295,0.00275
2488.07269,0.00297
2487.04243,0.00302
2486.01217,0.00271
2484.98192,0.00263
2483.95166,0.00303
2482.92140,0.00321
2481.89114,0.00268
2480.86088,0.00200
2479.83063,0.00204
2478.80037,0.00252
2477.77011,0.00277
2476.73985,0.00273
2475.70960,0.00247
2474.67934,0.00215
2473.64908,0.00213
2472.61882,0.00232
2471.58856,0.00221
2470.55831,0.00183
2469.52805,0.00146
2468.49779,0.00155
2467.46753,0.00220
2466.43728,0.00251
2465.40702,0.00226
2464.37676,0.00220
2463.34650,0.00240
2462.31624,0.00234
2461.28599,0.00208
2460.25573,0.00208
2459.22547,0.00260
2458.19521,0.00320
2457.16495,0.00312
2456.13470,0.00254
2455.10444,0.00232
2454.07418,0.00259
2453.04392,0.00270
2452.01367,0.00220
2450.98341,0.00174
2449.95315,0.00194
2448.92289,0.00210
2447.89263,0.00178
2446.86238,0.00197
2445.83212,0.00271
2444.80186,0.00262
2443.77160,0.00169
2442.74134,0.00100
2441.71109,0.00083
2440.68083,0.00125
2439.65057,0.00221
2438.62031,0.00287
2437.59006,0.00263
2436.55980,0.00200
2435.52954,0.00211
2434.49928,0.00272
2433.46902,0.00274
2432.43877,0.00229
2431.40851,0.00183
2430.37825,0.00171
2429.34799,0.00207
2428.31774,0.00230
2427.28748,0.00216
2426.25722,0.00188
2425.22696,0.00163
2424.19670,0.00170
2423.16645,0.00218
2422.13619,0.00262
2421.10593,0.00288
2420.07567,0.00330
2419.04541,0.00355
2418.01516,0.00304
2416.98490,0.00258
2415.95464,0.00281
2414.92438,0.00287
2413.89413,0.00247
2412.86387,0.00211
2411.83361,0.00238
2410.80335,0.00299
2409.77309,0.00271
2408.74284,0.00186
2407.71258,0.00201
2406.68232,0.00287
2405.65206,0.00307
2404.62180,0.00250
2403.59155,0.00202
2402.56129,0.00219
2401.53103,0.00220
2400.50077,0.00163
2399.47052,0.00149
2398.44026,0.00188
2397.41000,0.00207
2396.37974,0.00196
2395.34948,0.00177
2394.31923,0.00182
2393.28897,0.00204
2392.25871,0.00191
2391.22845,0.00181
2390.19819,0.00211
2389.16794,0.00220
2388.13768,0.00218
2387.10742,0.00234
2386.07716,0.00217
2385.04691,0.00171
2384.01665,0.00168
2382.98639,0.00194
2381.95613,0.00189
2380.92587,0.00189
2379.89562,0.00234
2378.86536,0.00271
2377.83510,0.00265
2376.80484,0.00246
2375.77459,0.00234
2374.74433,0.00245
2373.71407,0.00292
2372.68381,0.00317
2371.65355,0.00296
2370.62330,0.00280
2369.59304,0.00280
2368.56278,0.00302
2367.53252,0.00299
2366.50226,0.00270
2365.47201,0.00259
2364.44175,0.00221
2363.41149,0.00234
2362.38123,0.00334
2361.35098,0.00357
2360.32072,0.00337
2359.29046,0.00371
2358.26020,0.00364
2357.22994,0.00329
2356.19969,0.00332
2355.16943,0.00309
2354.13917,0.00253
2353.10891,0.00219
2352.07865,0.00218
2351.04840,0.00221
2350.01814,0.00203
2348.98788,0.00202
2347.95762,0.00238
2346.92737,0.00257
2345.89711,0.00216
2344.86685,0.00182
2343.83659,0.00239
2342.80633,0.00324
2341.77608,0.00316
2340.74582,0.00258
2339.71556,0.00228
2338.68530,0.00211
2337.65504,0.00217
2336.62479,0.00234
2335.59453,0.00244
2334.56427,0.00288
2333.53401,0.00333
2332.50376,0.00280
2331.47350,0.00171
2330.44324,0.00149
2329.41298,0.00225
2328.38272,0.00278
2327.35247,0.00272
2326.32221,0.00267
2325.29195,0.00265
2324.26169,0.00219
2323.23144,0.00157
2322.20118,0.00141
2321.17092,0.00173
2320.14066,0.00206
2319.11040,0.00187
2318.08015,0.00116
2317.04989,0.00051
2316.01963,0.00049
2314.98937,0.00084
2313.95911,0.00099
2312.92886,0.00128
2311.89860,0.00170
2310.86834,0.00184
2309.83808,0.00191
2308.80783,0.00190
2307.77757,0.00162
2306.74731,0.00162
2305.71705,0.00200
2304.68679,0.00173
2303.65654,0.00119
2302.62628,0.00148
2301.59602,0.00206
2300.56576,0.00222
2299.53550,0.00221
2298.50525,0.00222
2297.47499,0.00206
2296.44473,0.00178
2295.41447,0.00176
2294.38422,0.00189
2293.35396,0.00155
2292.32370,0.00079
2291.29344,0.00040
2290.26318,0.00087
2289.23293,0.00168
2288.20267,0.00196
2287.17241,0.00167
2286.14215,0.00161
2285.11189,0.00173
2284.08164,0.00144
2283.05138,0.00127
2282.02112,0.00160
2280.99086,0.00185
2279.96061,0.00173
2278.93035,0.00132
2277.90009,0.00083
2276.86983,0.00078
2275.83957,0.00125
2274.80932,0.00140
2273.77906,0.00084
2272.74880,-0.00023
2271.71854,-0.00083
2270.68829,-0.00018
2269.65803,0.00060
2268.62777,0.00083
2267.59751,0.00060
2266.56725,0.00028
2265.53700,0.00044
2264.50674,0.00070
2263.47648,0.00070
2262.44622,0.00014
2261.41596,-0.00049
2260.38571,-0.00029
2259.35545,0.00014
2258.32519,0.00005
2257.29493,-0.00044
2256.26468,-0.00087
2255.23442,-0.00048
2254.20416,0.00051
2253.17390,0.00076
2252.14364,0.00042
2251.11339,0.00018
2250.08313,0.00007
2249.05287,0.00029
2248.02261,0.00062
2246.99235,0.00066
2245.96210,0.00055
2244.93184,0.00102
2243.90158,0.00188
2242.87132,0.00172
2241.84107,0.00050
2240.81081,-0.00021
2239.78055,-0.00002
2238.75029,0.00017
2237.72003,-0.00011
2236.68978,-0.00043
2235.65952,-0.00078
2234.62926,-0.00165
2233.59900,-0.00158
2232.56874,-0.00016
2231.53849,0.00024
2230.50823,-0.00038
2229.47797,-0.00023
2228.44771,-0.00012
2227.41746,-0.00100
2226.38720,-0.00170
2225.35694,-0.00211
2224.32668,-0.00183
2223.29642,-0.00011
2222.26617,0.00127
2221.23591,0.00152
2220.20565,0.00106
2219.17539,-0.00039
2218.14514,-0.00218
2217.11488,-0.00318
2216.08462,-0.00261
2215.05436,-0.00108
2214.02410,-0.00019
2212.99385,-0.00016
2211.96359,-0.00038
2210.93333,-0.00085
2209.90307,-0.00182
2208.87281,-0.00211
2207.84256,-0.00108
2206.81230,-0.00056
2205.78204,-0.00110
2204.75178,-0.00215
2203.72153,-0.00307
2202.69127,-0.00259
2201.66101,-0.00164
2200.63075,-0.00142
2199.60049,-0.00129
2198.57024,-0.00107
2197.53998,-0.00106
2196.50972,-0.00177
2195.47946,-0.00234
2194.44920,-0.00138
2193.41895,-0.00030
2192.38869,-0.00025
2191.35843,-0.00027
2190.32817,-0.00093
2189.29792,-0.00297
2188.26766,-0.00481
2187.23740,-0.00477
2186.20714,-0.00337
2185.17688,-0.00240
2184.14663,-0.00218
2183.11637,-0.00214
2182.08611,-0.00220
2181.05585,-0.00185
2180.02559,-0.00086
2178.99534,-0.00095
2177.96508,-0.00250
2176.93482,-0.00275
2175.90456,-0.00161
2174.87431,-0.00128
2173.84405,-0.00116
2172.81379,-0.00034
2171.78353,-0.00021
2170.75327,-0.00111
2169.72302,-0.00251
2168.69276,-0.00435
2167.66250,-0.00554
2166.63224,-0.00498
2165.60199,-0.00362
2164.57173,-0.00293
2163.54147,-0.00282
2162.51121,-0.00376
2161.48095,-0.00524
2160.45070,-0.00527
2159.42044,-0.00406
2158.39018,-0.00297
2157.35992,-0.00199
2156.32966,-0.00063
2155.29941,0.00067
2154.26915,0.00109
2153.23889,-0.00042
2152.20863,-0.00292
2151.17838,-0.00401
2150.14812,-0.00315
2149.11786,-0.00222
2148.08760,-0.00276
2147.05734,-0.00325
2146.02709,-0.00330
2144.99683,-0.00359
2143.96657,-0.00286
2142.93631,-0.00117
2141.90605,-0.00042
2140.87580,-0.00101
2139.84554,-0.00161
2138.81528,-0.00168
2137.78502,-0.00167
2136.75477,-0.00144
2135.72451,-0.00063
2134.69425,0.00056
2133.66399,0.00168
2132.63373,0.00210
2131.60348,0.00112
2130.57322,-0.00038
2129.54296,-0.00125
2128.51270,-0.00144
2127.48244,-0.00108
2126.45219,-0.00012
2125.42193,0.00110
2124.39167,0.00142
2123.36141,0.00116
2122.33116,0.00136
2121.30090,0.00160
2120.27064,0.00179
2119.24038,0.00194
2118.21012,0.00148
2117.17987,0.00062
2116.14961,0.00038
2115.11935,0.00100
2114.08909,0.00151
2113.05884,0.00123
2112.02858,0.00075
2110.99832,0.00125
2109.96806,0.00241
2108.93780,0.00270
2107.90755,0.00190
2106.87729,0.00084
2105.84703,0.00051
2104.81677,0.00153
2103.78651,0.00256
2102.75626,0.00267
2101.72600,0.00244
2100.69574,0.00185
2099.66548,0.00089
2098.63523,0.00004
2097.60497,0.00007
2096.57471,0.00084
2095.54445,0.00118
2094.51419,0.00097
2093.48394,0.00103
2092.45368,0.00140
2091.42342,0.00167
2090.39316,0.00163
2089.36290,0.00149
2088.33265,0.00168
2087.30239,0.00170
2086.27213,0.00120
2085.24187,0.00154
2084.21162,0.00294
2083.18136,0.00362
2082.15110,0.00346
2081.12084,0.00285
2080.09058,0.00149
2079.06033,0.00040
2078.03007,0.00040
2076.99981,0.00075
2075.96955,0.00061
2074.93930,0.00009
2073.90904,0.00003
2072.87878,0.00097
2071.84852,0.00181
2070.81826,0.00171
2069.78801,0.00112
2068.75775,0.00013
2067.72749,-0.00034
2066.69723,0.00068
2065.66697,0.00166
2064.63672,0.00126
2063.60646,0.00026
2062.57620,-0.00046
2061.54594,-0.00070
2060.51569,-0.00094
2059.48543,-0.00096
2058.45517,0.00004
2057.42491,0.00145
2056.39465,0.00160
2055.36440,0.00055
2054.33414,-0.00002
2053.30388,0.00034
2052.27362,0.00004
2051.24336,-0.00171
2050.21311,-0.00207
2049.18285,-0.00011
2048.15259,0.00115
2047.12233,0.00103
2046.09208,-0.00010
2045.06182,-0.00052
2044.03156,0.00099
2043.00130,0.00177
2041.97104,0.00116
2040.94079,0.00056
2039.91053,-0.00051
2038.88027,-0.00189
2037.85001,-0.00200
2036.81975,-0.00039
2035.78950,0.00141
2034.75924,0.00184
2033.72898,0.00091
2032.69872,-0.00036
2031.66847,-0.00151
2030.63821,-0.00215
2029.60795,-0.00230
2028.57769,-0.00277
2027.54743,-0.00308
2026.51718,-0.00181
2025.48692,0.00058
2024.45666,0.00147
2023.42640,0.00135
2022.39615,0.00231
2021.36589,0.00315
2020.33563,0.00313
2019.30537,0.00288
2018.27511,0.00175
2017.24486,0.00094
2016.21460,0.00242
2015.18434,0.00321
2014.15408,0.00232
2013.12382,0.00224
2012.09357,0.00143
2011.06331,-0.00023
2010.03305,0.00024
2009.00279,0.00263
2007.97254,0.00445
2006.94228,0.00536
2005.91202,0.00515
2004.88176,0.00300
2003.85150,0.00195
2002.82125,0.00301
2001.79099,0.00266
2000.76073,0.00101
1999.73047,0.00011
1998.70021,-0.00053
1997.66996,-0.00105
1996.63970,-0.00090
1995.60944,-0.00075
1994.57918,0.00019
1993.54893,0.00285
1992.51867,0.00582
1991.48841,0.00810
1990.45815,0.00842
1989.42789,0.00669
1988.39764,0.00504
1987.36738,0.00334
1986.33712,0.00164
1985.30686,0.00205
1984.27660,0.00419
1983.24635,0.00593
1982.21609,0.00622
1981.18583,0.00554
1980.15557,0.00474
1979.12532,0.00431
1978.09506,0.00421
1977.06480,0.00426
1976.03454,0.00449
1975.00428,0.00500
1973.97403,0.00511
1972.94377,0.00431
1971.91351,0.00414
1970.88325,0.00478
1969.85300,0.00483
1968.82274,0.00472
1967.79248,0.00504
1966.76222,0.00510
1965.73196,0.00503
1964.70171,0.00552
1963.67145,0.00623
1962.64119,0.00721
1961.61093,0.00779
1960.58067,0.00646
1959.55042,0.00406
1958.52016,0.00335
1957.48990,0.00467
1956.45964,0.00556
1955.42939,0.00569
1954.39913,0.00598
1953.36887,0.00559
1952.33861,0.00473
1951.30835,0.00471
1950.27810,0.00549
1949.24784,0.00671
1948.21758,0.00746
1947.18732,0.00710
1946.15706,0.00652
1945.12681,0.00616
1944.09655,0.00581
1943.06629,0.00533
1942.03603,0.00560
1941.00578,0.00688
1939.97552,0.00765
1938.94526,0.00776
1937.91500,0.00777
1936.88474,0.00725
1935.85449,0.00631
1934.82423,0.00605
1933.79397,0.00665
1932.76371,0.00686
1931.73345,0.00644
1930.70320,0.00600
1929.67294,0.00571
1928.64268,0.00527
1927.61242,0.00462
1926.58217,0.00425
1925.55191,0.00434
1924.52165,0.00442
1923.49139,0.00406
1922.46113,0.00390
1921.43088,0.00402
1920.40062,0.00367
1919.37036,0.00342
1918.34010,0.00373
1917.30985,0.00365
1916.27959,0.00266
1915.24933,0.00197
1914.21907,0.00257
1913.18881,0.00395
1912.15856,0.00477
1911.12830,0.00443
1910.09804,0.00373
1909.06778,0.00343
1908.03752,0.00365
1907.00727,0.00388
1905.97701,0.00357
1904.94675,0.00284
1903.91649,0.00194
1902.88624,0.00179
1901.85598,0.00240
1900.82572,0.00261
1899.79546,0.00269
1898.76520,0.00306
1897.73495,0.00305
1896.70469,0.00245
1895.67443,0.00196
1894.64417,0.00193
1893.61391,0.00224
1892.58366,0.00268
1891.55340,0.00287
1890.52314,0.00266
1889.49288,0.00255
1888.46263,0.00296
1887.43237,0.00294
1886.40211,0.00227
1885.37185,0.00195
1884.34159,0.00184
1883.31134,0.00168
1882.28108,0.00178
1881.25082,0.00197
1880.22056,0.00219
1879.19030,0.00229
1878.16005,0.00209
1877.12979,0.00201
1876.09953,0.00208
1875.06927,0.00192
1874.03902,0.00189
1873.00876,0.00220
1871.97850,0.00256
1870.94824,0.00272
1869.91798,0.00227
1868.88773,0.00139
1867.85747,0.00111
1866.82721,0.00096
1865.79695,0.00058
1864.76670,0.00085
1863.73644,0.00163
1862.70618,0.00197
1861.67592,0.00176
1860.64566,0.00191
1859.61541,0.00250
1858.58515,0.00232
1857.55489,0.00157
1856.52463,0.00131
1855.49437,0.00123
1854.46412,0.00085
1853.43386,0.00062
1852.40360,0.00078
1851.37334,0.00104
1850.34309,0.00113
1849.31283,0.00108
1848.28257,0.00098
1847.25231,0.00090
1846.22205,0.00101
1845.19180,0.00124
1844.16154,0.00143
1843.13128,0.00170
1842.10102,0.00189
1841.07076,0.00196
1840.04051,0.00191
1839.01025,0.00187
1837.97999,0.00217
1836.94973,0.00257
1835.91948,0.00244
1834.88922,0.00186
1833.85896,0.00112
1832.82870,0.00079
1831.79844,0.00120
1830.76819,0.00162
1829.73793,0.00175
1828.70767,0.00190
1827.67741,0.00192
1826.64715,0.00184
1825.61690,0.00150
1824.58664,0.00115
1823.55638,0.00120
1822.52612,0.00135
1821.49587,0.00155
1820.46561,0.00163
1819.43535,0.00150
1818.40509,0.00149
1817.37483,0.00160
1816.34458,0.00163
1815.31432,0.00163
1814.28406,0.00152
1813.25380,0.00132
1812.22355,0.00144
1811.19329,0.00176
1810.16303,0.00191
1809.13277,0.00203
1808.10251,0.00224
1807.07226,0.00237
1806.04200,0.00232
1805.01174,0.00200
1803.98148,0.00149
1802.95122,0.00117
1801.92097,0.00124
1800.89071,0.00175
1799.86045,0.00236
1798.83019,0.00246
1797.79994,0.00222
1796.76968,0.00218
1795.73942,0.00231
1794.70916,0.00240
1793.67890,0.00232
1792.64865,0.00214
1791.61839,0.00214
1790.58813,0.00237
1789.55787,0.00265
1788.52761,0.00272
1787.49736,0.00240
1786.46710,0.00204
1785.43684,0.00206
1784.40658,0.00233
1783.37633,0.00252
1782.34607,0.00256
1781.31581,0.00247
1780.28555,0.00239
1779.25529,0.00246
1778.22504,0.00258
1777.19478,0.00275
1776.16452,0.00277
1775.13426,0.00247
1774.10400,0.00237
1773.07375,0.00243
1772.04349,0.00214
1771.01323,0.00207
1769.98297,0.00243
1768.95272,0.00273
1767.92246,0.00273
1766.89220,0.00254
1765.86194,0.00247
1764.83168,0.00254
1763.80143,0.00278
1762.77117,0.00329
1761.74091,0.00389
1760.71065,0.00405
1759.68040,0.00387
1758.65014,0.00368
1757.61988,0.00354
1756.58962,0.00344
1755.55936,0.00336
1754.52911,0.00328
1753.49885,0.00323
1752.46859,0.00317
1751.43833,0.00314
1750.40807,0.00340
1749.37782,0.00386
1748.34756,0.00401
1747.31730,0.00370
1746.28704,0.00343
1745.25679,0.00336
1744.22653,0.00327
1743.19627,0.00329
1742.16601,0.00339
1741.13575,0.00331
1740.10550,0.00319
1739.07524,0.00330
1738.04498,0.00347
1737.01472,0.00363
1735.98446,0.00383
1734.95421,0.00398
1733.92395,0.00380
1732.89369,0.00337
1731.86343,0.00324
1730.83318,0.00345
1729.80292,0.00380
1728.77266,0.00393
1727.74240,0.00366
1726.71214,0.00341
1725.68189,0.00344
1724.65163,0.00352
1723.62137,0.00370
1722.59111,0.00381
1721.56085,0.00370
1720.53060,0.00365
1719.50034,0.00365
1718.47008,0.00360
1717.43982,0.00348
1716.40957,0.00338
1715.37931,0.00343
1714.34905,0.00361
1713.31879,0.00358
1712.28853,0.00340
1711.25828,0.00351
1710.22802,0.00362
1709.19776,0.00326
1708.16750,0.00280
1707.13725,0.00255
1706.10699,0.00237
1705.07673,0.00227
1704.04647,0.00232
1703.01621,0.00244
1701.98596,0.00259
1700.95570,0.00287
1699.92544,0.00294
1698.89518,0.00256
1697.86492,0.00236
1696.83467,0.00243
1695.80441,0.00269
1694.77415,0.00287
1693.74389,0.00291
1692.71364,0.00286
1691.68338,0.00287
1690.65312,0.00291
1689.62286,0.00273
1688.59260,0.00255
1687.56235,0.00265
1686.53209,0.00271
1685.50183,0.00259
1684.47157,0.00264
1683.44131,0.00297
1682.41106,0.00322
1681.38080,0.00336
1680.35054,0.00328
1679.32028,0.00307
1678.29003,0.00289
1677.25977,0.00270
1676.22951,0.00258
1675.19925,0.00272
1674.16899,0.00304
1673.13874,0.00322
1672.10848,0.00316
1671.07822,0.00299
1670.04796,0.00298
1669.01771,0.00310
1667.98745,0.00301
1666.95719,0.00277
1665.92693,0.00267
1664.89667,0.00281
1663.86642,0.00299
1662.83616,0.00324
1661.80590,0.00357
1660.77564,0.00368
1659.74538,0.00361
1658.71513,0.00351
1657.68487,0.00341
1656.65461,0.00333
1655.62435,0.00337
1654.59410,0.00364
1653.56384,0.00417
1652.53358,0.00447
1651.50332,0.00422
1650.47306,0.00401
1649.44281,0.00403
1648.41255,0.00426
1647.38229,0.00445
1646.35203,0.00456
1645.32177,0.00451
1644.29152,0.00431
1643.26126,0.00412
1642.23100,0.00389
1641.20074,0.00381
1640.17049,0.00407
1639.14023,0.00438
1638.10997,0.00446
1637.07971,0.00449
1636.04945,0.00458
1635.01920,0.00443
1633.98894,0.00423
1632.95868,0.00430
1631.92842,0.00450
1630.89816,0.00472
1629.86791,0.00488
1628.83765,0.00485
1627.80739,0.00467
1626.77713,0.00463
1625.74688,0.00481
1624.71662,0.00497
1623.68636,0.00493
1622.65610,0.00482
1621.62584,0.00485
1620.59559,0.00507
1619.56533,0.00538
1618.53507,0.00559
1617.50481,0.00557
1616.47456,0.00552
1615.44430,0.00570
1614.41404,0.00580
1613.38378,0.00580
1612.35352,0.00579
1611.32327,0.00558
1610.29301,0.00524
1609.26275,0.00524
1608.23249,0.00551
1607.20223,0.00558
1606.17198,0.00546
1605.14172,0.00539
1604.11146,0.00537
1603.08120,0.00526
1602.05095,0.00509
1601.02069,0.00498
1599.99043,0.00492
1598.96017,0.00489
1597.92991,0.00480
1596.89966,0.00450
1595.86940,0.00426
1594.83914,0.00440
1593.80888,0.00468
1592.77862,0.00482
1591.74837,0.00478
1590.71811,0.00466
1589.68785,0.00461
1588.65759,0.00469
1587.62734,0.00482
1586.59708,0.00476
1585.56682,0.00452
1584.53656,0.00443
1583.50630,0.00442
1582.47605,0.00430
1581.44579,0.00430
1580.41553,0.00448
1579.38527,0.00460
1578.35501,0.00460
1577.32476,0.00455
1576.29450,0.00430
1575.26424,0.00400
1574.23398,0.00407
1573.20373,0.00427
1572.17347,0.00428
1571.14321,0.00410
1570.11295,0.00392
1569.08269,0.00383
1568.05244,0.00394
1567.02218,0.00413
1565.99192,0.00436
1564.96166,0.00454
1563.93141,0.00450
1562.90115,0.00435
1561.87089,0.00425
1560.84063,0.00429
1559.81037,0.00434
1558.78012,0.00396
1557.74986,0.00403
1556.71960,0.00443
1555.68934,0.00467
1554.65908,0.00513
1553.62883,0.00548
1552.59857,0.00534
1551.56831,0.00516
1550.53805,0.00505
1549.50780,0.00487
1548.47754,0.00460
1547.44728,0.00450
1546.41702,0.00454
1545.38676,0.00456
1544.35651,0.00459
1543.32625,0.00453
1542.29599,0.00441
1541.26573,0.00450
1540.23547,0.00450
1539.20522,0.00445
1538.17496,0.00482
1537.14470,0.00513
1536.11444,0.00521
1535.08419,0.00520
1534.05393,0.00545
1533.02367,0.00577
1531.99341,0.00566
1530.96315,0.00543
1529.93290,0.00534
1528.90264,0.00534
1527.87238,0.00527
1526.84212,0.00531
1525.81186,0.00571
1524.78161,0.00604
1523.75135,0.00595
1522.72109,0.00591
1521.69083,0.00611
1520.66058,0.00642
1519.63032,0.00649
1518.60006,0.00636
1517.56980,0.00634
1516.53954,0.00651
1515.50929,0.00668
1514.47903,0.00676
1513.44877,0.00673
1512.41851,0.00683
1511.38826,0.00719
1510.35800,0.00738
1509.32774,0.00728
1508.29748,0.00710
1507.26722,0.00712
1506.23697,0.00764
1505.20671,0.00842
1504.17645,0.00882
1503.14619,0.00895
1502.11593,0.00929
1501.08568,0.00991
1500.05542,0.01059
1499.02516,0.01146
1497.99490,0.01267
1496.96465,0.01408
1495.93439,0.01588
1494.90413,0.01771
1493.87387,0.01951
1492.84361,0.02151
1491.81336,0.02375
1490.78310,0.02644
1489.75284,0.02925
1488.72258,0.03140
1487.69232,0.03304
1486.66207,0.03416
1485.63181,0.03464
1484.60155,0.03499
1483.57129,0.03542
1482.54104,0.03606
1481.51078,0.03700
1480.48052,0.03816
1479.45026,0.03952
1478.42000,0.04120
1477.38975,0.04333
1476.35949,0.04630
1475.32923,0.04952
1474.29897,0.05233
1473.26871,0.05549
1472.23846,0.05889
1471.20820,0.06160
1470.17794,0.06358
1469.14768,0.06514
1468.11743,0.06637
1467.08717,0.06763
1466.05691,0.06904
1465.02665,0.07044
1463.99639,0.07163
1462.96614,0.07256
1461.93588,0.07354
1460.90562,0.07469
1459.87536,0.07592
1458.84511,0.07701
1457.81485,0.07752
1456.78459,0.07708
1455.75433,0.07666
1454.72407,0.07675
1453.69382,0.07680
1452.66356,0.07666
1451.63330,0.07644
1450.60304,0.07584
1449.57278,0.07455
1448.54253,0.07247
1447.51227,0.06970
1446.48201,0.06707
1445.45175,0.06472
1444.42150,0.06266
1443.39124,0.06089
1442.36098,0.05923
1441.33072,0.05755
1440.30046,0.05567
1439.27021,0.05376
1438.23995,0.05186
1437.20969,0.04891
1436.17943,0.04462
1435.14917,0.04161
1434.11892,0.03943
1433.08866,0.03711
1432.05840,0.03496
1431.02814,0.03311
1429.99789,0.03144
1428.96763,0.03009
1427.93737,0.02933
1426.90711,0.02898
1425.87685,0.02883
1424.84660,0.02875
1423.81634,0.02859
1422.78608,0.02823
1421.75582,0.02800
1420.72556,0.02829
1419.69531,0.02879
1418.66505,0.02899
1417.63479,0.02931
1416.60453,0.02968
1415.57428,0.02987
1414.54402,0.03018
1413.51376,0.03066
1412.48350,0.03094
1411.45324,0.03098
1410.42299,0.03119
1409.39273,0.03161
1408.36247,0.03206
1407.33221,0.03263
1406.30196,0.03313
1405.27170,0.03337
1404.24144,0.03345
1403.21118,0.03356
1402.18092,0.03384
1401.15067,0.03420
1400.12041,0.03448
1399.09015,0.03475
1398.05989,0.03483
1397.02963,0.03474
1395.99938,0.03478
1394.96912,0.03503
1393.93886,0.03527
1392.90860,0.03548
1391.87835,0.03587
1390.84809,0.03616
1389.81783,0.03615
1388.78757,0.03625
1387.75731,0.03672
1386.72706,0.03734
1385.69680,0.03785
1384.66654,0.03820
1383.63628,0.03859
1382.60602,0.03928
1381.57577,0.04018
1380.54551,0.04101
1379.51525,0.04172
1378.48499,0.04244
1377.45474,0.04313
1376.42448,0.04387
1375.39422,0.04484
1374.36396,0.04603
1373.33370,0.04724
1372.30345,0.04834
1371.27319,0.04946
1370.24293,0.05067
1369.21267,0.05208
1368.18241,0.05360
1367.15216,0.05512
1366.12190,0.05675
1365.09164,0.05852
1364.06138,0.06045
1363.03113,0.06269
1362.00087,0.06526
1360.97061,0.06824
1359.94035,0.07168
1358.91009,0.07548
1357.87984,0.07962
1356.84958,0.08421
1355.81932,0.08937
1354.78906,0.09490
1353.75881,0.10044
1352.72855,0.10594
1351.69829,0.11152
1350.66803,0.11644
1349.63777,0.11990
1348.60752,0.12143
1347.57726,0.11998
1346.54700,0.11482
1345.51674,0.10610
1344.48648,0.09479
1343.45623,0.08278
1342.42597,0.07208
1341.39571,0.06361
1340.36545,0.05728
1339.33520,0.05299
1338.30494,0.05064
1337.27468,0.04954
1336.24442,0.04912
1335.21416,0.04955
1334.18391,0.05067
1333.15365,0.05198
1332.12339,0.05341
1331.09313,0.05502
1330.06287,0.05668
1329.03262,0.05853
1328.00236,0.06074
1326.97210,0.06300
1325.94184,0.06501
1324.91159,0.06640
1323.88133,0.06672
1322.85107,0.06597
1321.82081,0.06443
1320.79055,0.06235
1319.76030,0.06017
1318.73004,0.05836
1317.69978,0.05721
1316.66952,0.05702
1315.63927,0.05762
1314.60901,0.05846
1313.57875,0.05958
1312.54849,0.06150
1311.51823,0.06406
1310.48798,0.06679
1309.45772,0.06974
1308.42746,0.07324
1307.39720,0.07714
1306.36694,0.08083
1305.33669,0.08387
1304.30643,0.08658
1303.27617,0.08917
1302.24591,0.09133
1301.21566,0.09290
1300.18540,0.09391
1299.15514,0.09467
1298.12488,0.09544
1297.09462,0.09594
1296.06437,0.09612
1295.03411,0.09614
1294.00385,0.09592
1292.97359,0.09549
1291.94333,0.09497
1290.91308,0.09438
1289.88282,0.09372
1288.85256,0.09310
1287.82230,0.09248
1286.79205,0.09154
1285.76179,0.09026
1284.73153,0.08887
1283.70127,0.08734
1282.67101,0.08581
1281.64076,0.08418
1280.61050,0.08219
1279.58024,0.07999
1278.54998,0.07772
1277.51972,0.07547
1276.48947,0.07323
1275.45921,0.07108
1274.42895,0.06931
1273.39869,0.06795
1272.36844,0.06670
1271.33818,0.06541
1270.30792,0.06453
1269.27766,0.06444
1268.24740,0.06481
1267.21715,0.06523
1266.18689,0.06578
1265.15663,0.06682
1264.12637,0.06838
1263.09612,0.07027
1262.06586,0.07247
1261.03560,0.07507
1260.00534,0.07829
1258.97508,0.08217
1257.94483,0.08607
1256.91457,0.08949
1255.88431,0.09263
1254.85405,0.09560
1253.82379,0.09832
1252.79354,0.10060
1251.76328,0.10223
1250.73302,0.10341
1249.70276,0.10424
1248.67251,0.10445
1247.64225,0.10394
1246.61199,0.10281
1245.58173,0.10126
1244.55147,0.09944
1243.52122,0.09733
1242.49096,0.09486
1241.46070,0.09208
1240.43044,0.08911
1239.40018,0.08587
1238.36993,0.08230
1237.33967,0.07860
1236.30941,0.07511
1235.27915,0.07193
1234.24890,0.06883
1233.21864,0.06559
1232.18838,0.06240
1231.15812,0.05966
1230.12786,0.05741
1229.09761,0.05525
1228.06735,0.05329
1227.03709,0.05183
1226.00683,0.05057
1224.97657,0.04929
1223.94632,0.04819
1222.91606,0.04737
1221.88580,0.04673
1220.85554,0.04625
1219.82529,0.04581
1218.79503,0.04503
1217.76477,0.04386
1216.73451,0.04273
1215.70425,0.04196
1214.67400,0.04136
1213.64374,0.04047
1212.61348,0.03905
1211.58322,0.03731
1210.55297,0.03584
1209.52271,0.03484
1208.49245,0.03390
1207.46219,0.03283
1206.43193,0.03182
1205.40168,0.03108
1204.37142,0.03070
1203.34116,0.03039
1202.31090,0.03007
1201.28064,0.02982
1200.25039,0.02947
1199.22013,0.02905
1198.18987,0.02876
1197.15961,0.02867
1196.12936,0.02866
1195.09910,0.02861
1194.06884,0.02856
1193.03858,0.02856
1192.00832,0.02870
1190.97807,0.02893
1189.94781,0.02929
1188.91755,0.02985
1187.88729,0.03042
1186.85703,0.03089
1185.82678,0.03144
1184.79652,0.03190
1183.76626,0.03223
1182.73600,0.03293
1181.70575,0.03400
1180.67549,0.03489
1179.64523,0.03576
1178.61497,0.03683
1177.58471,0.03807
1176.55446,0.03967
1175.52420,0.04151
1174.49394,0.04327
1173.46368,0.04519
1172.43342,0.04752
1171.40317,0.05004
1170.37291,0.05278
1169.34265,0.05600
1168.31239,0.05972
1167.28214,0.06391
1166.25188,0.06861
1165.22162,0.07403
1164.19136,0.08031
1163.16110,0.08726
1162.13085,0.09481
1161.10059,0.10309
1160.07033,0.11222
1159.04007,0.12219
1158.00982,0.13290
1156.97956,0.14409
1155.94930,0.15573
1154.91904,0.16803
1153.88878,0.18068
1152.85853,0.19324
1151.82827,0.20565
1150.79801,0.21800
1149.76775,0.23027
1148.73749,0.24225
1147.70724,0.25370
1146.67698,0.26433
1145.64672,0.27415
1144.61646,0.28377
1143.58621,0.29309
1142.55595,0.30134
1141.52569,0.30903
1140.49543,0.31680
1139.46517,0.32381
1138.43492,0.32958
1137.40466,0.33499
1136.37440,0.34096
1135.34414,0.34693
1134.31388,0.35211
1133.28363,0.35725
1132.25337,0.36296
1131.22311,0.36918
1130.19285,0.37585
1129.16260,0.38260
1128.13234,0.38937
1127.10208,0.39681
1126.07182,0.40503
1125.04156,0.41317
1124.01131,0.42056
1122.98105,0.42752
1121.95079,0.43480
1120.92053,0.44275
1119.89027,0.45083
1118.86002,0.45841
1117.82976,0.46559
1116.79950,0.47293
1115.76924,0.48049
1114.73899,0.48783
1113.70873,0.49523
1112.67847,0.50313
1111.64821,0.51134
1110.61795,0.51975
1109.58770,0.52825
1108.55744,0.53676
1107.52718,0.54539
1106.49692,0.55377
1105.46667,0.56203
1104.43641,0.57099
1103.40615,0.57994
1102.37589,0.58785
1101.34563,0.59571
1100.31538,0.60348
1099.28512,0.60978
1098.25486,0.61561
1097.22460,0.62128
1096.19434,0.62507
1095.16409,0.62703
1094.13383,0.62827
1093.10357,0.62893
1092.07331,0.62831
1091.04306,0.62610
1090.01280,0.62286
1088.98254,0.61859
1087.95228,0.61305
1086.92202,0.60677
1085.89177,0.59948
1084.86151,0.59117
1083.83125,0.58312
1082.80099,0.57564
1081.77073,0.56736
1080.74048,0.55825
1079.71022,0.54952
1078.67996,0.54081
1077.64970,0.53204
1076.61945,0.52428
1075.58919,0.51740
1074.55893,0.51101
1073.52867,0.50561
1072.49841,0.50093
1071.46816,0.49615
1070.43790,0.49143
1069.40764,0.48745
1068.37738,0.48441
1067.34712,0.48151
1066.31687,0.47811
1065.28661,0.47464
1064.25635,0.47083
1063.22609,0.46552
1062.19584,0.45881
1061.16558,0.45140
1060.13532,0.44303
1059.10506,0.43376
1058.07480,0.42445
1057.04455,0.41493
1056.01429,0.40467
1054.98403,0.39431
1053.95377,0.38439
1052.92352,0.37513
1051.89326,0.36658
1050.86300,0.35868
1049.83274,0.35178
1048.80248,0.34594
1047.77223,0.34086
1046.74197,0.33657
1045.71171,0.33325
1044.68145,0.33095
1043.65119,0.32953
1042.62094,0.32871
1041.59068,0.32823
1040.56042,0.32781
1039.53016,0.32733
1038.49991,0.32729
1037.46965,0.32728
1036.43939,0.32628
1035.40913,0.32442
1034.37887,0.32201
1033.34862,0.31867
1032.31836,0.31432
1031.28810,0.30965
1030.25784,0.30467
1029.22758,0.29872
1028.19733,0.29200
1027.16707,0.28476
1026.13681,0.27674
1025.10655,0.26828
1024.07630,0.25967
1023.04604,0.25091
1022.01578,0.24225
1020.98552,0.23359
1019.95526,0.22482
1018.92501,0.21611
1017.89475,0.20773
1016.86449,0.20001
1015.83423,0.19300
1014.80397,0.18652
1013.77372,0.18031
1012.74346,0.17440
1011.71320,0.16891
1010.68294,0.16384
1009.65269,0.15937
1008.62243,0.15557
1007.59217,0.15243
1006.56191,0.15041
1005.53165,0.14961
1004.50140,0.14914
1003.47114,0.14839
1002.44088,0.14768
1001.41062,0.14725
1000.38037,0.14712
999.35011,0.14733
998.31985,0.14769
997.28959,0.14782
996.25933,0.14786
995.22908,0.14798
994.19882,0.14775
993.16856,0.14707
992.13830,0.14598
991.10804,0.14430
990.07779,0.14216
989.04753,0.14003
988.01727,0.13782
986.98701,0.13497
985.95676,0.13140
984.92650,0.12764
983.89624,0.12416
982.86598,0.12071
981.83572,0.11713
980.80547,0.11367
979.77521,0.11021
978.74495,0.10676
977.71469,0.10370
976.68443,0.10097
975.65418,0.09856
974.62392,0.09671
973.59366,0.09553
972.56340,0.09507
971.53315,0.09528
970.50289,0.09604
969.47263,0.09705
968.44237,0.09839
967.41211,0.10056
966.38186,0.10343
965.35160,0.10694
964.32134,0.11125
963.29108,0.11608
962.26082,0.12149
961.23057,0.12758
960.20031,0.13421
959.17005,0.14122
958.13979,0.14822
957.10954,0.15510
956.07928,0.16199
955.04902,0.16855
954.01876,0.17431
952.98850,0.17937
951.95825,0.18423
950.92799,0.18876
949.89773,0.19224
948.86747,0.19460
947.83722,0.19646
946.80696,0.19795
945.77670,0.19913
944.74644,0.20007
943.71618,0.20058
942.68593,0.20062
941.65567,0.20026
940.62541,0.19953
939.59515,0.19845
938.56489,0.19705
937.53464,0.19559
936.50438,0.19426
935.47412,0.19265
934.44386,0.19061
933.41361,0.18854
932.38335,0.18612
931.35309,0.18319
930.32283,0.18027
929.29257,0.17754
928.26232,0.17489
927.23206,0.17221
926.20180,0.16932
925.17154,0.16632
924.14128,0.16357
923.11103,0.16092
922.08077,0.15801
921.05051,0.15512
920.02025,0.15256
918.99000,0.15006
917.95974,0.14733
916.92948,0.14469
915.89922,0.14218
914.86896,0.13941
913.83871,0.13665
912.80845,0.13409
911.77819,0.13143
910.74793,0.12857
909.71768,0.12567
908.68742,0.12305
907.65716,0.12046
906.62690,0.11756
905.59664,0.11448
904.56639,0.11144
903.53613,0.10877
902.50587,0.10686
901.47561,0.10564
900.44535,0.10471
899.41510,0.10417
898.38484,0.10435
897.35458,0.10510
896.32432,0.10641
895.29407,0.10851
894.26381,0.11116
893.23355,0.11413
892.20329,0.11744
891.17303,0.12098
890.14278,0.12453
889.11252,0.12787
888.08226,0.13093
887.05200,0.13381
886.02174,0.13595
884.99149,0.13702
883.96123,0.13732
882.93097,0.13685
881.90071,0.13562
880.87046,0.13367
879.84020,0.13129
878.80994,0.12908
877.77968,0.12726
876.74942,0.12573
875.71917,0.12441
874.68891,0.12369
873.65865,0.12375
872.62839,0.12453
871.59813,0.12592
870.56788,0.12744
869.53762,0.12894
868.50736,0.13084
867.47710,0.13293
866.44685,0.13448
865.41659,0.13576
864.38633,0.13719
863.35607,0.13834
862.32581,0.13951
861.29556,0.14083
860.26530,0.14164
859.23504,0.14224
858.20478,0.14288
857.17453,0.14338
856.14427,0.14429
855.11401,0.14612
854.08375,0.14809
853.05349,0.14944
852.02324,0.15068
850.99298,0.15221
849.96272,0.15380
848.93246,0.15495
847.90220,0.15597
846.87195,0.15705
845.84169,0.15763
844.81143,0.15745
843.78117,0.15648
842.75092,0.15519
841.72066,0.15382
840.69040,0.15180
839.66014,0.14892
838.62988,0.14561
837.59963,0.14229
836.56937,0.13930
835.53911,0.13665
834.50885,0.13371
833.47859,0.13006
832.44834,0.12621
831.41808,0.12257
830.38782,0.11919
829.35756,0.11607
828.32731,0.11282
827.29705,0.10946
826.26679,0.10642
825.23653,0.10370
824.20627,0.10103
823.17602,0.09829
822.14576,0.09564
821.11550,0.09330
820.08524,0.09102
819.05498,0.08844
818.02473,0.08611
816.99447,0.08471
815.96421,0.08394
814.93395,0.08313
813.90370,0.08197
812.87344,0.08054
811.84318,0.07881
810.81292,0.07724
809.78266,0.07640
808.75241,0.07546
807.72215,0.07402
806.69189,0.07265
805.66163,0.07115
804.63138,0.06921
803.60112,0.06725
802.57086,0.06595
801.54060,0.06473
800.51034,0.06262
799.48009,0.05998
798.44983,0.05726
797.41957,0.05477
796.38931,0.05268
795.35905,0.05050
794.32880,0.04824
793.29854,0.04637
792.26828,0.04476
791.23802,0.04311
790.20777,0.04172
789.17751,0.04060
788.14725,0.03913
787.11699,0.03735
786.08673,0.03555
785.05648,0.03347
784.02622,0.03150
782.99596,0.03031
781.96570,0.02941
780.93544,0.02818
779.90519,0.02693
778.87493,0.02575
777.84467,0.02446
776.81441,0.02310
775.78416,0.02205
774.75390,0.02150
773.72364,0.02075
772.69338,0.01957
771.66312,0.01868
770.63287,0.01850
769.60261,0.01873
768.57235,0.01884
767.54209,0.01866
766.51183,0.01813
765.48158,0.01767
764.45132,0.01771
763.42106,0.01749
762.39080,0.01695
761.36055,0.01686
760.33029,0.01709
759.30003,0.01707
758.26977,0.01708
757.23951,0.01741
756.20926,0.01724
755.17900,0.01648
754.14874,0.01619
753.11848,0.01629
752.08823,0.01653
751.05797,0.01726
750.02771,0.01804
748.99745,0.01820
747.96719,0.01786
746.93694,0.01747
745.90668,0.01708
744.87642,0.01699
743.84616,0.01735
742.81590,0.01737
741.78565,0.01686
740.75539,0.01654
739.72513,0.01674
738.69487,0.01703
737.66462,0.01710
736.63436,0.01731
735.60410,0.01773
734.57384,0.01788
733.54358,0.01787
732.51333,0.01855
731.48307,0.01948
730.45281,0.01933
729.42255,0.01865
728.39229,0.01860
727.36204,0.01915
726.33178,0.01957
725.30152,0.01951
724.27126,0.01934
723.24101,0.01931
722.21075,0.01921
721.18049,0.01930
720.15023,0.01978
719.11997,0.02015
718.08972,0.02005
717.05946,0.01991
716.02920,0.02020
714.99894,0.02055
713.96868,0.02050
712.93843,0.02054
711.90817,0.02099
710.87791,0.02111
709.84765,0.02102
708.81740,0.02146
707.78714,0.02194
706.75688,0.02210
705.72662,0.02233
704.69636,0.02253
703.66611,0.02243
702.63585,0.02261
701.60559,0.02345
700.57533,0.02381
699.54508,0.02322
698.51482,0.02289
697.48456,0.02331
696.45430,0.02402
695.42404,0.02416
694.39379,0.02395
693.36353,0.02477
692.33327,0.02577
691.30301,0.02551
690.27275,0.02499
689.24250,0.02514
688.21224,0.02542
687.18198,0.02574
686.15172,0.02645
685.12147,0.02717
684.09121,0.02746
683.06095,0.02755
682.03069,0.02757
681.00043,0.02749
679.97018,0.02758
678.93992,0.02778
677.90966,0.02782
676.87940,0.02779
675.84914,0.02834
674.81889,0.02927
673.78863,0.02963
672.75837,0.02983
671.72811,0.03060
670.69786,0.03108
669.66760,0.03056
668.63734,0.02980
667.60708,0.02977
666.57682,0.02987
665.54657,0.03040
664.51631,0.03139
663.48605,0.03170
662.45579,0.03148
661.42553,0.03198
660.39528,0.03268
659.36502,0.03263
658.33476,0.03222
657.30450,0.03261
656.27425,0.03381
655.24399,0.03449
654.21373,0.03497
653.18347,0.03575
652.15321,0.03607
651.12296,0.03640
650.09270,0.03690
649.06244,0.03660
648.03218,0.03595
647.00193,0.03633
645.97167,0.03762
644.94141,0.03822
643.91115,0.03809
642.88089,0.03857
641.85064,0.03919
640.82038,0.03927
639.79012,0.03922
638.75986,0.03901
637.72960,0.03922
636.69935,0.04044
635.66909,0.04132
634.63883,0.04157
633.60857,0.04243
632.57832,0.04365
631.54806,0.04447
630.51780,0.04496
629.48754,0.04531
628.45728,0.04559
627.42703,0.04610
626.39677,0.04668
625.36651,0.04684
624.33625,0.04692
623.30599,0.04707
622.27574,0.04720
621.24548,0.04755
620.21522,0.04811
619.18496,0.04863
618.15471,0.04925
617.12445,0.04990
616.09419,0.04971
615.06393,0.04947
614.03367,0.05062
613.00342,0.05209
611.97316,0.05235
610.94290,0.05187
609.91264,0.05181
608.88238,0.05264
607.85213,0.05417
606.82187,0.05570
605.79161,0.05641
604.76135,0.05630
603.73110,0.05641
602.70084,0.05719
601.67058,0.05826
600.64032,0.05934
599.61006,0.06012
598.57981,0.06064
597.54955,0.06196
596.51929,0.06423
595.48903,0.06537
594.45878,0.06490
593.42852,0.06492
592.39826,0.06613
591.36800,0.06797
590.33774,0.06996
589.30749,0.07151
588.27723,0.07261
587.24697,0.07314
586.21671,0.07298
585.18645,0.07341
584.15620,0.07539
583.12594,0.07762
582.09568,0.07909
581.06542,0.07981
580.03517,0.07967
579.00491,0.08002
577.97465,0.08143
576.94439,0.08200
575.91413,0.08215
574.88388,0.08378
573.85362,0.08623
572.82336,0.08832
571.79310,0.08941
570.76284,0.08909
569.73259,0.08829
568.70233,0.08832
567.67207,0.08897
566.64181,0.08999
565.61156,0.09101
564.58130,0.09098
563.55104,0.09120
562.52078,0.09315
561.49052,0.09502
560.46027,0.09556
559.43001,0.09532
558.39975,0.09452
557.36949,0.09382
556.33924,0.09477
555.30898,0.09776
554.27872,0.09999
553.24846,0.09950
552.21820,0.09873
551.18795,0.09921
550.15769,0.09951
549.12743,0.10022
548.09717,0.10165
547.06691,0.10166
546.03666,0.10052
545.00640,0.10066
543.97614,0.10174
542.94588,0.10236
541.91563,0.10312
540.88537,0.10353
539.85511,0.10309
538.82485,0.10336
537.79459,0.10405
536.76434,0.10402
535.73408,0.10509
534.70382,0.10757
533.67356,0.10814
532.64330,0.10638
531.61305,0.10521
530.58279,0.10563
529.55253,0.10594
528.52227,0.10584
527.49202,0.10724
526.46176,0.10985
525.43150,0.11128
524.40124,0.11155
523.37098,0.11207
522.34073,0.11267
521.31047,0.11279
520.28021,0.11260
519.24995,0.11259
518.21969,0.11230
517.18944,0.11129
516.15918,0.11037
515.12892,0.10964
514.09866,0.10919
513.06841,0.11042
512.03815,0.11241
511.00789,0.11289
509.97763,0.11183
508.94737,0.10984
507.91712,0.10765
506.88686,0.10653
505.85660,0.10707
504.82634,0.10770
503.79609,0.10748
502.76583,0.10683
501.73557,0.10470
500.70531,0.10152
499.67505,0.09939
498.64480,0.09842
497.61454,0.09805
496.58428,0.09834
495.55402,0.09898
494.52376,0.10010
493.49351,0.10117
492.46325,0.09955
491.43299,0.09618
490.40273,0.09413
489.37248,0.09362
488.34222,0.09400
487.31196,0.09319
486.28170,0.09074
485.25144,0.08941
484.22119,0.08973
483.19093,0.08918
482.16067,0.08728
481.13041,0.08675
480.10015,0.08838
479.06990,0.08920
478.03964,0.08707
477.00938,0.08317
475.97912,0.08060
474.94887,0.08093
473.91861,0.08239
472.88835,0.08367
471.85809,0.08357
470.82783,0.08156
469.79758,0.07980
468.76732,0.08073
467.73706,0.08352
466.70680,0.08390
465.67654,0.08268
464.64629,0.08347
463.61603,0.08461
462.58577,0.08412
461.55551,0.08292
460.52526,0.08112
459.49500,0.07968
458.46474,0.08086
457.43448,0.08297
456.40422,0.08312
455.37397,0.08214
454.34371,0.08101
453.31345,0.07992
452.28319,0.07791
451.25294,0.07597
450.22268,0.07561
449.19242,0.07626
448.16216,0.07769
447.13190,0.07784
446.10165,0.07476
445.07139,0.07222
444.04113,0.07266
443.01087,0.07250
441.98061,0.06973
440.95036,0.06791
439.92010,0.06879
438.88984,0.07205
437.85958,0.07512
436.82933,0.07486
435.79907,0.07500
434.76881,0.07556
433.73855,0.07242
432.70829,0.06958
431.67804,0.06812
430.64778,0.06697
429.61752,0.06868
428.58726,0.07084
427.55700,0.07160
426.52675,0.07333
425.49649,0.07401
424.46623,0.07112
423.43597,0.06880
422.40572,0.06751
421.37546,0.06534
420.34520,0.06557
419.31494,0.06905
418.28468,0.07112
417.25443,0.07077
416.22417,0.07142
415.19391,0.07158
414.16365,0.06932
413.13339,0.06782
412.10314,0.06895
411.07288,0.07112
410.04262,0.07643
409.01236,0.08222
407.98211,0.07962
406.95185,0.07281
405.92159,0.07049
404.89133,0.07241
403.86107,0.07390
402.83082,0.07180
401.80056,0.06671
400.77030,0.06204
399.74004,0.06176
