4998.81105,0.00109
4997.78079,0.00140
4996.75054,0.00156
4995.72028,0.00119
4994.69002,0.00055
4993.65976,0.00032
4992.62951,0.00091
4991.59925,0.00194
4990.56899,0.00217
4989.53873,0.00121
4988.50847,0.00003
4987.47822,-0.00035
4986.44796,-0.00019
4985.41770,0.00007
4984.38744,0.00020
4983.35718,0.00010
4982.32693,0.00005
4981.29667,-0.00024
4980.26641,-0.00071
4979.23615,-0.00070
4978.20590,-0.00055
4977.17564,-0.00009
4976.14538,0.00134
4975.11512,0.00279
4974.08486,0.00359
4973.05461,0.00376
4972.02435,0.00296
4970.99409,0.00165
4969.96383,0.00055
4968.93357,-0.00034
4967.90332,-0.00132
4966.87306,-0.00171
4965.84280,-0.00106
4964.81254,-0.00005
4963.78229,0.00115
4962.75203,0.00200
4961.72177,0.00182
4960.69151,0.00167
4959.66125,0.00211
4958.63100,0.00208
4957.60074,0.00144
4956.57048,0.00096
4955.54022,0.00083
4954.50997,0.00070
4953.47971,0.00045
4952.44945,0.00022
4951.41919,0.00011
4950.38893,0.00064
4949.35868,0.00155
4948.32842,0.00169
4947.29816,0.00121
4946.26790,0.00098
4945.23764,0.00106
4944.20739,0.00100
4943.17713,0.00083
4942.14687,0.00129
4941.11661,0.00225
4940.08636,0.00203
4939.05610,0.00025
4938.02584,-0.00097
4936.99558,-0.00012
4935.96532,0.00170
4934.93507,0.00232
4933.90481,0.00141
4932.87455,0.00046
4931.84429,0.00035
4930.81403,0.00114
4929.78378,0.00165
4928.75352,0.00161
4927.72326,0.00203
4926.69300,0.00188
4925.66275,0.00046
4924.63249,-0.00099
4923.60223,-0.00140
4922.57197,-0.00089
4921.54171,-0.00039
4920.51146,-0.00037
4919.48120,-0.00035
4918.45094,-0.00018
4917.42068,-0.00018
4916.39042,-0.00030
4915.36017,0.00001
4914.32991,0.00077
4913.29965,0.00083
4912.26939,0.00037
4911.23914,0.00060
4910.20888,0.00073
4909.17862,0.00090
4908.14836,0.00186
4907.11810,0.00185
4906.08785,0.00065
4905.05759,0.00027
4904.02733,0.00103
4902.99707,0.00233
4901.96682,0.00297
4900.93656,0.00197
4899.90630,0.00112
4898.87604,0.00162
4897.84578,0.00206
4896.81553,0.00204
4895.78527,0.00225
4894.75501,0.00193
4893.72475,0.00133
4892.69449,0.00173
4891.66424,0.00216
4890.63398,0.00193
4889.60372,0.00177
4888.57346,0.00170
4887.54321,0.00147
4886.51295,0.00091
4885.48269,0.00038
4884.45243,0.00065
4883.42217,0.00124
4882.39192,0.00164
4881.36166,0.00196
4880.33140,0.00156
4879.30114,0.00088
4878.27088,0.00087
4877.24063,0.00086
4876.21037,0.00084
4875.18011,0.00148
4874.14985,0.00179
4873.11960,0.00136
4872.08934,0.00156
4871.05908,0.00220
4870.02882,0.00218
4868.99856,0.00175
4867.96831,0.00099
4866.93805,0.00005
4865.90779,0.00002
4864.87753,0.00085
4863.84727,0.00123
4862.81702,0.00094
4861.78676,0.00083
4860.75650,0.00119
4859.72624,0.00160
4858.69599,0.00159
4857.66573,0.00118
4856.63547,0.00057
4855.60521,0.00007
4854.57495,0.00024
4853.54470,0.00083
4852.51444,0.00091
4851.48418,0.00043
4850.45392,0.00028
4849.42367,0.00058
4848.39341,0.00087
4847.36315,0.00108
4846.33289,0.00105
4845.30263,0.00089
4844.27238,0.00108
4843.24212,0.00159
4842.21186,0.00193
4841.18160,0.00208
4840.15134,0.00190
4839.12109,0.00105
4838.09083,0.00037
4837.06057,0.00083
4836.03031,0.00151
4835.00006,0.00094
4833.96980,-0.00010
4832.93954,-0.00038
4831.90928,-0.00019
4830.87902,-0.00002
4829.84877,0.00006
4828.81851,0.00021
4827.78825,0.00060
4826.75799,0.00115
4825.72773,0.00117
4824.69748,0.00066
4823.66722,0.00031
4822.63696,0.00022
4821.60670,0.00072
4820.57645,0.00162
4819.54619,0.00182
4818.51593,0.00165
4817.48567,0.00198
4816.45541,0.00227
4815.42516,0.00216
4814.39490,0.00198
4813.36464,0.00138
4812.33438,0.00054
4811.30412,0.00054
4810.27387,0.00107
4809.24361,0.00128
4808.21335,0.00135
4807.18309,0.00114
4806.15284,0.00083
4805.12258,0.00159
4804.09232,0.00236
4803.06206,0.00159
4802.03180,0.00055
4801.00155,0.00014
4799.97129,0.00025
4798.94103,0.00060
4797.91077,0.00078
4796.88052,0.00096
4795.85026,0.00111
4794.82000,0.00078
4793.78974,0.00065
4792.75948,0.00125
4791.72923,0.00186
4790.69897,0.00194
4789.66871,0.00153
4788.63845,0.00096
4787.60819,0.00045
4786.57794,0.00045
4785.54768,0.00100
4784.51742,0.00140
4783.48716,0.00128
4782.45691,0.00157
4781.42665,0.00274
4780.39639,0.00328
4779.36613,0.00249
4778.33587,0.00143
4777.30562,0.00083
4776.27536,0.00087
4775.24510,0.00150
4774.21484,0.00206
4773.18458,0.00192
4772.15433,0.00148
4771.12407,0.00135
4770.09381,0.00095
4769.06355,0.00038
4768.03330,0.00060
4767.00304,0.00107
4765.97278,0.00114
4764.94252,0.00081
4763.91226,0.00018
4762.88201,-0.00033
4761.85175,0.00005
4760.82149,0.00102
4759.79123,0.00127
4758.76098,0.00096
4757.73072,0.00067
4756.70046,0.00023
4755.67020,-0.00016
4754.63994,-0.00014
4753.60969,-0.00002
4752.57943,0.00030
4751.54917,0.00111
4750.51891,0.00129
4749.48865,0.00056
4748.45840,0.00025
4747.42814,0.00020
4746.39788,0.00025
4745.36762,0.00124
4744.33737,0.00219
4743.30711,0.00244
4742.27685,0.00241
4741.24659,0.00175
4740.21633,0.00066
4739.18608,0.00011
4738.15582,0.00038
4737.12556,0.00076
4736.09530,0.00090
4735.06504,0.00111
4734.03479,0.00132
4733.00453,0.00095
4731.97427,0.00040
4730.94401,0.00027
4729.91376,0.00065
4728.88350,0.00141
4727.85324,0.00169
4726.82298,0.00120
4725.79272,0.00061
4724.76247,0.00038
4723.73221,0.00045
4722.70195,0.00075
4721.67169,0.00123
4720.64143,0.00139
4719.61118,0.00135
4718.58092,0.00142
4717.55066,0.00170
4716.52040,0.00213
4715.49015,0.00193
4714.45989,0.00128
4713.42963,0.00127
4712.39937,0.00155
4711.36911,0.00159
4710.33886,0.00136
4709.30860,0.00078
4708.27834,0.00056
4707.24808,0.00087
4706.21783,0.00111
4705.18757,0.00113
4704.15731,0.00115
4703.12705,0.00148
4702.09679,0.00190
4701.06654,0.00173
4700.03628,0.00091
4699.00602,0.00052
4697.97576,0.00112
4696.94550,0.00158
4695.91525,0.00143
4694.88499,0.00168
4693.85473,0.00211
4692.82447,0.00184
4691.79422,0.00114
4690.76396,0.00053
4689.73370,0.00051
4688.70344,0.00091
4687.67318,0.00109
4686.64293,0.00109
4685.61267,0.00098
4684.58241,0.00101
4683.55215,0.00148
4682.52189,0.00161
4681.49164,0.00083
4680.46138,0.00014
4679.43112,0.00012
4678.40086,0.00062
4677.37061,0.00161
4676.34035,0.00258
4675.31009,0.00282
4674.27983,0.00233
4673.24957,0.00172
4672.21932,0.00176
4671.18906,0.00232
4670.15880,0.00230
4669.12854,0.00138
4668.09828,0.00042
4667.06803,0.00018
4666.03777,0.00066
4665.00751,0.00128
4663.97725,0.00142
4662.94700,0.00088
4661.91674,0.00028
4660.88648,0.00028
4659.85622,0.00060
4658.82596,0.00092
4657.79571,0.00135
4656.76545,0.00147
4655.73519,0.00075
4654.70493,0.00003
4653.67468,-0.00023
4652.64442,-0.00049
4651.61416,-0.00031
4650.58390,0.00054
4649.55364,0.00113
4648.52339,0.00100
4647.49313,0.00103
4646.46287,0.00132
4645.43261,0.00095
4644.40235,0.00020
4643.37210,-0.00032
4642.34184,-0.00047
4641.31158,-0.00044
4640.28132,-0.00038
4639.25107,-0.00001
4638.22081,0.00063
4637.19055,0.00105
4636.16029,0.00135
4635.13003,0.00162
4634.09978,0.00143
4633.06952,0.00109
4632.03926,0.00118
4631.00900,0.00116
4629.97874,0.00048
4628.94849,-0.00025
4627.91823,-0.00023
4626.88797,0.00057
4625.85771,0.00142
4624.82746,0.00147
4623.79720,0.00092
4622.76694,0.00091
4621.73668,0.00183
4620.70642,0.00282
4619.67617,0.00296
4618.64591,0.00175
4617.61565,0.00030
4616.58539,0.00011
4615.55513,0.00064
4614.52488,0.00061
4613.49462,0.00004
4612.46436,-0.00010
4611.43410,0.00022
4610.40385,0.00048
4609.37359,0.00062
4608.34333,0.00061
4607.31307,0.00037
4606.28281,0.00025
4605.25256,0.00082
4604.22230,0.00131
4603.19204,0.00103
4602.16178,0.00079
4601.13153,0.00090
4600.10127,0.00099
4599.07101,0.00098
4598.04075,0.00078
4597.01049,0.00066
4595.98024,0.00071
4594.94998,0.00076
4593.91972,0.00115
4592.88946,0.00160
4591.85920,0.00132
4590.82895,0.00055
4589.79869,0.00006
4588.76843,0.00005
4587.73817,0.00055
4586.70792,0.00127
4585.67766,0.00152
4584.64740,0.00115
4583.61714,0.00052
4582.58688,0.00024
4581.55663,0.00062
4580.52637,0.00101
4579.49611,0.00103
4578.46585,0.00082
4577.43559,0.00045
4576.40534,0.00056
4575.37508,0.00087
4574.34482,0.00069
4573.31456,0.00067
4572.28431,0.00106
4571.25405,0.00117
4570.22379,0.00104
4569.19353,0.00151
4568.16327,0.00216
4567.13302,0.00221
4566.10276,0.00183
4565.07250,0.00117
4564.04224,0.00054
4563.01198,0.00058
4561.98173,0.00101
4560.95147,0.00099
4559.92121,0.00087
4558.89095,0.00072
4557.86070,-0.00007
4556.83044,-0.00071
4555.80018,-0.00057
4554.76992,-0.00039
4553.73966,-0.00015
4552.70941,0.00065
4551.67915,0.00123
4550.64889,0.00127
4549.61863,0.00137
4548.58838,0.00140
4547.55812,0.00138
4546.52786,0.00115
4545.49760,0.00046
4544.46734,0.00025
4543.43709,0.00082
4542.40683,0.00113
4541.37657,0.00105
4540.34631,0.00092
4539.31605,0.00056
4538.28580,0.00032
4537.25554,0.00058
4536.22528,0.00084
4535.19502,0.00042
4534.16477,-0.00046
4533.13451,-0.00088
4532.10425,-0.00052
4531.07399,0.00029
4530.04373,0.00073
4529.01348,0.00021
4527.98322,-0.00043
4526.95296,-0.00011
4525.92270,0.00080
4524.89244,0.00144
4523.86219,0.00159
4522.83193,0.00117
4521.80167,0.00067
4520.77141,0.00051
4519.74116,0.00010
4518.71090,-0.00042
4517.68064,-0.00027
4516.65038,0.00014
4515.62012,0.00019
4514.58987,0.00037
4513.55961,0.00115
4512.52935,0.00205
4511.49909,0.00247
4510.46883,0.00223
4509.43858,0.00146
4508.40832,0.00087
4507.37806,0.00101
4506.34780,0.00128
4505.31755,0.00125
4504.28729,0.00082
4503.25703,-0.00026
4502.22677,-0.00096
4501.19651,-0.00061
4500.16626,-0.00007
4499.13600,0.00053
4498.10574,0.00156
4497.07548,0.00261
4496.04523,0.00266
4495.01497,0.00177
4493.98471,0.00102
4492.95445,0.00072
4491.92419,0.00099
4490.89394,0.00154
4489.86368,0.00135
4488.83342,0.00050
4487.80316,0.00023
4486.77290,0.00062
4485.74265,0.00088
4484.71239,0.00099
4483.68213,0.00100
4482.65187,0.00090
4481.62162,0.00101
4480.59136,0.00118
4479.56110,0.00131
4478.53084,0.00139
4477.50058,0.00086
4476.47033,0.00031
4475.44007,0.00053
4474.40981,0.00079
4473.37955,0.00058
4472.34929,0.00052
4471.31904,0.00066
4470.28878,0.00049
4469.25852,0.00037
4468.22826,0.00049
4467.19801,0.00041
4466.16775,0.00036
4465.13749,0.00097
4464.10723,0.00132
4463.07697,0.00036
4462.04672,-0.00038
4461.01646,0.00021
4459.98620,0.00096
4458.95594,0.00094
4457.92568,0.00068
4456.89543,0.00084
4455.86517,0.00099
4454.83491,0.00079
4453.80465,0.00045
4452.77440,0.00009
4451.74414,-0.00010
4450.71388,0.00013
4449.68362,0.00061
4448.65336,0.00079
4447.62311,0.00069
4446.59285,0.00085
4445.56259,0.00119
4444.53233,0.00131
4443.50208,0.00116
4442.47182,0.00116
4441.44156,0.00153
4440.41130,0.00189
4439.38104,0.00188
4438.35079,0.00162
4437.32053,0.00152
4436.29027,0.00145
4435.26001,0.00111
4434.22975,0.00094
4433.19950,0.00113
4432.16924,0.00121
4431.13898,0.00082
4430.10872,0.00025
4429.07847,0.00024
4428.04821,0.00060
4427.01795,0.00067
4425.98769,0.00070
4424.95743,0.00080
4423.92718,0.00058
4422.89692,0.00024
4421.86666,0.00018
4420.83640,0.00040
4419.80614,0.00101
4418.77589,0.00170
4417.74563,0.00168
4416.71537,0.00084
4415.68511,-0.00019
4414.65486,-0.00047
4413.62460,0.00033
4412.59434,0.00108
4411.56408,0.00063
4410.53382,-0.00030
4409.50357,-0.00014
4408.47331,0.00106
4407.44305,0.00184
4406.41279,0.00159
4405.38253,0.00109
4404.35228,0.00080
4403.32202,0.00085
4402.29176,0.00100
4401.26150,0.00069
4400.23125,0.00068
4399.20099,0.00137
4398.17073,0.00146
4397.14047,0.00100
4396.11021,0.00102
4395.07996,0.00111
4394.04970,0.00124
4393.01944,0.00148
4391.98918,0.00139
4390.95893,0.00149
4389.92867,0.00188
4388.89841,0.00210
4387.86815,0.00225
4386.83789,0.00219
4385.80764,0.00190
4384.77738,0.00172
4383.74712,0.00173
4382.71686,0.00199
4381.68660,0.00199
4380.65635,0.00178
4379.62609,0.00217
4378.59583,0.00285
4377.56557,0.00300
4376.53532,0.00267
4375.50506,0.00211
4374.47480,0.00135
4373.44454,0.00125
4372.41428,0.00222
4371.38403,0.00317
4370.35377,0.00348
4369.32351,0.00334
4368.29325,0.00314
4367.26299,0.00309
4366.23274,0.00302
4365.20248,0.00267
4364.17222,0.00204
4363.14196,0.00170
4362.11171,0.00219
4361.08145,0.00325
4360.05119,0.00391
4359.02093,0.00356
4357.99067,0.00285
4356.96042,0.00222
4355.93016,0.00157
4354.89990,0.00161
4353.86964,0.00242
4352.83939,0.00316
4351.80913,0.00344
4350.77887,0.00314
4349.74861,0.00260
4348.71835,0.00269
4347.68810,0.00327
4346.65784,0.00352
4345.62758,0.00354
4344.59732,0.00346
4343.56706,0.00289
4342.53681,0.00238
4341.50655,0.00292
4340.47629,0.00361
4339.44603,0.00340
4338.41578,0.00298
4337.38552,0.00281
4336.35526,0.00256
4335.32500,0.00214
4334.29474,0.00195
4333.26449,0.00214
4332.23423,0.00255
4331.20397,0.00296
4330.17371,0.00306
4329.14345,0.00304
4328.11320,0.00338
4327.08294,0.00380
4326.05268,0.00362
4325.02242,0.00323
4323.99217,0.00289
4322.96191,0.00232
4321.93165,0.00217
4320.90139,0.00254
4319.87113,0.00265
4318.84088,0.00255
4317.81062,0.00277
4316.78036,0.00312
4315.75010,0.00304
4314.71984,0.00256
4313.68959,0.00236
4312.65933,0.00249
4311.62907,0.00247
4310.59881,0.00259
4309.56856,0.00281
4308.53830,0.00252
4307.50804,0.00215
4306.47778,0.00216
4305.44752,0.00232
4304.41727,0.00237
4303.38701,0.00201
4302.35675,0.00167
4301.32649,0.00181
4300.29624,0.00194
4299.26598,0.00210
4298.23572,0.00249
4297.20546,0.00265
4296.17520,0.00237
4295.14495,0.00193
4294.11469,0.00173
4293.08443,0.00193
4292.05417,0.00222
4291.02391,0.00229
4289.99366,0.00217
4288.96340,0.00166
4287.93314,0.00126
4286.90288,0.00150
4285.87263,0.00183
4284.84237,0.00186
4283.81211,0.00153
4282.78185,0.00108
4281.75159,0.00122
4280.72134,0.00188
4279.69108,0.00228
4278.66082,0.00232
4277.63056,0.00220
4276.60030,0.00200
4275.57005,0.00198
4274.53979,0.00206
4273.50953,0.00188
4272.47927,0.00169
4271.44902,0.00213
4270.41876,0.00277
4269.38850,0.00271
4268.35824,0.00221
4267.32798,0.00208
4266.29773,0.00229
4265.26747,0.00222
4264.23721,0.00199
4263.20695,0.00173
4262.17669,0.00146
4261.14644,0.00162
4260.11618,0.00197
4259.08592,0.00168
4258.05566,0.00101
4257.02541,0.00067
4255.99515,0.00091
4254.96489,0.00174
4253.93463,0.00250
4252.90437,0.00246
4251.87412,0.00206
4250.84386,0.00187
4249.81360,0.00133
4248.78334,0.00070
4247.75309,0.00091
4246.72283,0.00148
4245.69257,0.00190
4244.66231,0.00227
4243.63205,0.00237
4242.60180,0.00227
4241.57154,0.00227
4240.54128,0.00210
4239.51102,0.00163
4238.48076,0.00145
4237.45051,0.00180
4236.42025,0.00208
4235.38999,0.00183
4234.35973,0.00147
4233.32948,0.00140
4232.29922,0.00153
4231.26896,0.00213
4230.23870,0.00278
4229.20844,0.00244
4228.17819,0.00168
4227.14793,0.00152
4226.11767,0.00166
4225.08741,0.00176
4224.05715,0.00204
4223.02690,0.00237
4221.99664,0.00243
4220.96638,0.00238
4219.93612,0.00238
4218.90587,0.00207
4217.87561,0.00175
4216.84535,0.00200
4215.81509,0.00214
4214.78483,0.00166
4213.75458,0.00144
4212.72432,0.00209
4211.69406,0.00287
4210.66380,0.00285
4209.63354,0.00218
4208.60329,0.00174
4207.57303,0.00190
4206.54277,0.00208
4205.51251,0.00203
4204.48226,0.00200
4203.45200,0.00206
4202.42174,0.00188
4201.39148,0.00138
4200.36122,0.00126
4199.33097,0.00155
4198.30071,0.00166
4197.27045,0.00182
4196.24019,0.00224
4195.20994,0.00238
4194.17968,0.00216
4193.14942,0.00194
4192.11916,0.00199
4191.08890,0.00232
4190.05865,0.00245
4189.02839,0.00220
4187.99813,0.00188
4186.96787,0.00189
4185.93761,0.00216
4184.90736,0.00231
4183.87710,0.00231
4182.84684,0.00233
4181.81658,0.00218
4180.78633,0.00177
4179.75607,0.00147
4178.72581,0.00145
4177.69555,0.00154
4176.66529,0.00136
4175.63504,0.00137
4174.60478,0.00211
4173.57452,0.00266
4172.54426,0.00215
4171.51400,0.00123
4170.48375,0.00101
4169.45349,0.00145
4168.42323,0.00204
4167.39297,0.00267
4166.36272,0.00306
4165.33246,0.00307
4164.30220,0.00291
4163.27194,0.00269
4162.24168,0.00257
4161.21143,0.00245
4160.18117,0.00232
4159.15091,0.00214
4158.12065,0.00164
4157.09039,0.00107
4156.06014,0.00102
4155.02988,0.00158
4153.99962,0.00232
4152.96936,0.00288
4151.93911,0.00294
4150.90885,0.00270
4149.87859,0.00248
4148.84833,0.00227
4147.81807,0.00225
4146.78782,0.00235
4145.75756,0.00225
4144.72730,0.00209
4143.69704,0.00215
4142.66679,0.00231
4141.63653,0.00230
4140.60627,0.00234
4139.57601,0.00283
4138.54575,0.00340
4137.51550,0.00323
4136.48524,0.00269
4135.45498,0.00256
4134.42472,0.00267
4133.39446,0.00243
4132.36421,0.00188
4131.33395,0.00151
4130.30369,0.00150
4129.27343,0.00177
4128.24318,0.00210
4127.21292,0.00226
4126.18266,0.00211
4125.15240,0.00161
4124.12214,0.00116
4123.09189,0.00132
4122.06163,0.00159
4121.03137,0.00167
4120.00111,0.00197
4118.97085,0.00233
4117.94060,0.00260
4116.91034,0.00256
4115.88008,0.00197
4114.84982,0.00135
4113.81957,0.00139
4112.78931,0.00186
4111.75905,0.00199
4110.72879,0.00192
4109.69853,0.00183
4108.66828,0.00166
4107.63802,0.00174
4106.60776,0.00177
4105.57750,0.00155
4104.54724,0.00156
4103.51699,0.00193
4102.48673,0.00252
4101.45647,0.00299
4100.42621,0.00277
4099.39596,0.00202
4098.36570,0.00159
4097.33544,0.00173
4096.30518,0.00211
4095.27492,0.00270
4094.24467,0.00302
4093.21441,0.00279
4092.18415,0.00289
4091.15389,0.00334
4090.12364,0.00334
4089.09338,0.00284
4088.06312,0.00209
4087.03286,0.00164
4086.00260,0.00186
4084.97235,0.00221
4083.94209,0.00229
4082.91183,0.00220
4081.88157,0.00222
4080.85131,0.00239
4079.82106,0.00245
4078.79080,0.00215
4077.76054,0.00182
4076.73028,0.00198
4075.70003,0.00240
4074.66977,0.00239
4073.63951,0.00168
4072.60925,0.00100
4071.57899,0.00121
4070.54874,0.00195
4069.51848,0.00257
4068.48822,0.00285
4067.45796,0.00249
4066.42770,0.00197
4065.39745,0.00199
4064.36719,0.00210
4063.33693,0.00187
4062.30667,0.00194
4061.27642,0.00235
4060.24616,0.00250
4059.21590,0.00259
4058.18564,0.00275
4057.15538,0.00286
4056.12513,0.00287
4055.09487,0.00265
4054.06461,0.00266
4053.03435,0.00296
4052.00409,0.00310
4050.97384,0.00296
4049.94358,0.00272
4048.91332,0.00287
4047.88306,0.00330
4046.85281,0.00362
4045.82255,0.00363
4044.79229,0.00326
4043.76203,0.00304
4042.73177,0.00325
4041.70152,0.00347
4040.67126,0.00348
4039.64100,0.00353
4038.61074,0.00354
4037.58049,0.00311
4036.55023,0.00273
4035.51997,0.00300
4034.48971,0.00344
4033.45945,0.00350
4032.42920,0.00346
4031.39894,0.00369
4030.36868,0.00386
4029.33842,0.00341
4028.30816,0.00298
4027.27791,0.00345
4026.24765,0.00406
4025.21739,0.00387
4024.18713,0.00347
4023.15688,0.00344
4022.12662,0.00362
4021.09636,0.00363
4020.06610,0.00333
4019.03584,0.00320
4018.00559,0.00337
4016.97533,0.00360
4015.94507,0.00396
4014.91481,0.00412
4013.88455,0.00392
4012.85430,0.00399
4011.82404,0.00414
4010.79378,0.00396
4009.76352,0.00389
4008.73327,0.00410
4007.70301,0.00421
4006.67275,0.00407
4005.64249,0.00406
4004.61223,0.00426
4003.58198,0.00425
4002.55172,0.00417
4001.52146,0.00384
4000.49120,0.00282
3999.46095,0.00215
3998.43069,0.00261
3997.40043,0.00345
3996.37017,0.00383
3995.33991,0.00366
3994.30966,0.00345
3993.27940,0.00329
3992.24914,0.00306
3991.21888,0.00304
3990.18862,0.00336
3989.15837,0.00375
3988.12811,0.00377
3987.09785,0.00333
3986.06759,0.00279
3985.03734,0.00288
3984.00708,0.00350
3982.97682,0.00372
3981.94656,0.00340
3980.91630,0.00319
3979.88605,0.00302
3978.85579,0.00261
3977.82553,0.00237
3976.79527,0.00253
3975.76501,0.00279
3974.73476,0.00288
3973.70450,0.00283
3972.67424,0.00290
3971.64398,0.00309
3970.61373,0.00306
3969.58347,0.00281
3968.55321,0.00252
3967.52295,0.00230
3966.49269,0.00255
3965.46244,0.00313
3964.43218,0.00328
3963.40192,0.00312
3962.37166,0.00314
3961.34140,0.00328
3960.31115,0.00304
3959.28089,0.00267
3958.25063,0.00289
3957.22037,0.00333
3956.19012,0.00338
3955.15986,0.00323
3954.12960,0.00297
3953.09934,0.00286
3952.06908,0.00313
3951.03883,0.00322
3950.00857,0.00316
3948.97831,0.00333
3947.94805,0.00339
3946.91780,0.00308
3945.88754,0.00280
3944.85728,0.00278
3943.82702,0.00287
3942.79676,0.00283
3941.76651,0.00252
3940.73625,0.00222
3939.70599,0.00192
3938.67573,0.00156
3937.64547,0.00139
3936.61522,0.00153
3935.58496,0.00178
3934.55470,0.00210
3933.52444,0.00262
3932.49419,0.00291
3931.46393,0.00297
3930.43367,0.00307
3929.40341,0.00278
3928.37315,0.00228
3927.34290,0.00225
3926.31264,0.00245
3925.28238,0.00256
3924.25212,0.00262
3923.22186,0.00255
3922.19161,0.00253
3921.16135,0.00264
3920.13109,0.00262
3919.10083,0.00240
3918.07058,0.00228
3917.04032,0.00232
3916.01006,0.00213
3914.97980,0.00198
3913.94954,0.00218
3912.91929,0.00226
3911.88903,0.00212
3910.85877,0.00191
3909.82851,0.00165
3908.79825,0.00171
3907.76800,0.00198
3906.73774,0.00203
3905.70748,0.00217
3904.67722,0.00241
3903.64697,0.00232
3902.61671,0.00210
3901.58645,0.00203
3900.55619,0.00219
3899.52593,0.00228
3898.49568,0.00197
3897.46542,0.00142
3896.43516,0.00108
3895.40490,0.00138
3894.37465,0.00186
3893.34439,0.00202
3892.31413,0.00193
3891.28387,0.00184
3890.25361,0.00195
3889.22336,0.00199
3888.19310,0.00205
3887.16284,0.00211
3886.13258,0.00197
3885.10232,0.00169
3884.07207,0.00124
3883.04181,0.00092
3882.01155,0.00116
3880.98129,0.00166
3879.95104,0.00173
3878.92078,0.00144
3877.89052,0.00132
3876.86026,0.00116
3875.83000,0.00080
3874.79975,0.00092
3873.76949,0.00157
3872.73923,0.00175
3871.70897,0.00143
3870.67871,0.00116
3869.64846,0.00126
3868.61820,0.00161
3867.58794,0.00195
3866.55768,0.00198
3865.52743,0.00149
3864.49717,0.00093
3863.46691,0.00073
3862.43665,0.00082
3861.40639,0.00100
3860.37614,0.00093
3859.34588,0.00078
3858.31562,0.00099
3857.28536,0.00139
3856.25510,0.00157
3855.22485,0.00154
3854.19459,0.00182
3853.16433,0.00255
3852.13407,0.00255
3851.10382,0.00210
3850.07356,0.00184
3849.04330,0.00188
3848.01304,0.00212
3846.98278,0.00225
3845.95253,0.00190
3844.92227,0.00111
3843.89201,0.00067
3842.86175,0.00086
3841.83150,0.00107
3840.80124,0.00135
3839.77098,0.00179
3838.74072,0.00196
3837.71046,0.00213
3836.68021,0.00234
3835.64995,0.00206
3834.61969,0.00161
3833.58943,0.00120
3832.55917,0.00109
3831.52892,0.00152
3830.49866,0.00185
3829.46840,0.00157
3828.43814,0.00113
3827.40789,0.00101
3826.37763,0.00102
3825.34737,0.00092
3824.31711,0.00100
3823.28685,0.00121
3822.25660,0.00104
3821.22634,0.00103
3820.19608,0.00167
3819.16582,0.00204
3818.13556,0.00206
3817.10531,0.00205
3816.07505,0.00188
3815.04479,0.00143
3814.01453,0.00120
3812.98428,0.00121
3811.95402,0.00116
3810.92376,0.00108
3809.89350,0.00108
3808.86324,0.00124
3807.83299,0.00145
3806.80273,0.00129
3805.77247,0.00119
3804.74221,0.00161
3803.71195,0.00211
3802.68170,0.00225
3801.65144,0.00191
3800.62118,0.00151
3799.59092,0.00151
3798.56067,0.00154
3797.53041,0.00161
3796.50015,0.00201
3795.46989,0.00205
3794.43963,0.00135
3793.40938,0.00072
3792.37912,0.00077
3791.34886,0.00104
3790.31860,0.00106
3789.28835,0.00094
3788.25809,0.00099
3787.22783,0.00127
3786.19757,0.00159
3785.16731,0.00177
3784.13706,0.00177
3783.10680,0.00175
3782.07654,0.00164
3781.04628,0.00135
3780.01602,0.00114
3778.98577,0.00121
3777.95551,0.00140
3776.92525,0.00162
3775.89499,0.00173
3774.86474,0.00170
3773.83448,0.00158
3772.80422,0.00142
3771.77396,0.00131
3770.74370,0.00129
3769.71345,0.00143
3768.68319,0.00174
3767.65293,0.00197
3766.62267,0.00192
3765.59241,0.00183
3764.56216,0.00185
3763.53190,0.00177
3762.50164,0.00164
3761.47138,0.00141
3760.44113,0.00139
3759.41087,0.00187
3758.38061,0.00207
3757.35035,0.00184
3756.32009,0.00180
3755.28984,0.00188
3754.25958,0.00156
3753.22932,0.00106
3752.19906,0.00142
3751.16880,0.00255
3750.13855,0.00286
3749.10829,0.00214
3748.07803,0.00149
3747.04777,0.00145
3746.01752,0.00165
3744.98726,0.00181
3743.95700,0.00162
3742.92674,0.00112
3741.89648,0.00068
3740.86623,0.00069
3739.83597,0.00121
3738.80571,0.00183
3737.77545,0.00238
3736.74520,0.00286
3735.71494,0.00307
3734.68468,0.00273
3733.65442,0.00241
3732.62416,0.00226
3731.59391,0.00189
3730.56365,0.00173
3729.53339,0.00211
3728.50313,0.00257
3727.47287,0.00260
3726.44262,0.00213
3725.41236,0.00152
3724.38210,0.00092
3723.35184,0.00067
3722.32159,0.00110
3721.29133,0.00148
3720.26107,0.00148
3719.23081,0.00158
3718.20055,0.00170
3717.17030,0.00147
3716.14004,0.00122
3715.10978,0.00133
3714.07952,0.00151
3713.04926,0.00162
3712.01901,0.00205
3710.98875,0.00262
3709.95849,0.00278
3708.92823,0.00261
3707.89798,0.00224
3706.86772,0.00182
3705.83746,0.00175
3704.80720,0.00198
3703.77694,0.00188
3702.74669,0.00138
3701.71643,0.00127
3700.68617,0.00152
3699.65591,0.00166
3698.62565,0.00168
3697.59540,0.00138
3696.56514,0.00109
3695.53488,0.00121
3694.50462,0.00153
3693.47437,0.00196
3692.44411,0.00239
3691.41385,0.00232
3690.38359,0.00206
3689.35333,0.00216
3688.32308,0.00204
3687.29282,0.00153
3686.26256,0.00128
3685.23230,0.00151
3684.20205,0.00206
3683.17179,0.00253
3682.14153,0.00266
3681.11127,0.00248
3680.08101,0.00204
3679.05076,0.00170
3678.02050,0.00177
3676.99024,0.00192
3675.95998,0.00212
3674.92972,0.00246
3673.89947,0.00249
3672.86921,0.00238
3671.83895,0.00235
3670.80869,0.00249
3669.77844,0.00283
3668.74818,0.00274
3667.71792,0.00210
3666.68766,0.00170
3665.65740,0.00188
3664.62715,0.00248
3663.59689,0.00292
3662.56663,0.00295
3661.53637,0.00276
3660.50611,0.00243
3659.47586,0.00226
3658.44560,0.00196
3657.41534,0.00131
3656.38508,0.00145
3655.35483,0.00261
3654.32457,0.00340
3653.29431,0.00347
3652.26405,0.00308
3651.23379,0.00273
3650.20354,0.00292
3649.17328,0.00320
3648.14302,0.00300
3647.11276,0.00283
3646.08250,0.00306
3645.05225,0.00308
3644.02199,0.00289
3642.99173,0.00287
3641.96147,0.00294
3640.93122,0.00296
3639.90096,0.00275
3638.87070,0.00255
3637.84044,0.00307
3636.81018,0.00407
3635.77993,0.00438
3634.74967,0.00383
3633.71941,0.00325
3632.68915,0.00320
3631.65890,0.00351
3630.62864,0.00371
3629.59838,0.00419
3628.56812,0.00525
3627.53786,0.00514
3626.50761,0.00428
3625.47735,0.00400
3624.44709,0.00415
3623.41683,0.00405
3622.38657,0.00368
3621.35632,0.00329
3620.32606,0.00336
3619.29580,0.00422
3618.26554,0.00487
3617.23529,0.00490
3616.20503,0.00500
3615.17477,0.00525
3614.14451,0.00548
3613.11425,0.00567
3612.08400,0.00585
3611.05374,0.00630
3610.02348,0.00691
3608.99322,0.00693
3607.96296,0.00642
3606.93271,0.00642
3605.90245,0.00690
3604.87219,0.00715
3603.84193,0.00729
3602.81168,0.00749
3601.78142,0.00758
3600.75116,0.00749
3599.72090,0.00726
3598.69064,0.00715
3597.66039,0.00735
3596.63013,0.00773
3595.59987,0.00801
3594.56961,0.00792
3593.53936,0.00782
3592.50910,0.00819
3591.47884,0.00829
3590.44858,0.00800
3589.41832,0.00838
3588.38807,0.00921
3587.35781,0.00935
3586.32755,0.00918
3585.29729,0.00930
3584.26703,0.00954
3583.23678,0.00967
3582.20652,0.00989
3581.17626,0.01018
3580.14600,0.01013
3579.11575,0.01018
3578.08549,0.01056
3577.05523,0.01065
3576.02497,0.01054
3574.99471,0.01071
3573.96446,0.01123
3572.93420,0.01162
3571.90394,0.01142
3570.87368,0.01100
3569.84342,0.01104
3568.81317,0.01151
3567.78291,0.01197
3566.75265,0.01224
3565.72239,0.01258
3564.69214,0.01294
3563.66188,0.01300
3562.63162,0.01301
3561.60136,0.01340
3560.57110,0.01384
3559.54085,0.01381
3558.51059,0.01366
3557.48033,0.01385
3556.45007,0.01441
3555.41981,0.01510
3554.38956,0.01560
3553.35930,0.01594
3552.32904,0.01628
3551.29878,0.01649
3550.26853,0.01664
3549.23827,0.01692
3548.20801,0.01699
3547.17775,0.01693
3546.14749,0.01728
3545.11724,0.01782
3544.08698,0.01820
3543.05672,0.01847
3542.02646,0.01874
3540.99621,0.01911
3539.96595,0.01960
3538.93569,0.02031
3537.90543,0.02090
3536.87517,0.02112
3535.84492,0.02143
3534.81466,0.02182
3533.78440,0.02203
3532.75414,0.02253
3531.72388,0.02348
3530.69363,0.02434
3529.66337,0.02474
3528.63311,0.02466
3527.60285,0.02459
3526.57260,0.02510
3525.54234,0.02580
3524.51208,0.02601
3523.48182,0.02593
3522.45156,0.02625
3521.42131,0.02711
3520.39105,0.02788
3519.36079,0.02819
3518.33053,0.02818
3517.30027,0.02809
3516.27002,0.02835
3515.23976,0.02906
3514.20950,0.02990
3513.17924,0.03088
3512.14899,0.03156
3511.11873,0.03168
3510.08847,0.03181
3509.05821,0.03240
3508.02795,0.03303
3506.99770,0.03328
3505.96744,0.03358
3504.93718,0.03412
3503.90692,0.03421
3502.87666,0.03381
3501.84641,0.03364
3500.81615,0.03387
3499.78589,0.03423
3498.75563,0.03442
3497.72538,0.03449
3496.69512,0.03485
3495.66486,0.03546
3494.63460,0.03591
3493.60434,0.03609
3492.57409,0.03611
3491.54383,0.03633
3490.51357,0.03694
3489.48331,0.03738
3488.45306,0.03741
3487.42280,0.03760
3486.39254,0.03807
3485.36228,0.03851
3484.33202,0.03899
3483.30177,0.03932
3482.27151,0.03897
3481.24125,0.03825
3480.21099,0.03806
3479.18073,0.03859
3478.15048,0.03929
3477.12022,0.03960
3476.08996,0.03960
3475.05970,0.03956
3474.02945,0.03967
3472.99919,0.03988
3471.96893,0.03990
3470.93867,0.03980
3469.90841,0.03974
3468.87816,0.03962
3467.84790,0.03986
3466.81764,0.04067
3465.78738,0.04133
3464.75712,0.04126
3463.72687,0.04067
3462.69661,0.04021
3461.66635,0.03996
3460.63609,0.03974
3459.60584,0.03981
3458.57558,0.04007
3457.54532,0.04025
3456.51506,0.04017
3455.48480,0.03995
3454.45455,0.03995
3453.42429,0.03997
3452.39403,0.03983
3451.36377,0.03989
3450.33351,0.04018
3449.30326,0.04017
3448.27300,0.03969
3447.24274,0.03932
3446.21248,0.03951
3445.18223,0.03966
3444.15197,0.03919
3443.12171,0.03862
3442.09145,0.03843
3441.06119,0.03839
3440.03094,0.03866
3439.00068,0.03920
3437.97042,0.03935
3436.94016,0.03908
3435.90991,0.03878
3434.87965,0.03847
3433.84939,0.03801
3432.81913,0.03780
3431.78887,0.03779
3430.75862,0.03727
3429.72836,0.03650
3428.69810,0.03632
3427.66784,0.03679
3426.63758,0.03727
3425.60733,0.03730
3424.57707,0.03689
3423.54681,0.03630
3422.51655,0.03610
3421.48630,0.03604
3420.45604,0.03550
3419.42578,0.03516
3418.39552,0.03535
3417.36526,0.03559
3416.33501,0.03562
3415.30475,0.03528
3414.27449,0.03488
3413.24423,0.03476
3412.21397,0.03466
3411.18372,0.03450
3410.15346,0.03416
3409.12320,0.03362
3408.09294,0.03351
3407.06269,0.03382
3406.03243,0.03378
3405.00217,0.03322
3403.97191,0.03264
3402.94165,0.03244
3401.91140,0.03247
3400.88114,0.03206
3399.85088,0.03127
3398.82062,0.03115
3397.79036,0.03159
3396.76011,0.03163
3395.72985,0.03117
3394.69959,0.03062
3393.66933,0.03033
3392.63908,0.03039
3391.60882,0.03041
3390.57856,0.03012
3389.54830,0.02961
3388.51804,0.02935
3387.48779,0.02958
3386.45753,0.02965
3385.42727,0.02917
3384.39701,0.02867
3383.36676,0.02884
3382.33650,0.02925
3381.30624,0.02902
3380.27598,0.02826
3379.24572,0.02776
3378.21547,0.02764
3377.18521,0.02723
3376.15495,0.02661
3375.12469,0.02621
3374.09443,0.02592
3373.06418,0.02573
3372.03392,0.02559
3371.00366,0.02545
3369.97340,0.02542
3368.94315,0.02543
3367.91289,0.02509
3366.88263,0.02459
3365.85237,0.02448
3364.82211,0.02447
3363.79186,0.02404
3362.76160,0.02350
3361.73134,0.02320
3360.70108,0.02307
3359.67082,0.02297
3358.64057,0.02292
3357.61031,0.02285
3356.58005,0.02259
3355.54979,0.02231
3354.51954,0.02235
3353.48928,0.02250
3352.45902,0.02246
3351.42876,0.02235
3350.39850,0.02234
3349.36825,0.02233
3348.33799,0.02207
3347.30773,0.02173
3346.27747,0.02166
3345.24721,0.02149
3344.21696,0.02109
3343.18670,0.02086
3342.15644,0.02085
3341.12618,0.02080
3340.09593,0.02047
3339.06567,0.01998
3338.03541,0.01976
3337.00515,0.01978
3335.97489,0.01954
3334.94464,0.01913
3333.91438,0.01882
3332.88412,0.01849
3331.85386,0.01838
3330.82361,0.01860
3329.79335,0.01869
3328.76309,0.01843
3327.73283,0.01810
3326.70257,0.01794
3325.67232,0.01788
3324.64206,0.01762
3323.61180,0.01721
3322.58154,0.01709
3321.55128,0.01706
3320.52103,0.01688
3319.49077,0.01706
3318.46051,0.01758
3317.43025,0.01749
3316.40000,0.01690
3315.36974,0.01669
3314.33948,0.01657
3313.30922,0.01608
3312.27896,0.01539
3311.24871,0.01487
3310.21845,0.01486
3309.18819,0.01526
3308.15793,0.01533
3307.12767,0.01483
3306.09742,0.01460
3305.06716,0.01494
3304.03690,0.01505
3303.00664,0.01467
3301.97639,0.01460
3300.94613,0.01475
3299.91587,0.01448
3298.88561,0.01409
3297.85535,0.01415
3296.82510,0.01434
3295.79484,0.01410
3294.76458,0.01361
3293.73432,0.01356
3292.70406,0.01393
3291.67381,0.01425
3290.64355,0.01431
3289.61329,0.01389
3288.58303,0.01310
3287.55278,0.01263
3286.52252,0.01240
3285.49226,0.01198
3284.46200,0.01166
3283.43174,0.01189
3282.40149,0.01240
3281.37123,0.01268
3280.34097,0.01246
3279.31071,0.01189
3278.28046,0.01149
3277.25020,0.01155
3276.21994,0.01210
3275.18968,0.01254
3274.15942,0.01249
3273.12917,0.01231
3272.09891,0.01202
3271.06865,0.01191
3270.03839,0.01199
3269.00813,0.01178
3267.97788,0.01161
3266.94762,0.01181
3265.91736,0.01189
3264.88710,0.01164
3263.85685,0.01134
3262.82659,0.01075
3261.79633,0.00987
3260.76607,0.00968
3259.73581,0.00996
3258.70556,0.00987
3257.67530,0.00986
3256.64504,0.01010
3255.61478,0.01003
3254.58452,0.00971
3253.55427,0.00956
3252.52401,0.00959
3251.49375,0.00954
3250.46349,0.00949
3249.43324,0.00955
3248.40298,0.00950
3247.37272,0.00934
3246.34246,0.00931
3245.31220,0.00949
3244.28195,0.00958
3243.25169,0.00931
3242.22143,0.00905
3241.19117,0.00914
3240.16092,0.00914
3239.13066,0.00886
3238.10040,0.00873
3237.07014,0.00889
3236.03988,0.00889
3235.00963,0.00855
3233.97937,0.00815
3232.94911,0.00787
3231.91885,0.00775
3230.88859,0.00763
3229.85834,0.00752
3228.82808,0.00741
3227.79782,0.00732
3226.76756,0.00737
3225.73731,0.00739
3224.70705,0.00757
3223.67679,0.00777
3222.64653,0.00770
3221.61627,0.00747
3220.58602,0.00718
3219.55576,0.00709
3218.52550,0.00735
3217.49524,0.00775
3216.46498,0.00806
3215.43473,0.00812
3214.40447,0.00774
3213.37421,0.00719
3212.34395,0.00697
3211.31370,0.00716
3210.28344,0.00733
3209.25318,0.00735
3208.22292,0.00725
3207.19266,0.00709
3206.16241,0.00699
3205.13215,0.00662
3204.10189,0.00597
3203.07163,0.00572
3202.04137,0.00597
3201.01112,0.00611
3199.98086,0.00617
3198.95060,0.00653
3197.92034,0.00677
3196.89009,0.00653
3195.85983,0.00621
3194.82957,0.00625
3193.79931,0.00649
3192.76905,0.00642
3191.73880,0.00613
3190.70854,0.00599
3189.67828,0.00593
3188.64802,0.00583
3187.61777,0.00581
3186.58751,0.00591
3185.55725,0.00588
3184.52699,0.00575
3183.49673,0.00574
3182.46648,0.00561
3181.43622,0.00537
3180.40596,0.00540
3179.37570,0.00556
3178.34544,0.00551
3177.31519,0.00561
3176.28493,0.00587
3175.25467,0.00573
3174.22441,0.00541
3173.19416,0.00516
3172.16390,0.00479
3171.13364,0.00479
3170.10338,0.00558
3169.07312,0.00592
3168.04287,0.00538
3167.01261,0.00503
3165.98235,0.00502
3164.95209,0.00510
3163.92183,0.00534
3162.89158,0.00556
3161.86132,0.00552
3160.83106,0.00526
3159.80080,0.00479
3158.77055,0.00424
3157.74029,0.00410
3156.71003,0.00431
3155.67977,0.00436
3154.64951,0.00422
3153.61926,0.00418
3152.58900,0.00438
3151.55874,0.00460
3150.52848,0.00459
3149.49822,0.00440
3148.46797,0.00434
3147.43771,0.00454
3146.40745,0.00464
3145.37719,0.00465
3144.34694,0.00474
3143.31668,0.00463
3142.28642,0.00454
3141.25616,0.00464
3140.22590,0.00443
3139.19565,0.00401
3138.16539,0.00400
3137.13513,0.00440
3136.10487,0.00469
3135.07462,0.00460
3134.04436,0.00425
3133.01410,0.00406
3131.98384,0.00414
3130.95358,0.00427
3129.92333,0.00421
3128.89307,0.00413
3127.86281,0.00434
3126.83255,0.00445
3125.80229,0.00405
3124.77204,0.00361
3123.74178,0.00378
3122.71152,0.00430
3121.68126,0.00443
3120.65101,0.00408
3119.62075,0.00364
3118.59049,0.00356
3117.56023,0.00371
3116.52997,0.00355
3115.49972,0.00330
3114.46946,0.00357
3113.43920,0.00399
3112.40894,0.00404
3111.37868,0.00384
3110.34843,0.00379
3109.31817,0.00402
3108.28791,0.00421
3107.25765,0.00427
3106.22740,0.00437
3105.19714,0.00443
3104.16688,0.00422
3103.13662,0.00387
3102.10636,0.00363
3101.07611,0.00363
3100.04585,0.00376
3099.01559,0.00364
3097.98533,0.00345
3096.95507,0.00345
3095.92482,0.00352
3094.89456,0.00350
3093.86430,0.00358
3092.83404,0.00405
3091.80379,0.00452
3090.77353,0.00434
3089.74327,0.00386
3088.71301,0.00398
3087.68275,0.00444
3086.65250,0.00427
3085.62224,0.00356
3084.59198,0.00328
3083.56172,0.00353
3082.53147,0.00373
3081.50121,0.00371
3080.47095,0.00367
3079.44069,0.00368
3078.41043,0.00376
3077.38018,0.00389
3076.34992,0.00392
3075.31966,0.00372
3074.28940,0.00334
3073.25914,0.00326
3072.22889,0.00366
3071.19863,0.00401
3070.16837,0.00400
3069.13811,0.00386
3068.10786,0.00394
3067.07760,0.00413
3066.04734,0.00413
3065.01708,0.00402
3063.98682,0.00407
3062.95657,0.00416
3061.92631,0.00398
3060.89605,0.00383
3059.86579,0.00415
3058.83553,0.00457
3057.80528,0.00459
3056.77502,0.00446
3055.74476,0.00442
3054.71450,0.00442
3053.68425,0.00449
3052.65399,0.00463
3051.62373,0.00478
3050.59347,0.00493
3049.56321,0.00506
3048.53296,0.00500
3047.50270,0.00473
3046.47244,0.00441
3045.44218,0.00421
3044.41192,0.00419
3043.38167,0.00437
3042.35141,0.00465
3041.32115,0.00478
3040.29089,0.00477
3039.26064,0.00483
3038.23038,0.00480
3037.20012,0.00478
3036.16986,0.00491
3035.13960,0.00492
3034.10935,0.00472
3033.07909,0.00445
3032.04883,0.00431
3031.01857,0.00443
3029.98832,0.00485
3028.95806,0.00525
3027.92780,0.00508
3026.89754,0.00462
3025.86728,0.00469
3024.83703,0.00519
3023.80677,0.00556
3022.77651,0.00586
3021.74625,0.00600
3020.71599,0.00585
3019.68574,0.00573
3018.65548,0.00582
3017.62522,0.00601
3016.59496,0.00608
3015.56471,0.00600
3014.53445,0.00597
3013.50419,0.00594
3012.47393,0.00595
3011.44367,0.00606
3010.41342,0.00598
3009.38316,0.00588
3008.35290,0.00626
3007.32264,0.00698
3006.29238,0.00724
3005.26213,0.00706
3004.23187,0.00713
3003.20161,0.00735
3002.17135,0.00770
3001.14110,0.00825
3000.11084,0.00836
2999.08058,0.00824
2998.05032,0.00859
2997.02006,0.00887
2995.98981,0.00868
2994.95955,0.00869
2993.92929,0.00928
2992.89903,0.00997
2991.86877,0.01046
2990.83852,0.01085
2989.80826,0.01135
2988.77800,0.01196
2987.74774,0.01253
2986.71749,0.01307
2985.68723,0.01352
2984.65697,0.01417
2983.62671,0.01525
2982.59645,0.01657
2981.56620,0.01776
2980.53594,0.01865
2979.50568,0.01944
2978.47542,0.02029
2977.44517,0.02124
2976.41491,0.02275
2975.38465,0.02477
2974.35439,0.02630
2973.32413,0.02733
2972.29388,0.02876
2971.26362,0.03050
2970.23336,0.03231
2969.20310,0.03434
2968.17284,0.03649
2967.14259,0.03864
2966.11233,0.04048
2965.08207,0.04203
2964.05181,0.04382
2963.02156,0.04583
2961.99130,0.04817
2960.96104,0.05099
2959.93078,0.05358
2958.90052,0.05571
2957.87027,0.05794
2956.84001,0.06012
2955.80975,0.06218
2954.77949,0.06454
2953.74923,0.06719
2952.71898,0.06957
2951.68872,0.07152
2950.65846,0.07340
2949.62820,0.07546
2948.59795,0.07764
2947.56769,0.07942
2946.53743,0.08069
2945.50717,0.08219
2944.47691,0.08386
2943.44666,0.08527
2942.41640,0.08659
2941.38614,0.08796
2940.35588,0.08937
2939.32562,0.09056
2938.29537,0.09133
2937.26511,0.09195
2936.23485,0.09272
2935.20459,0.09368
2934.17434,0.09461
2933.14408,0.09531
2932.11382,0.09596
2931.08356,0.09667
2930.05330,0.09751
2929.02305,0.09854
2927.99279,0.09953
2926.96253,0.10055
2925.93227,0.10194
2924.90202,0.10349
2923.87176,0.10459
2922.84150,0.10547
2921.81124,0.10689
2920.78098,0.10858
2919.75073,0.10993
2918.72047,0.11116
2917.69021,0.11247
2916.65995,0.11374
2915.62969,0.11528
2914.59944,0.11730
2913.56918,0.11944
2912.53892,0.12114
2911.50866,0.12240
2910.47841,0.12373
2909.44815,0.12516
2908.41789,0.12663
2907.38763,0.12815
2906.35737,0.12950
2905.32712,0.13070
2904.29686,0.13180
2903.26660,0.13283
2902.23634,0.13407
2901.20608,0.13545
2900.17583,0.13655
2899.14557,0.13747
2898.11531,0.13876
2897.08505,0.14031
2896.05480,0.14181
2895.02454,0.14346
2893.99428,0.14517
2892.96402,0.14653
2891.93376,0.14786
2890.90351,0.14966
2889.87325,0.15186
2888.84299,0.15411
2887.81273,0.15612
2886.78247,0.15813
2885.75222,0.16061
2884.72196,0.16338
2883.69170,0.16602
2882.66144,0.16839
2881.63119,0.17070
2880.60093,0.17324
2879.57067,0.17592
2878.54041,0.17874
2877.51015,0.18176
2876.47990,0.18480
2875.44964,0.18764
2874.41938,0.19030
2873.38912,0.19325
2872.35887,0.19667
2871.32861,0.19985
2870.29835,0.20216
2869.26809,0.20391
2868.23783,0.20558
2867.20758,0.20708
2866.17732,0.20832
2865.14706,0.20946
2864.11680,0.21025
2863.08654,0.21007
2862.05629,0.20878
2861.02603,0.20675
2859.99577,0.20437
2858.96551,0.20176
2857.93526,0.19873
2856.90500,0.19517
2855.87474,0.19129
2854.84448,0.18712
2853.81422,0.18266
2852.78397,0.17801
2851.75371,0.17304
2850.72345,0.16764
2849.69319,0.16195
2848.66293,0.15650
2847.63268,0.15137
2846.60242,0.14581
2845.57216,0.13984
2844.54190,0.13407
2843.51165,0.12877
2842.48139,0.12401
2841.45113,0.11946
2840.42087,0.11487
2839.39061,0.11049
2838.36036,0.10647
2837.33010,0.10269
2836.29984,0.09885
2835.26958,0.09493
2834.23933,0.09116
2833.20907,0.08782
2832.17881,0.08528
2831.14855,0.08319
2830.11829,0.08076
2829.08804,0.07813
2828.05778,0.07594
2827.02752,0.07428
2825.99726,0.07280
2824.96700,0.07122
2823.93675,0.06954
2822.90649,0.06795
2821.87623,0.06648
2820.84597,0.06497
2819.81572,0.06348
2818.78546,0.06207
2817.75520,0.06085
2816.72494,0.05975
2815.69468,0.05875
2814.66443,0.05774
2813.63417,0.05630
2812.60391,0.05479
2811.57365,0.05367
2810.54339,0.05276
2809.51314,0.05182
2808.48288,0.05069
2807.45262,0.04936
2806.42236,0.04816
2805.39211,0.04718
2804.36185,0.04628
2803.33159,0.04549
2802.30133,0.04465
2801.27107,0.04368
2800.24082,0.04269
2799.21056,0.04163
2798.18030,0.04058
2797.15004,0.03982
2796.11978,0.03921
2795.08953,0.03841
2794.05927,0.03748
2793.02901,0.03669
2791.99875,0.03603
2790.96850,0.03522
2789.93824,0.03453
2788.90798,0.03421
2787.87772,0.03382
2786.84746,0.03311
2785.81721,0.03225
2784.78695,0.03151
2783.75669,0.03109
2782.72643,0.03093
2781.69618,0.03063
2780.66592,0.03012
2779.63566,0.02967
2778.60540,0.02935
2777.57514,0.02896
2776.54489,0.02832
2775.51463,0.02762
2774.48437,0.02703
2773.45411,0.02659
2772.42385,0.02634
2771.39360,0.02601
2770.36334,0.02544
2769.33308,0.02474
2768.30282,0.02403
2767.27257,0.02347
2766.24231,0.02315
2765.21205,0.02297
2764.18179,0.02279
2763.15153,0.02247
2762.12128,0.02211
2761.09102,0.02199
2760.06076,0.02195
2759.03050,0.02181
2758.00024,0.02171
2756.96999,0.02157
2755.93973,0.02121
2754.90947,0.02087
2753.87921,0.02090
2752.84896,0.02109
2751.81870,0.02096
2750.78844,0.02071
2749.75818,0.02069
2748.72792,0.02095
2747.69767,0.02118
2746.66741,0.02121
2745.63715,0.02117
2744.60689,0.02097
2743.57663,0.02071
2742.54638,0.02080
2741.51612,0.02106
2740.48586,0.02109
2739.45560,0.02106
2738.42535,0.02088
2737.39509,0.02038
2736.36483,0.01995
2735.33457,0.01988
2734.30431,0.02008
2733.27406,0.02038
2732.24380,0.02035
2731.21354,0.01988
2730.18328,0.01958
2729.15303,0.01963
2728.12277,0.01963
2727.09251,0.01950
2726.06225,0.01944
2725.03199,0.01942
2724.00174,0.01913
2722.97148,0.01866
2721.94122,0.01856
2720.91096,0.01856
2719.88070,0.01826
2718.85045,0.01805
2717.82019,0.01786
2716.78993,0.01733
2715.75967,0.01691
2714.72942,0.01668
2713.69916,0.01624
2712.66890,0.01573
2711.63864,0.01549
2710.60838,0.01544
2709.57813,0.01527
2708.54787,0.01504
2707.51761,0.01495
2706.48735,0.01495
2705.45709,0.01498
2704.42684,0.01495
2703.39658,0.01490
2702.36632,0.01475
2701.33606,0.01452
2700.30581,0.01430
2699.27555,0.01407
2698.24529,0.01386
2697.21503,0.01378
2696.18477,0.01379
2695.15452,0.01359
2694.12426,0.01312
2693.09400,0.01280
2692.06374,0.01246
2691.03348,0.01194
2690.00323,0.01156
2688.97297,0.01133
2687.94271,0.01099
2686.91245,0.01049
2685.88220,0.01007
2684.85194,0.00991
2683.82168,0.00976
2682.79142,0.00958
2681.76116,0.00949
2680.73091,0.00923
2679.70065,0.00865
2678.67039,0.00818
2677.64013,0.00802
2676.60988,0.00784
2675.57962,0.00759
2674.54936,0.00747
2673.51910,0.00754
2672.48884,0.00756
2671.45859,0.00735
2670.42833,0.00715
2669.39807,0.00705
2668.36781,0.00679
2667.33755,0.00645
2666.30730,0.00640
2665.27704,0.00662
2664.24678,0.00680
2663.21652,0.00668
2662.18627,0.00635
2661.15601,0.00613
2660.12575,0.00593
2659.09549,0.00592
2658.06523,0.00630
2657.03498,0.00654
2656.00472,0.00624
2654.97446,0.00566
2653.94420,0.00516
2652.91394,0.00502
2651.88369,0.00517
2650.85343,0.00529
2649.82317,0.00543
2648.79291,0.00554
2647.76266,0.00538
2646.73240,0.00511
2645.70214,0.00517
2644.67188,0.00547
2643.64162,0.00553
2642.61137,0.00536
2641.58111,0.00535
2640.55085,0.00549
2639.52059,0.00539
2638.49033,0.00509
2637.46008,0.00494
2636.42982,0.00502
2635.39956,0.00517
2634.36930,0.00514
2633.33905,0.00483
2632.30879,0.00462
2631.27853,0.00482
2630.24827,0.00507
2629.21801,0.00486
2628.18776,0.00455
2627.15750,0.00463
2626.12724,0.00484
2625.09698,0.00487
2624.06673,0.00486
2623.03647,0.00489
2622.00621,0.00471
2620.97595,0.00455
2619.94569,0.00464
2618.91544,0.00475
2617.88518,0.00469
2616.85492,0.00442
2615.82466,0.00413
2614.79440,0.00390
2613.76415,0.00371
2612.73389,0.00381
2611.70363,0.00432
2610.67337,0.00482
2609.64312,0.00485
2608.61286,0.00469
2607.58260,0.00472
2606.55234,0.00475
2605.52208,0.00455
2604.49183,0.00419
2603.46157,0.00414
2602.43131,0.00457
2601.40105,0.00467
2600.37079,0.00428
2599.34054,0.00417
2598.31028,0.00425
2597.28002,0.00403
2596.24976,0.00390
2595.21951,0.00432
2594.18925,0.00465
2593.15899,0.00416
2592.12873,0.00343
2591.09847,0.00329
2590.06822,0.00334
2589.03796,0.00323
2588.00770,0.00345
2586.97744,0.00378
2585.94718,0.00378
2584.91693,0.00385
2583.88667,0.00409
2582.85641,0.00413
2581.82615,0.00401
2580.79590,0.00406
2579.76564,0.00418
2578.73538,0.00388
2577.70512,0.00333
2576.67486,0.00349
2575.64461,0.00401
2574.61435,0.00361
2573.58409,0.00283
2572.55383,0.00282
2571.52358,0.00320
2570.49332,0.00330
2569.46306,0.00324
2568.43280,0.00310
2567.40254,0.00295
2566.37229,0.00325
2565.34203,0.00363
2564.31177,0.00360
2563.28151,0.00346
2562.25125,0.00323
2561.22100,0.00296
2560.19074,0.00292
2559.16048,0.00268
2558.13022,0.00197
2557.09997,0.00167
2556.06971,0.00202
2555.03945,0.00203
2554.00919,0.00151
2552.97893,0.00120
2551.94868,0.00156
2550.91842,0.00239
2549.88816,0.00284
2548.85790,0.00250
2547.82764,0.00215
2546.79739,0.00232
2545.76713,0.00261
2544.73687,0.00295
2543.70661,0.00334
2542.67636,0.00318
2541.64610,0.00256
2540.61584,0.00224
2539.58558,0.00241
2538.55532,0.00274
2537.52507,0.00307
2536.49481,0.00326
2535.46455,0.00310
2534.43429,0.00282
2533.40403,0.00275
2532.37378,0.00292
2531.34352,0.00288
2530.31326,0.00261
2529.28300,0.00269
2528.25275,0.00301
2527.22249,0.00319
2526.19223,0.00333
2525.16197,0.00352
2524.13171,0.00352
2523.10146,0.00334
2522.07120,0.00308
2521.04094,0.00276
2520.01068,0.00280
2518.98043,0.00310
2517.95017,0.00302
2516.91991,0.00278
2515.88965,0.00274
2514.85939,0.00276
2513.82914,0.00272
2512.79888,0.00270
2511.76862,0.00273
2510.73836,0.00261
2509.70810,0.00252
2508.67785,0.00262
2507.64759,0.00267
2506.61733,0.00276
2505.58707,0.00296
2504.55682,0.00291
2503.52656,0.00285
2502.49630,0.00278
2501.46604,0.00220
2500.43578,0.00186
2499.40553,0.00231
2498.37527,0.00287
2497.34501,0.00330
2496.31475,0.00380
2495.28449,0.00379
2494.25424,0.00298
2493.22398,0.00234
2492.19372,0.00238
2491.16346,0.00240
2490.13321,0.00242
2489.10295,0.00293
2488.07269,0.00329
2487.04243,0.00304
2486.01217,0.00291
2484.98192,0.00292
2483.95166,0.00273
2482.92140,0.00286
2481.89114,0.00305
2480.86088,0.00265
2479.83063,0.00205
2478.80037,0.00211
2477.77011,0.00273
2476.73985,0.00283
2475.70960,0.00227
2474.67934,0.00183
2473.64908,0.00164
2472.61882,0.00176
2471.58856,0.00216
2470.55831,0.00227
2469.52805,0.00196
2468.49779,0.00189
2467.46753,0.00232
2466.43728,0.00256
2465.40702,0.00225
2464.37676,0.00174
2463.34650,0.00153
2462.31624,0.00177
2461.28599,0.00219
2460.25573,0.00250
2459.22547,0.00241
2458.19521,0.00202
2457.16495,0.00192
2456.13470,0.00214
2455.10444,0.00212
2454.07418,0.00204
2453.04392,0.00213
2452.01367,0.00221
2450.98341,0.00253
2449.95315,0.00285
2448.92289,0.00266
2447.89263,0.00234
2446.86238,0.00218
2445.83212,0.00188
2444.80186,0.00162
2443.77160,0.00177
2442.74134,0.00207
2441.71109,0.00227
2440.68083,0.00233
2439.65057,0.00241
2438.62031,0.00273
2437.59006,0.00310
2436.55980,0.00308
2435.52954,0.00256
2434.49928,0.00224
2433.46902,0.00258
2432.43877,0.00301
2431.40851,0.00286
2430.37825,0.00235
2429.34799,0.00207
2428.31774,0.00218
2427.28748,0.00242
2426.25722,0.00234
2425.22696,0.00188
2424.19670,0.00182
2423.16645,0.00247
2422.13619,0.00291
2421.10593,0.00257
2420.07567,0.00212
2419.04541,0.00226
2418.01516,0.00256
2416.98490,0.00244
2415.95464,0.00221
2414.92438,0.00211
2413.89413,0.00201
2412.86387,0.00185
2411.83361,0.00153
2410.80335,0.00128
2409.77309,0.00139
2408.74284,0.00179
2407.71258,0.00225
2406.68232,0.00267
2405.65206,0.00291
2404.62180,0.00273
2403.59155,0.00232
2402.56129,0.00194
2401.53103,0.00186
2400.50077,0.00195
2399.47052,0.00186
2398.44026,0.00219
2397.41000,0.00285
2396.37974,0.00285
2395.34948,0.00234
2394.31923,0.00201
2393.28897,0.00195
2392.25871,0.00209
2391.22845,0.00243
2390.19819,0.00288
2389.16794,0.00311
2388.13768,0.00294
2387.10742,0.00254
2386.07716,0.00227
2385.04691,0.00241
2384.01665,0.00252
2382.98639,0.00223
2381.95613,0.00217
2380.92587,0.00238
2379.89562,0.00213
2378.86536,0.00167
2377.83510,0.00151
2376.80484,0.00159
2375.77459,0.00209
2374.74433,0.00262
2373.71407,0.00244
2372.68381,0.00233
2371.65355,0.00308
2370.62330,0.00370
2369.59304,0.00389
2368.56278,0.00379
2367.53252,0.00306
2366.50226,0.00275
2365.47201,0.00304
2364.44175,0.00294
2363.41149,0.00235
2362.38123,0.00145
2361.35098,0.00071
2360.32072,0.00040
2359.29046,0.00064
2358.26020,0.00165
2357.22994,0.00268
2356.19969,0.00251
2355.16943,0.00131
2354.13917,0.00045
2353.10891,0.00065
2352.07865,0.00154
2351.04840,0.00218
2350.01814,0.00239
2348.98788,0.00268
2347.95762,0.00285
2346.92737,0.00242
2345.89711,0.00211
2344.86685,0.00275
2343.83659,0.00344
2342.80633,0.00312
2341.77608,0.00223
2340.74582,0.00185
2339.71556,0.00194
2338.68530,0.00193
2337.65504,0.00172
2336.62479,0.00169
2335.59453,0.00227
2334.56427,0.00294
2333.53401,0.00313
2332.50376,0.00302
2331.47350,0.00277
2330.44324,0.00274
2329.41298,0.00306
2328.38272,0.00338
2327.35247,0.00346
2326.32221,0.00283
2325.29195,0.00183
2324.26169,0.00148
2323.23144,0.00183
2322.20118,0.00201
2321.17092,0.00190
2320.14066,0.00191
2319.11040,0.00191
2318.08015,0.00196
2317.04989,0.00218
2316.01963,0.00230
2314.98937,0.00244
2313.95911,0.00253
2312.92886,0.00240
2311.89860,0.00202
2310.86834,0.00137
2309.83808,0.00115
2308.80783,0.00141
2307.77757,0.00134
2306.74731,0.00099
2305.71705,0.00095
2304.68679,0.00117
2303.65654,0.00155
2302.62628,0.00181
2301.59602,0.00172
2300.56576,0.00181
2299.53550,0.00195
2298.50525,0.00173
2297.47499,0.00159
2296.44473,0.00175
2295.41447,0.00173
2294.38422,0.00146
2293.35396,0.00167
2292.32370,0.00226
2291.29344,0.00227
2290.26318,0.00183
2289.23293,0.00157
2288.20267,0.00142
2287.17241,0.00148
2286.14215,0.00162
2285.11189,0.00145
2284.08164,0.00121
2283.05138,0.00137
2282.02112,0.00167
2280.99086,0.00130
2279.96061,0.00059
2278.93035,0.00085
2277.90009,0.00172
2276.86983,0.00166
2275.83957,0.00074
2274.80932,0.00008
2273.77906,0.00043
2272.74880,0.00144
2271.71854,0.00176
2270.68829,0.00130
2269.65803,0.00116
2268.62777,0.00138
2267.59751,0.00124
2266.56725,0.00066
2265.53700,0.00039
2264.50674,0.00081
2263.47648,0.00115
2262.44622,0.00113
2261.41596,0.00098
2260.38571,0.00068
2259.35545,0.00047
2258.32519,0.00069
2257.29493,0.00098
2256.26468,0.00090
2255.23442,0.00096
2254.20416,0.00128
2253.17390,0.00141
2252.14364,0.00115
2251.11339,0.00070
2250.08313,0.00034
2249.05287,0.00025
2248.02261,0.00053
2246.99235,0.00069
2245.96210,0.00032
2244.93184,-0.00038
2243.90158,-0.00075
2242.87132,-0.00042
2241.84107,0.00028
2240.81081,0.00085
2239.78055,0.00094
2238.75029,0.00074
2237.72003,0.00067
2236.68978,0.00036
2235.65952,-0.00024
2234.62926,-0.00068
2233.59900,-0.00079
2232.56874,-0.00082
2231.53849,-0.00067
2230.50823,0.00029
2229.47797,0.00084
2228.44771,-0.00029
2227.41746,-0.00185
2226.38720,-0.00219
2225.35694,-0.00138
2224.32668,-0.00082
2223.29642,-0.00078
2222.26617,-0.00055
2221.23591,-0.00024
2220.20565,0.00004
2219.17539,0.00049
2218.14514,0.00060
2217.11488,0.00006
2216.08462,-0.00109
2215.05436,-0.00217
2214.02410,-0.00184
2212.99385,-0.00012
2211.96359,0.00143
2210.93333,0.00109
2209.90307,-0.00098
2208.87281,-0.00299
2207.84256,-0.00318
2206.81230,-0.00157
2205.78204,-0.00021
2204.75178,-0.00017
2203.72153,-0.00133
2202.69127,-0.00297
2201.66101,-0.00358
2200.63075,-0.00283
2199.60049,-0.00184
2198.57024,-0.00117
2197.53998,-0.00077
2196.50972,-0.00014
2195.47946,0.00040
2194.44920,-0.00080
2193.41895,-0.00239
2192.38869,-0.00253
2191.35843,-0.00335
2190.32817,-0.00513
2189.29792,-0.00552
2188.26766,-0.00490
2187.23740,-0.00446
2186.20714,-0.00361
2185.17688,-0.00180
2184.14663,-0.00005
2183.11637,0.00061
2182.08611,0.00072
2181.05585,0.00039
2180.02559,-0.00103
2178.99534,-0.00276
2177.96508,-0.00241
2176.93482,-0.00085
2175.90456,-0.00089
2174.87431,-0.00183
2173.84405,-0.00261
2172.81379,-0.00330
2171.78353,-0.00413
2170.75327,-0.00482
2169.72302,-0.00339
2168.69276,-0.00100
2167.66250,-0.00148
2166.63224,-0.00293
2165.60199,-0.00259
2164.57173,-0.00187
2163.54147,-0.00152
2162.51121,-0.00236
2161.48095,-0.00396
2160.45070,-0.00464
2159.42044,-0.00482
2158.39018,-0.00441
2157.35992,-0.00320
2156.32966,-0.00273
2155.29941,-0.00324
2154.26915,-0.00315
2153.23889,-0.00120
2152.20863,0.00065
2151.17838,-0.00001
2150.14812,-0.00106
2149.11786,-0.00147
2148.08760,-0.00182
2147.05734,-0.00105
2146.02709,-0.00017
2144.99683,0.00035
2143.96657,0.00094
2142.93631,0.00100
2141.90605,0.00127
2140.87580,0.00167
2139.84554,0.00167
2138.81528,0.00244
2137.78502,0.00361
2136.75477,0.00315
2135.72451,0.00114
2134.69425,-0.00013
2133.66399,0.00031
2132.63373,0.00109
2131.60348,0.00076
2130.57322,0.00034
2129.54296,0.00119
2128.51270,0.00185
2127.48244,0.00180
2126.45219,0.00201
2125.42193,0.00203
2124.39167,0.00222
2123.36141,0.00270
2122.33116,0.00185
2121.30090,0.00022
2120.27064,0.00019
2119.24038,0.00138
2118.21012,0.00161
2117.17987,0.00075
2116.14961,-0.00003
2115.11935,-0.00001
2114.08909,0.00083
2113.05884,0.00138
2112.02858,0.00138
2110.99832,0.00184
2109.96806,0.00254
2108.93780,0.00278
2107.90755,0.00282
2106.87729,0.00252
2105.84703,0.00130
2104.81677,0.00010
2103.78651,0.00032
2102.75626,0.00134
2101.72600,0.00240
2100.69574,0.00335
2099.66548,0.00318
2098.63523,0.00212
2097.60497,0.00147
2096.57471,0.00166
2095.54445,0.00258
2094.51419,0.00325
2093.48394,0.00306
2092.45368,0.00234
2091.42342,0.00132
2090.39316,0.00086
2089.36290,0.00112
2088.33265,0.00147
2087.30239,0.00173
2086.27213,0.00169
2085.24187,0.00195
2084.21162,0.00251
2083.18136,0.00214
2082.15110,0.00123
2081.12084,0.00078
2080.09058,0.00082
2079.06033,0.00120
2078.03007,0.00116
2076.99981,0.00046
2075.96955,0.00024
2074.93930,0.00088
2073.90904,0.00159
2072.87878,0.00169
2071.84852,0.00093
2070.81826,0.00003
2069.78801,-0.00038
2068.75775,-0.00003
2067.72749,0.00135
2066.69723,0.00250
2065.66697,0.00238
2064.63672,0.00183
2063.60646,0.00151
2062.57620,0.00089
2061.54594,-0.00046
2060.51569,-0.00134
2059.48543,-0.00068
2058.45517,0.00043
2057.42491,0.00081
2056.39465,0.00125
2055.36440,0.00237
2054.33414,0.00258
2053.30388,0.00191
2052.27362,0.00235
2051.24336,0.00222
2050.21311,0.00006
2049.18285,-0.00100
2048.15259,-0.00009
2047.12233,0.00052
2046.09208,0.00057
2045.06182,0.00041
2044.03156,0.00012
2043.00130,0.00077
2041.97104,0.00172
2040.94079,0.00160
2039.91053,0.00149
2038.88027,0.00170
2037.85001,0.00247
2036.81975,0.00434
2035.78950,0.00469
2034.75924,0.00259
2033.72898,0.00158
2032.69872,0.00223
2031.66847,0.00182
2030.63821,0.00096
2029.60795,0.00124
2028.57769,0.00140
2027.54743,0.00078
2026.51718,0.00055
2025.48692,0.00045
2024.45666,0.00090
2023.42640,0.00263
2022.39615,0.00270
2021.36589,-0.00017
2020.33563,-0.00285
2019.30537,-0.00259
2018.27511,-0.00022
2017.24486,0.00199
2016.21460,0.00360
2015.18434,0.00425
2014.15408,0.00239
2013.12382,-0.00082
2012.09357,-0.00219
2011.06331,-0.00161
2010.03305,-0.00103
2009.00279,-0.00111
2007.97254,-0.00041
2006.94228,0.00081
2005.91202,0.00082
2004.88176,0.00069
2003.85150,0.00172
2002.82125,0.00291
2001.79099,0.00286
2000.76073,0.00229
1999.73047,0.00285
1998.70021,0.00417
1997.66996,0.00495
1996.63970,0.00505
1995.60944,0.00480
1994.57918,0.00364
1993.54893,0.00232
1992.51867,0.00249
1991.48841,0.00359
1990.45815,0.00397
1989.42789,0.00360
1988.39764,0.00382
1987.36738,0.00476
1986.33712,0.00576
1985.30686,0.00608
1984.27660,0.00518
1983.24635,0.00434
1982.21609,0.00361
1981.18583,0.00266
1980.15557,0.00275
1979.12532,0.00361
1978.09506,0.00376
1977.06480,0.00338
1976.03454,0.00335
1975.00428,0.00324
1973.97403,0.00393
1972.94377,0.00562
1971.91351,0.00620
1970.88325,0.00636
1969.85300,0.00723
1968.82274,0.00763
1967.79248,0.00724
1966.76222,0.00579
1965.73196,0.00398
1964.70171,0.00360
1963.67145,0.00472
1962.64119,0.00629
1961.61093,0.00776
1960.58067,0.00873
1959.55042,0.00830
1958.52016,0.00705
1957.48990,0.00667
1956.45964,0.00730
1955.42939,0.00782
1954.39913,0.00811
1953.36887,0.00830
1952.33861,0.00792
1951.30835,0.00772
1950.27810,0.00763
1949.24784,0.00677
1948.21758,0.00621
1947.18732,0.00650
1946.15706,0.00659
1945.12681,0.00609
1944.09655,0.00571
1943.06629,0.00589
1942.03603,0.00626
1941.00578,0.00651
1939.97552,0.00664
1938.94526,0.00678
1937.91500,0.00692
1936.88474,0.00636
1935.85449,0.00556
1934.82423,0.00557
1933.79397,0.00553
1932.76371,0.00515
1931.73345,0.00543
1930.70320,0.00601
1929.67294,0.00600
1928.64268,0.00557
1927.61242,0.00561
1926.58217,0.00643
1925.55191,0.00719
1924.52165,0.00650
1923.49139,0.00463
1922.46113,0.00358
1921.43088,0.00370
1920.40062,0.00415
1919.37036,0.00433
1918.34010,0.00417
1917.30985,0.00389
1916.27959,0.00297
1915.24933,0.00181
1914.21907,0.00163
1913.18881,0.00202
1912.15856,0.00210
1911.12830,0.00215
1910.09804,0.00246
1909.06778,0.00292
1908.03752,0.00345
1907.00727,0.00420
1905.97701,0.00475
1904.94675,0.00419
1903.91649,0.00295
1902.88624,0.00242
1901.85598,0.00255
1900.82572,0.00239
1899.79546,0.00181
1898.76520,0.00156
1897.73495,0.00184
1896.70469,0.00217
1895.67443,0.00285
1894.64417,0.00349
1893.61391,0.00357
1892.58366,0.00356
1891.55340,0.00314
1890.52314,0.00242
1889.49288,0.00213
1888.46263,0.00226
1887.43237,0.00246
1886.40211,0.00255
1885.37185,0.00245
1884.34159,0.00204
1883.31134,0.00168
1882.28108,0.00165
1881.25082,0.00145
1880.22056,0.00115
1879.19030,0.00126
1878.16005,0.00155
1877.12979,0.00177
1876.09953,0.00160
1875.06927,0.00075
1874.03902,0.00015
1873.00876,0.00056
1871.97850,0.00139
1870.94824,0.00180
1869.91798,0.00170
1868.88773,0.00173
1867.85747,0.00200
1866.82721,0.00209
1865.79695,0.00212
1864.76670,0.00203
1863.73644,0.00149
1862.70618,0.00086
1861.67592,0.00064
1860.64566,0.00081
1859.61541,0.00108
1858.58515,0.00152
1857.55489,0.00221
1856.52463,0.00253
1855.49437,0.00226
1854.46412,0.00178
1853.43386,0.00132
1852.40360,0.00128
1851.37334,0.00176
1850.34309,0.00216
1849.31283,0.00214
1848.28257,0.00178
1847.25231,0.00137
1846.22205,0.00149
1845.19180,0.00182
1844.16154,0.00147
1843.13128,0.00092
1842.10102,0.00090
1841.07076,0.00128
1840.04051,0.00176
1839.01025,0.00183
1837.97999,0.00154
1836.94973,0.00150
1835.91948,0.00172
1834.88922,0.00179
1833.85896,0.00175
1832.82870,0.00179
1831.79844,0.00168
1830.76819,0.00165
1829.73793,0.00196
1828.70767,0.00212
1827.67741,0.00210
1826.64715,0.00203
1825.61690,0.00161
1824.58664,0.00095
1823.55638,0.00059
1822.52612,0.00077
1821.49587,0.00126
1820.46561,0.00155
1819.43535,0.00177
1818.40509,0.00197
1817.37483,0.00189
1816.34458,0.00190
1815.31432,0.00223
1814.28406,0.00249
1813.25380,0.00224
1812.22355,0.00180
1811.19329,0.00167
1810.16303,0.00153
1809.13277,0.00138
1808.10251,0.00144
1807.07226,0.00151
1806.04200,0.00156
1805.01174,0.00164
1803.98148,0.00170
1802.95122,0.00184
1801.92097,0.00216
1800.89071,0.00243
1799.86045,0.00239
1798.83019,0.00226
1797.79994,0.00235
1796.76968,0.00263
1795.73942,0.00277
1794.70916,0.00262
1793.67890,0.00243
1792.64865,0.00221
1791.61839,0.00232
1790.58813,0.00279
1789.55787,0.00285
1788.52761,0.00251
1787.49736,0.00216
1786.46710,0.00213
1785.43684,0.00244
1784.40658,0.00256
1783.37633,0.00244
1782.34607,0.00244
1781.31581,0.00257
1780.28555,0.00262
1779.25529,0.00251
1778.22504,0.00253
1777.19478,0.00265
1776.16452,0.00260
1775.13426,0.00265
1774.10400,0.00304
1773.07375,0.00349
1772.04349,0.00366
1771.01323,0.00331
1769.98297,0.00290
1768.95272,0.00299
1767.92246,0.00346
1766.89220,0.00359
1765.86194,0.00328
1764.83168,0.00310
1763.80143,0.00323
1762.77117,0.00342
1761.74091,0.00366
1760.71065,0.00391
1759.68040,0.00390
1758.65014,0.00378
1757.61988,0.00386
1756.58962,0.00403
1755.55936,0.00410
1754.52911,0.00436
1753.49885,0.00462
1752.46859,0.00451
1751.43833,0.00430
1750.40807,0.00427
1749.37782,0.00407
1748.34756,0.00380
1747.31730,0.00390
1746.28704,0.00415
1745.25679,0.00417
1744.22653,0.00408
1743.19627,0.00416
1742.16601,0.00427
1741.13575,0.00427
1740.10550,0.00408
1739.07524,0.00372
1738.04498,0.00368
1737.01472,0.00395
1735.98446,0.00418
1734.95421,0.00414
1733.92395,0.00383
1732.89369,0.00367
1731.86343,0.00376
1730.83318,0.00393
1729.80292,0.00402
1728.77266,0.00404
1727.74240,0.00407
1726.71214,0.00405
1725.68189,0.00398
1724.65163,0.00396
1723.62137,0.00415
1722.59111,0.00454
1721.56085,0.00486
1720.53060,0.00502
1719.50034,0.00500
1718.47008,0.00454
1717.43982,0.00382
1716.40957,0.00398
1715.37931,0.00445
1714.34905,0.00442
1713.31879,0.00425
1712.28853,0.00428
1711.25828,0.00421
1710.22802,0.00378
1709.19776,0.00329
1708.16750,0.00314
1707.13725,0.00328
1706.10699,0.00346
1705.07673,0.00353
1704.04647,0.00338
1703.01621,0.00302
1701.98596,0.00273
1700.95570,0.00298
1699.92544,0.00399
1698.89518,0.00404
1697.86492,0.00347
1696.83467,0.00301
1695.80441,0.00302
1694.77415,0.00335
1693.74389,0.00342
1692.71364,0.00325
1691.68338,0.00302
1690.65312,0.00291
1689.62286,0.00310
1688.59260,0.00350
1687.56235,0.00373
1686.53209,0.00373
1685.50183,0.00367
1684.47157,0.00353
1683.44131,0.00321
1682.41106,0.00295
1681.38080,0.00301
1680.35054,0.00339
1679.32028,0.00372
1678.29003,0.00381
1677.25977,0.00378
1676.22951,0.00380
1675.19925,0.00397
1674.16899,0.00413
1673.13874,0.00419
1672.10848,0.00414
1671.07822,0.00410
1670.04796,0.00426
1669.01771,0.00444
1667.98745,0.00463
1666.95719,0.00501
1665.92693,0.00530
1664.89667,0.00543
1663.86642,0.00562
1662.83616,0.00574
1661.80590,0.00564
1660.77564,0.00550
1659.74538,0.00548
1658.71513,0.00585
1657.68487,0.00654
1656.65461,0.00695
1655.62435,0.00691
1654.59410,0.00681
1653.56384,0.00694
1652.53358,0.00694
1651.50332,0.00686
1650.47306,0.00698
1649.44281,0.00728
1648.41255,0.00778
1647.38229,0.00807
1646.35203,0.00785
1645.32177,0.00756
1644.29152,0.00747
1643.26126,0.00753
1642.23100,0.00756
1641.20074,0.00755
1640.17049,0.00762
1639.14023,0.00770
1638.10997,0.00781
1637.07971,0.00799
1636.04945,0.00823
1635.01920,0.00833
1633.98894,0.00805
1632.95868,0.00779
1631.92842,0.00777
1630.89816,0.00784
1629.86791,0.00789
1628.83765,0.00793
1627.80739,0.00786
1626.77713,0.00786
1625.74688,0.00788
1624.71662,0.00766
1623.68636,0.00745
1622.65610,0.00746
1621.62584,0.00739
1620.59559,0.00730
1619.56533,0.00721
1618.53507,0.00703
1617.50481,0.00697
1616.47456,0.00714
1615.44430,0.00718
1614.41404,0.00715
1613.38378,0.00713
1612.35352,0.00707
1611.32327,0.00703
1610.29301,0.00686
1609.26275,0.00661
1608.23249,0.00655
1607.20223,0.00651
1606.17198,0.00632
1605.14172,0.00618
1604.11146,0.00623
1603.08120,0.00633
1602.05095,0.00636
1601.02069,0.00630
1599.99043,0.00614
1598.96017,0.00594
1597.92991,0.00573
1596.89966,0.00558
1595.86940,0.00558
1594.83914,0.00564
1593.80888,0.00564
1592.77862,0.00549
1591.74837,0.00540
1590.71811,0.00547
1589.68785,0.00553
1588.65759,0.00559
1587.62734,0.00563
1586.59708,0.00551
1585.56682,0.00527
1584.53656,0.00514
1583.50630,0.00526
1582.47605,0.00530
1581.44579,0.00504
1580.41553,0.00476
1579.38527,0.00468
1578.35501,0.00473
1577.32476,0.00492
1576.29450,0.00512
1575.26424,0.00509
1574.23398,0.00504
1573.20373,0.00496
1572.17347,0.00481
1571.14321,0.00468
1570.11295,0.00449
1569.08269,0.00434
1568.05244,0.00445
1567.02218,0.00469
1565.99192,0.00494
1564.96166,0.00487
1563.93141,0.00455
1562.90115,0.00456
1561.87089,0.00470
1560.84063,0.00465
1559.81037,0.00489
1558.78012,0.00559
1557.74986,0.00554
1556.71960,0.00522
1555.68934,0.00511
1554.65908,0.00506
1553.62883,0.00503
1552.59857,0.00509
1551.56831,0.00535
1550.53805,0.00542
1549.50780,0.00495
1548.47754,0.00461
1547.44728,0.00481
1546.41702,0.00525
1545.38676,0.00560
1544.35651,0.00563
1543.32625,0.00559
1542.29599,0.00560
1541.26573,0.00547
1540.23547,0.00527
1539.20522,0.00518
1538.17496,0.00510
1537.14470,0.00493
1536.11444,0.00481
1535.08419,0.00485
1534.05393,0.00523
1533.02367,0.00582
1531.99341,0.00600
1530.96315,0.00579
1529.93290,0.00561
1528.90264,0.00562
1527.87238,0.00565
1526.84212,0.00565
1525.81186,0.00586
1524.78161,0.00614
1523.75135,0.00624
1522.72109,0.00636
1521.69083,0.00658
1520.66058,0.00669
1519.63032,0.00664
1518.60006,0.00672
1517.56980,0.00683
1516.53954,0.00679
1515.50929,0.00685
1514.47903,0.00700
1513.44877,0.00703
1512.41851,0.00708
1511.38826,0.00731
1510.35800,0.00754
1509.32774,0.00770
1508.29748,0.00789
1507.26722,0.00836
1506.23697,0.00880
1505.20671,0.00895
1504.17645,0.00913
1503.14619,0.00938
1502.11593,0.00964
1501.08568,0.00997
1500.05542,0.01049
1499.02516,0.01147
1497.99490,0.01267
1496.96465,0.01389
1495.93439,0.01574
1494.90413,0.01769
1493.87387,0.01958
1492.84361,0.02174
1491.81336,0.02395
1490.78310,0.02639
1489.75284,0.02914
1488.72258,0.03120
1487.69232,0.03253
1486.66207,0.03353
1485.63181,0.03416
1484.60155,0.03466
1483.57129,0.03523
1482.54104,0.03585
1481.51078,0.03657
1480.48052,0.03771
1479.45026,0.03935
1478.42000,0.04139
1477.38975,0.04389
1476.35949,0.04706
1475.32923,0.05031
1474.29897,0.05324
1473.26871,0.05647
1472.23846,0.05969
1471.20820,0.06215
1470.17794,0.06397
1469.14768,0.06570
1468.11743,0.06735
1467.08717,0.06863
1466.05691,0.06951
1465.02665,0.07027
1463.99639,0.07132
1462.96614,0.07257
1461.93588,0.07376
1460.90562,0.07483
1459.87536,0.07581
1458.84511,0.07650
1457.81485,0.07690
1456.78459,0.07683
1455.75433,0.07688
1454.72407,0.07730
1453.69382,0.07757
1452.66356,0.07737
1451.63330,0.07671
1450.60304,0.07589
1449.57278,0.07480
1448.54253,0.07287
1447.51227,0.07005
1446.48201,0.06741
1445.45175,0.06516
1444.42150,0.06320
1443.39124,0.06142
1442.36098,0.05950
1441.33072,0.05762
1440.30046,0.05597
1439.27021,0.05417
1438.23995,0.05210
1437.20969,0.04937
1436.17943,0.04534
1435.14917,0.04194
1434.11892,0.03944
1433.08866,0.03719
1432.05840,0.03521
1431.02814,0.03361
1429.99789,0.03238
1428.96763,0.03136
1427.93737,0.03056
1426.90711,0.02996
1425.87685,0.02952
1424.84660,0.02928
1423.81634,0.02925
1422.78608,0.02925
1421.75582,0.02927
1420.72556,0.02941
1419.69531,0.02954
1418.66505,0.02949
1417.63479,0.02939
1416.60453,0.02952
1415.57428,0.02997
1414.54402,0.03034
1413.51376,0.03050
1412.48350,0.03074
1411.45324,0.03109
1410.42299,0.03152
1409.39273,0.03195
1408.36247,0.03236
1407.33221,0.03278
1406.30196,0.03303
1405.27170,0.03302
1404.24144,0.03316
1403.21118,0.03364
1402.18092,0.03406
1401.15067,0.03433
1400.12041,0.03454
1399.09015,0.03458
1398.05989,0.03452
1397.02963,0.03478
1395.99938,0.03520
1394.96912,0.03540
1393.93886,0.03539
1392.90860,0.03554
1391.87835,0.03590
1390.84809,0.03625
1389.81783,0.03652
1388.78757,0.03680
1387.75731,0.03711
1386.72706,0.03734
1385.69680,0.03768
1384.66654,0.03827
1383.63628,0.03885
1382.60602,0.03935
1381.57577,0.03999
1380.54551,0.04068
1379.51525,0.04141
1378.48499,0.04230
1377.45474,0.04324
1376.42448,0.04402
1375.39422,0.04468
1374.36396,0.04560
1373.33370,0.04694
1372.30345,0.04839
1371.27319,0.04974
1370.24293,0.05096
1369.21267,0.05216
1368.18241,0.05339
1367.15216,0.05471
1366.12190,0.05633
1365.09164,0.05817
1364.06138,0.06020
1363.03113,0.06284
1362.00087,0.06578
1360.97061,0.06869
1359.94035,0.07199
1358.91009,0.07592
1357.87984,0.08048
1356.84958,0.08539
1355.81932,0.09030
1354.78906,0.09516
1353.75881,0.10041
1352.72855,0.10612
1351.69829,0.11175
1350.66803,0.11692
1349.63777,0.12085
1348.60752,0.12231
1347.57726,0.12060
1346.54700,0.11531
1345.51674,0.10646
1344.48648,0.09525
1343.45623,0.08345
1342.42597,0.07286
1341.39571,0.06440
1340.36545,0.05790
1339.33520,0.05329
1338.30494,0.05061
1337.27468,0.04952
1336.24442,0.04943
1335.21416,0.04989
1334.18391,0.05065
1333.15365,0.05173
1332.12339,0.05324
1331.09313,0.05487
1330.06287,0.05653
1329.03262,0.05860
1328.00236,0.06093
1326.97210,0.06297
1325.94184,0.06440
1324.91159,0.06514
1323.88133,0.06536
1322.85107,0.06483
1321.82081,0.06323
1320.79055,0.06108
1319.76030,0.05911
1318.73004,0.05762
1317.69978,0.05677
1316.66952,0.05673
1315.63927,0.05729
1314.60901,0.05821
1313.57875,0.05952
1312.54849,0.06134
1311.51823,0.06370
1310.48798,0.06662
1309.45772,0.07009
1308.42746,0.07370
1307.39720,0.07719
1306.36694,0.08059
1305.33669,0.08369
1304.30643,0.08651
1303.27617,0.08908
1302.24591,0.09119
1301.21566,0.09275
1300.18540,0.09375
1299.15514,0.09444
1298.12488,0.09519
1297.09462,0.09581
1296.06437,0.09598
1295.03411,0.09592
1294.00385,0.09575
1292.97359,0.09520
1291.94333,0.09445
1290.91308,0.09390
1289.88282,0.09344
1288.85256,0.09283
1287.82230,0.09205
1286.79205,0.09113
1285.76179,0.08994
1284.73153,0.08840
1283.70127,0.08673
1282.67101,0.08503
1281.64076,0.08325
1280.61050,0.08142
1279.58024,0.07949
1278.54998,0.07744
1277.51972,0.07529
1276.48947,0.07328
1275.45921,0.07155
1274.42895,0.06978
1273.39869,0.06800
1272.36844,0.06660
1271.33818,0.06563
1270.30792,0.06488
1269.27766,0.06437
1268.24740,0.06421
1267.21715,0.06448
1266.18689,0.06522
1265.15663,0.06635
1264.12637,0.06774
1263.09612,0.06959
1262.06586,0.07200
1261.03560,0.07489
1260.00534,0.07819
1258.97508,0.08170
1257.94483,0.08515
1256.91457,0.08852
1255.88431,0.09192
1254.85405,0.09520
1253.82379,0.09826
1252.79354,0.10087
1251.76328,0.10268
1250.73302,0.10378
1249.70276,0.10445
1248.67251,0.10472
1247.64225,0.10433
1246.61199,0.10335
1245.58173,0.10212
1244.55147,0.10046
1243.52122,0.09805
1242.49096,0.09511
1241.46070,0.09214
1240.43044,0.08922
1239.40018,0.08603
1238.36993,0.08253
1237.33967,0.07892
1236.30941,0.07551
1235.27915,0.07231
1234.24890,0.06901
1233.21864,0.06573
1232.18838,0.06274
1231.15812,0.06002
1230.12786,0.05746
1229.09761,0.05519
1228.06735,0.05346
1227.03709,0.05211
1226.00683,0.05086
1224.97657,0.04960
1223.94632,0.04837
1222.91606,0.04744
1221.88580,0.04688
1220.85554,0.04629
1219.82529,0.04552
1218.79503,0.04482
1217.76477,0.04424
1216.73451,0.04355
1215.70425,0.04250
1214.67400,0.04115
1213.64374,0.03992
1212.61348,0.03896
1211.58322,0.03785
1210.55297,0.03651
1209.52271,0.03519
1208.49245,0.03405
1207.46219,0.03327
1206.43193,0.03280
1205.40168,0.03243
1204.37142,0.03187
1203.34116,0.03105
1202.31090,0.03031
1201.28064,0.02990
1200.25039,0.02972
1199.22013,0.02958
1198.18987,0.02948
1197.15961,0.02928
1196.12936,0.02898
1195.09910,0.02888
1194.06884,0.02904
1193.03858,0.02916
1192.00832,0.02917
1190.97807,0.02945
1189.94781,0.02995
1188.91755,0.03031
1187.88729,0.03064
1186.85703,0.03124
1185.82678,0.03193
1184.79652,0.03238
1183.76626,0.03288
1182.73600,0.03375
1181.70575,0.03475
1180.67549,0.03564
1179.64523,0.03666
1178.61497,0.03797
1177.58471,0.03937
1176.55446,0.04067
1175.52420,0.04201
1174.49394,0.04378
1173.46368,0.04595
1172.43342,0.04815
1171.40317,0.05048
1170.37291,0.05331
1169.34265,0.05658
1168.31239,0.06018
1167.28214,0.06407
1166.25188,0.06844
1165.22162,0.07362
1164.19136,0.07973
1163.16110,0.08661
1162.13085,0.09417
1161.10059,0.10251
1160.07033,0.11152
1159.04007,0.12107
1158.00982,0.13140
1156.97956,0.14248
1155.94930,0.15402
1154.91904,0.16595
1153.88878,0.17805
1152.85853,0.19025
1151.82827,0.20269
1150.79801,0.21484
1149.76775,0.22651
1148.73749,0.23812
1147.70724,0.24944
1146.67698,0.26008
1145.64672,0.27011
1144.61646,0.27966
1143.58621,0.28881
1142.55595,0.29735
1141.52569,0.30508
1140.49543,0.31217
1139.46517,0.31886
1138.43492,0.32537
1137.40466,0.33167
1136.37440,0.33755
1135.34414,0.34310
1134.31388,0.34852
1133.28363,0.35403
1132.25337,0.35974
1131.22311,0.36573
1130.19285,0.37194
1129.16260,0.37832
1128.13234,0.38494
1127.10208,0.39196
1126.07182,0.39948
1125.04156,0.40710
1124.01131,0.41487
1122.98105,0.42294
1121.95079,0.43090
1120.92053,0.43855
1119.89027,0.44603
1118.86002,0.45334
1117.82976,0.46043
1116.79950,0.46764
1115.76924,0.47532
1114.73899,0.48309
1113.70873,0.49029
1112.67847,0.49734
1111.64821,0.50530
1110.61795,0.51381
1109.58770,0.52202
1108.55744,0.53039
1107.52718,0.53930
1106.49692,0.54812
1105.46667,0.55638
1104.43641,0.56499
1103.40615,0.57451
1102.37589,0.58412
1101.34563,0.59272
1100.31538,0.59971
1099.28512,0.60567
1098.25486,0.61159
1097.22460,0.61732
1096.19434,0.62189
1095.16409,0.62529
1094.13383,0.62708
1093.10357,0.62672
1092.07331,0.62574
1091.04306,0.62481
1090.01280,0.62235
1088.98254,0.61820
1087.95228,0.61313
1086.92202,0.60627
1085.89177,0.59781
1084.86151,0.58969
1083.83125,0.58291
1082.80099,0.57651
1081.77073,0.56906
1080.74048,0.56056
1079.71022,0.55136
1078.67996,0.54195
1077.64970,0.53331
1076.61945,0.52585
1075.58919,0.51940
1074.55893,0.51353
1073.52867,0.50813
1072.49841,0.50320
1071.46816,0.49893
1070.43790,0.49523
1069.40764,0.49180
1068.37738,0.48884
1067.34712,0.48583
1066.31687,0.48184
1065.28661,0.47712
1064.25635,0.47225
1063.22609,0.46682
1062.19584,0.46034
1061.16558,0.45278
1060.13532,0.44465
1059.10506,0.43634
1058.07480,0.42706
1057.04455,0.41636
1056.01429,0.40557
1054.98403,0.39541
1053.95377,0.38560
1052.92352,0.37617
1051.89326,0.36685
1050.86300,0.35815
1049.83274,0.35094
1048.80248,0.34469
1047.77223,0.33911
1046.74197,0.33468
1045.71171,0.33150
1044.68145,0.32940
1043.65119,0.32811
1042.62094,0.32748
1041.59068,0.32729
1040.56042,0.32681
1039.53016,0.32606
1038.49991,0.32549
1037.46965,0.32483
1036.43939,0.32406
1035.40913,0.32292
1034.37887,0.32055
1033.34862,0.31687
1032.31836,0.31256
1031.28810,0.30805
1030.25784,0.30310
1029.22758,0.29708
1028.19733,0.28985
1027.16707,0.28217
1026.13681,0.27447
1025.10655,0.26651
1024.07630,0.25814
1023.04604,0.24939
1022.01578,0.24045
1020.98552,0.23169
1019.95526,0.22314
1018.92501,0.21473
1017.89475,0.20662
1016.86449,0.19880
1015.83423,0.19146
1014.80397,0.18463
1013.77372,0.17810
1012.74346,0.17192
1011.71320,0.16628
1010.68294,0.16163
1009.65269,0.15789
1008.62243,0.15457
1007.59217,0.15167
1006.56191,0.14927
1005.53165,0.14733
1004.50140,0.14610
1003.47114,0.14545
1002.44088,0.14510
1001.41062,0.14513
1000.38037,0.14534
999.35011,0.14557
998.31985,0.14591
997.28959,0.14616
996.25933,0.14601
995.22908,0.14556
994.19882,0.14498
993.16856,0.14425
992.13830,0.14352
991.10804,0.14258
990.07779,0.14095
989.04753,0.13843
988.01727,0.13529
986.98701,0.13218
985.95676,0.12927
984.92650,0.12619
983.89624,0.12276
982.86598,0.11920
981.83572,0.11574
980.80547,0.11226
979.77521,0.10858
978.74495,0.10497
977.71469,0.10189
976.68443,0.09965
975.65418,0.09791
974.62392,0.09616
973.59366,0.09475
972.56340,0.09416
971.53315,0.09435
970.50289,0.09504
969.47263,0.09604
968.44237,0.09774
967.41211,0.10034
966.38186,0.10341
965.35160,0.10708
964.32134,0.11145
963.29108,0.11629
962.26082,0.12172
961.23057,0.12779
960.20031,0.13448
959.17005,0.14173
958.13979,0.14880
957.10954,0.15522
956.07928,0.16164
955.04902,0.16819
954.01876,0.17456
952.98850,0.18069
951.95825,0.18603
950.92799,0.19015
949.89773,0.19329
948.86747,0.19586
947.83722,0.19794
946.80696,0.19961
945.77670,0.20117
944.74644,0.20213
943.71618,0.20199
942.68593,0.20146
941.65567,0.20106
940.62541,0.20027
939.59515,0.19893
938.56489,0.19755
937.53464,0.19657
936.50438,0.19568
935.47412,0.19383
934.44386,0.19093
933.41361,0.18807
932.38335,0.18577
931.35309,0.18351
930.32283,0.18099
929.29257,0.17837
928.26232,0.17554
927.23206,0.17246
926.20180,0.16924
925.17154,0.16592
924.14128,0.16299
923.11103,0.16056
922.08077,0.15793
921.05051,0.15519
920.02025,0.15269
918.99000,0.14994
917.95974,0.14699
916.92948,0.14456
915.89922,0.14243
914.86896,0.13977
913.83871,0.13653
912.80845,0.13319
911.77819,0.13002
910.74793,0.12715
909.71768,0.12452
908.68742,0.12187
907.65716,0.11894
906.62690,0.11609
905.59664,0.11378
904.56639,0.11176
903.53613,0.10949
902.50587,0.10715
901.47561,0.10516
900.44535,0.10367
899.41510,0.10294
898.38484,0.10303
897.35458,0.10376
896.32432,0.10498
895.29407,0.10694
894.26381,0.10965
893.23355,0.11260
892.20329,0.11580
891.17303,0.11958
890.14278,0.12361
889.11252,0.12720
888.08226,0.13017
887.05200,0.13255
886.02174,0.13432
884.99149,0.13575
883.96123,0.13659
882.93097,0.13616
881.90071,0.13462
880.87046,0.13268
879.84020,0.13063
878.80994,0.12840
877.77968,0.12602
876.74942,0.12421
875.71917,0.12341
874.68891,0.12289
873.65865,0.12227
872.62839,0.12229
871.59813,0.12362
870.56788,0.12582
869.53762,0.12780
868.50736,0.12933
867.47710,0.13089
866.44685,0.13270
865.41659,0.13461
864.38633,0.13639
863.35607,0.13752
862.32581,0.13780
861.29556,0.13798
860.26530,0.13877
859.23504,0.14000
858.20478,0.14129
857.17453,0.14252
856.14427,0.14331
855.11401,0.14400
854.08375,0.14549
853.05349,0.14733
852.02324,0.14901
850.99298,0.15088
849.96272,0.15264
848.93246,0.15371
847.90220,0.15434
846.87195,0.15496
845.84169,0.15541
844.81143,0.15545
843.78117,0.15509
842.75092,0.15443
841.72066,0.15328
840.69040,0.15105
839.66014,0.14856
838.62988,0.14674
837.59963,0.14466
836.56937,0.14152
835.53911,0.13776
834.50885,0.13428
833.47859,0.13118
832.44834,0.12807
831.41808,0.12484
830.38782,0.12132
829.35756,0.11776
828.32731,0.11471
827.29705,0.11172
826.26679,0.10848
825.23653,0.10566
824.20627,0.10294
823.17602,0.09969
822.14576,0.09650
821.11550,0.09394
820.08524,0.09155
819.05498,0.08918
818.02473,0.08738
816.99447,0.08622
815.96421,0.08541
814.93395,0.08453
813.90370,0.08337
812.87344,0.08191
811.84318,0.08013
810.81292,0.07873
809.78266,0.07817
808.75241,0.07759
807.72215,0.07616
806.69189,0.07435
805.66163,0.07260
804.63138,0.07075
803.60112,0.06894
802.57086,0.06699
801.54060,0.06461
800.51034,0.06245
799.48009,0.06059
798.44983,0.05820
797.41957,0.05562
796.38931,0.05383
795.35905,0.05263
794.32880,0.05116
793.29854,0.04912
792.26828,0.04653
791.23802,0.04440
790.20777,0.04347
789.17751,0.04226
788.14725,0.04015
787.11699,0.03821
786.08673,0.03666
785.05648,0.03526
784.02622,0.03402
782.99596,0.03278
781.96570,0.03153
780.93544,0.03024
779.90519,0.02888
778.87493,0.02785
777.84467,0.02695
776.81441,0.02585
775.78416,0.02499
774.75390,0.02432
773.72364,0.02362
772.69338,0.02312
771.66312,0.02265
770.63287,0.02216
769.60261,0.02192
768.57235,0.02175
767.54209,0.02138
766.51183,0.02089
765.48158,0.02071
764.45132,0.02113
763.42106,0.02173
762.39080,0.02176
761.36055,0.02112
760.33029,0.02041
759.30003,0.02028
758.26977,0.02056
757.23951,0.02073
756.20926,0.02078
755.17900,0.02073
754.14874,0.02057
753.11848,0.02056
752.08823,0.02063
751.05797,0.02041
750.02771,0.02021
748.99745,0.02055
747.96719,0.02107
746.93694,0.02142
745.90668,0.02136
744.87642,0.02082
743.84616,0.02070
742.81590,0.02119
741.78565,0.02158
740.75539,0.02186
739.72513,0.02201
738.69487,0.02175
737.66462,0.02129
736.63436,0.02107
735.60410,0.02147
734.57384,0.02251
733.54358,0.02344
732.51333,0.02361
731.48307,0.02335
730.45281,0.02306
729.42255,0.02274
728.39229,0.02258
727.36204,0.02247
726.33178,0.02257
725.30152,0.02288
724.27126,0.02298
723.24101,0.02314
722.21075,0.02369
721.18049,0.02427
720.15023,0.02456
719.11997,0.02473
718.08972,0.02500
717.05946,0.02553
716.02920,0.02614
714.99894,0.02634
713.96868,0.02635
712.93843,0.02649
711.90817,0.02646
710.87791,0.02624
709.84765,0.02613
708.81740,0.02634
707.78714,0.02665
706.75688,0.02677
705.72662,0.02693
704.69636,0.02697
703.66611,0.02703
702.63585,0.02747
701.60559,0.02795
700.57533,0.02825
699.54508,0.02850
698.51482,0.02868
697.48456,0.02863
696.45430,0.02881
695.42404,0.02939
694.39379,0.02968
693.36353,0.02936
692.33327,0.02899
691.30301,0.02946
690.27275,0.03043
689.24250,0.03060
688.21224,0.02999
687.18198,0.03006
686.15172,0.03094
685.12147,0.03167
684.09121,0.03224
683.06095,0.03268
682.03069,0.03322
681.00043,0.03401
679.97018,0.03436
678.93992,0.03388
677.90966,0.03351
676.87940,0.03383
675.84914,0.03411
674.81889,0.03417
673.78863,0.03478
672.75837,0.03604
671.72811,0.03658
670.69786,0.03604
669.66760,0.03531
668.63734,0.03432
667.60708,0.03442
666.57682,0.03640
665.54657,0.03793
664.51631,0.03873
663.48605,0.03883
662.45579,0.03861
661.42553,0.03831
660.39528,0.03817
659.36502,0.03870
658.33476,0.03923
657.30450,0.03919
656.27425,0.03949
655.24399,0.04020
654.21373,0.04041
653.18347,0.04026
652.15321,0.04087
651.12296,0.04224
650.09270,0.04318
649.06244,0.04344
648.03218,0.04338
647.00193,0.04330
645.97167,0.04389
644.94141,0.04490
643.91115,0.04528
642.88089,0.04566
641.85064,0.04638
640.82038,0.04646
639.79012,0.04637
638.75986,0.04652
637.72960,0.04653
636.69935,0.04679
635.66909,0.04770
634.63883,0.04858
633.60857,0.04876
632.57832,0.04872
631.54806,0.04907
630.51780,0.04960
629.48754,0.04980
628.45728,0.05018
627.42703,0.05142
626.39677,0.05283
625.36651,0.05349
624.33625,0.05376
623.30599,0.05416
622.27574,0.05404
621.24548,0.05349
620.21522,0.05333
619.18496,0.05369
618.15471,0.05440
617.12445,0.05542
616.09419,0.05660
615.06393,0.05739
614.03367,0.05765
613.00342,0.05807
611.97316,0.05893
610.94290,0.05974
609.91264,0.06018
608.88238,0.06035
607.85213,0.06061
606.82187,0.06098
605.79161,0.06186
604.76135,0.06372
603.73110,0.06557
602.70084,0.06689
601.67058,0.06820
600.64032,0.06920
599.61006,0.06962
598.57981,0.07000
597.54955,0.07079
596.51929,0.07185
595.48903,0.07276
594.45878,0.07332
593.42852,0.07409
592.39826,0.07568
591.36800,0.07741
590.33774,0.07813
589.30749,0.07825
588.27723,0.07862
587.24697,0.07930
586.21671,0.08077
585.18645,0.08347
584.15620,0.08621
583.12594,0.08761
582.09568,0.08858
581.06542,0.08942
580.03517,0.08881
579.00491,0.08832
577.97465,0.09011
576.94439,0.09233
575.91413,0.09307
574.88388,0.09348
573.85362,0.09385
572.82336,0.09386
571.79310,0.09437
570.76284,0.09545
569.73259,0.09642
568.70233,0.09736
567.67207,0.09849
566.64181,0.09956
565.61156,0.10056
564.58130,0.10042
563.55104,0.09880
562.52078,0.09879
561.49052,0.10141
560.46027,0.10314
559.43001,0.10289
558.39975,0.10342
557.36949,0.10518
556.33924,0.10622
555.30898,0.10581
554.27872,0.10569
553.24846,0.10742
552.21820,0.10947
551.18795,0.10958
550.15769,0.10767
549.12743,0.10612
548.09717,0.10585
547.06691,0.10536
546.03666,0.10547
545.00640,0.10771
543.97614,0.10962
542.94588,0.10909
541.91563,0.10773
540.88537,0.10715
539.85511,0.10820
538.82485,0.11055
537.79459,0.11270
536.76434,0.11411
535.73408,0.11443
534.70382,0.11378
533.67356,0.11429
532.64330,0.11663
531.61305,0.11777
530.58279,0.11637
529.55253,0.11500
528.52227,0.11535
527.49202,0.11649
526.46176,0.11709
525.43150,0.11666
524.40124,0.11547
523.37098,0.11481
522.34073,0.11614
521.31047,0.11909
520.28021,0.12092
519.24995,0.12055
518.21969,0.12050
517.18944,0.12191
516.15918,0.12224
515.12892,0.12064
514.09866,0.11930
513.06841,0.11871
512.03815,0.11776
511.00789,0.11656
509.97763,0.11646
508.94737,0.11745
507.91712,0.11777
506.88686,0.11699
505.85660,0.11509
504.82634,0.11206
503.79609,0.11043
502.76583,0.11186
501.73557,0.11269
500.70531,0.11120
499.67505,0.11012
498.64480,0.10936
497.61454,0.10823
496.58428,0.10739
495.55402,0.10641
494.52376,0.10482
493.49351,0.10403
492.46325,0.10397
491.43299,0.10228
490.40273,0.10003
489.37248,0.09987
488.34222,0.10025
487.31196,0.09902
486.28170,0.09806
485.25144,0.09920
484.22119,0.10068
483.19093,0.10035
482.16067,0.09850
481.13041,0.09532
480.10015,0.09220
479.06990,0.09296
478.03964,0.09615
477.00938,0.09622
475.97912,0.09311
474.94887,0.09091
473.91861,0.09138
472.88835,0.09361
471.85809,0.09434
470.82783,0.09195
469.79758,0.09003
468.76732,0.09115
467.73706,0.09294
466.70680,0.09299
465.67654,0.09150
464.64629,0.08918
463.61603,0.08824
462.58577,0.08832
461.55551,0.08747
460.52526,0.08729
459.49500,0.08821
458.46474,0.08808
457.43448,0.08679
456.40422,0.08690
455.37397,0.08781
454.34371,0.08785
453.31345,0.08834
452.28319,0.09002
451.25294,0.09017
450.22268,0.08732
449.19242,0.08330
448.16216,0.08079
447.13190,0.08156
446.10165,0.08327
445.07139,0.08303
444.04113,0.08255
443.01087,0.08284
441.98061,0.08356
440.95036,0.08469
439.92010,0.08450
438.88984,0.08488
437.85958,0.08769
436.82933,0.08775
435.79907,0.08421
434.76881,0.08147
433.73855,0.08022
432.70829,0.08069
431.67804,0.08129
430.64778,0.08213
429.61752,0.08492
428.58726,0.08515
427.55700,0.08003
426.52675,0.07408
425.49649,0.07182
424.46623,0.07290
423.43597,0.07507
422.40572,0.07803
421.37546,0.08110
420.34520,0.08404
419.31494,0.08532
418.28468,0.08238
417.25443,0.07909
416.22417,0.07670
415.19391,0.07506
414.16365,0.07605
413.13339,0.07839
412.10314,0.07904
411.07288,0.07822
410.04262,0.07761
409.01236,0.07856
407.98211,0.07960
406.95185,0.07793
405.92159,0.07677
404.89133,0.07950
403.86107,0.08028
402.83082,0.07567
401.80056,0.07096
400.77030,0.07052
399.74004,0.07650
