4998.81105,0.01288
4997.78079,0.01277
4996.75054,0.01320
4995.72028,0.01373
4994.69002,0.01423
4993.65976,0.01403
4992.62951,0.01344
4991.59925,0.01391
4990.56899,0.01472
4989.53873,0.01453
4988.50847,0.01365
4987.47822,0.01288
4986.44796,0.01280
4985.41770,0.01358
4984.38744,0.01409
4983.35718,0.01441
4982.32693,0.01516
4981.29667,0.01503
4980.26641,0.01388
4979.23615,0.01309
4978.20590,0.01275
4977.17564,0.01259
4976.14538,0.01311
4975.11512,0.01368
4974.08486,0.01387
4973.05461,0.01385
4972.02435,0.01329
4970.99409,0.01283
4969.96383,0.01279
4968.93357,0.01265
4967.90332,0.01279
4966.87306,0.01289
4965.84280,0.01243
4964.81254,0.01250
4963.78229,0.01339
4962.75203,0.01414
4961.72177,0.01408
4960.69151,0.01384
4959.66125,0.01434
4958.63100,0.01472
4957.60074,0.01431
4956.57048,0.01361
4955.54022,0.01273
4954.50997,0.01225
4953.47971,0.01249
4952.44945,0.01251
4951.41919,0.01232
4950.38893,0.01284
4949.35868,0.01342
4948.32842,0.01313
4947.29816,0.01273
4946.26790,0.01314
4945.23764,0.01416
4944.20739,0.01451
4943.17713,0.01355
4942.14687,0.01298
4941.11661,0.01361
4940.08636,0.01416
4939.05610,0.01385
4938.02584,0.01297
4936.99558,0.01263
4935.96532,0.01318
4934.93507,0.01291
4933.90481,0.01144
4932.87455,0.01077
4931.84429,0.01162
4930.81403,0.01317
4929.78378,0.01436
4928.75352,0.01472
4927.72326,0.01528
4926.69300,0.01607
4925.66275,0.01554
4924.63249,0.01391
4923.60223,0.01267
4922.57197,0.01193
4921.54171,0.01162
4920.51146,0.01224
4919.48120,0.01344
4918.45094,0.01419
4917.42068,0.01428
4916.39042,0.01397
4915.36017,0.01340
4914.32991,0.01277
4913.29965,0.01250
4912.26939,0.01287
4911.23914,0.01273
4910.20888,0.01184
4909.17862,0.01241
4908.14836,0.01428
4907.11810,0.01476
4906.08785,0.01418
4905.05759,0.01387
4904.02733,0.01348
4902.99707,0.01343
4901.96682,0.01350
4900.93656,0.01310
4899.90630,0.01304
4898.87604,0.01329
4897.84578,0.01323
4896.81553,0.01327
4895.78527,0.01384
4894.75501,0.01404
4893.72475,0.01374
4892.69449,0.01402
4891.66424,0.01413
4890.63398,0.01307
4889.60372,0.01237
4888.57346,0.01340
4887.54321,0.01475
4886.51295,0.01476
4885.48269,0.01394
4884.45243,0.01352
4883.42217,0.01338
4882.39192,0.01299
4881.36166,0.01296
4880.33140,0.01362
4879.30114,0.01459
4878.27088,0.01499
4877.24063,0.01385
4876.21037,0.01276
4875.18011,0.01324
4874.14985,0.01400
4873.11960,0.01407
4872.08934,0.01407
4871.05908,0.01405
4870.02882,0.01364
4868.99856,0.01314
4867.96831,0.01253
4866.93805,0.01211
4865.90779,0.01261
4864.87753,0.01341
4863.84727,0.01308
4862.81702,0.01221
4861.78676,0.01280
4860.75650,0.01416
4859.72624,0.01427
4858.69599,0.01338
4857.66573,0.01270
4856.63547,0.01252
4855.60521,0.01287
4854.57495,0.01328
4853.54470,0.01275
4852.51444,0.01167
4851.48418,0.01134
4850.45392,0.01225
4849.42367,0.01367
4848.39341,0.01431
4847.36315,0.01411
4846.33289,0.01418
4845.30263,0.01427
4844.27238,0.01381
4843.24212,0.01338
4842.21186,0.01306
4841.18160,0.01298
4840.15134,0.01335
4839.12109,0.01370
4838.09083,0.01396
4837.06057,0.01428
4836.03031,0.01417
4835.00006,0.01308
4833.96980,0.01190
4832.93954,0.01177
4831.90928,0.01249
4830.87902,0.01315
4829.84877,0.01331
4828.81851,0.01330
4827.78825,0.01293
4826.75799,0.01294
4825.72773,0.01409
4824.69748,0.01469
4823.66722,0.01398
4822.63696,0.01315
4821.60670,0.01290
4820.57645,0.01332
4819.54619,0.01372
4818.51593,0.01364
4817.48567,0.01350
4816.45541,0.01337
4815.42516,0.01305
4814.39490,0.01270
4813.36464,0.01258
4812.33438,0.01272
4811.30412,0.01324
4810.27387,0.01424
4809.24361,0.01489
4808.21335,0.01459
4807.18309,0.01372
4806.15284,0.01328
4805.12258,0.01345
4804.09232,0.01313
4803.06206,0.01293
4802.03180,0.01352
4801.00155,0.01355
4799.97129,0.01279
4798.94103,0.01203
4797.91077,0.01191
4796.88052,0.01277
4795.85026,0.01356
4794.82000,0.01370
4793.78974,0.01383
4792.75948,0.01393
4791.72923,0.01381
4790.69897,0.01355
4789.66871,0.01313
4788.63845,0.01299
4787.60819,0.01311
4786.57794,0.01317
4785.54768,0.01353
4784.51742,0.01400
4783.48716,0.01419
4782.45691,0.01443
4781.42665,0.01472
4780.39639,0.01470
4779.36613,0.01481
4778.33587,0.01509
4777.30562,0.01479
4776.27536,0.01444
4775.24510,0.01488
4774.21484,0.01560
4773.18458,0.01560
4772.15433,0.01466
4771.12407,0.01353
4770.09381,0.01253
4769.06355,0.01190
4768.03330,0.01205
4767.00304,0.01276
4765.97278,0.01338
4764.94252,0.01320
4763.91226,0.01269
4762.88201,0.01255
4761.85175,0.01276
4760.82149,0.01314
4759.79123,0.01310
4758.76098,0.01296
4757.73072,0.01350
4756.70046,0.01399
4755.67020,0.01328
4754.63994,0.01229
4753.60969,0.01211
4752.57943,0.01265
4751.54917,0.01375
4750.51891,0.01413
4749.48865,0.01357
4748.45840,0.01343
4747.42814,0.01364
4746.39788,0.01379
4745.36762,0.01399
4744.33737,0.01387
4743.30711,0.01358
4742.27685,0.01340
4741.24659,0.01292
4740.21633,0.01238
4739.18608,0.01246
4738.15582,0.01264
4737.12556,0.01210
4736.09530,0.01151
4735.06504,0.01191
4734.03479,0.01305
4733.00453,0.01375
4731.97427,0.01352
4730.94401,0.01285
4729.91376,0.01268
4728.88350,0.01333
4727.85324,0.01401
4726.82298,0.01391
4725.79272,0.01288
4724.76247,0.01190
4723.73221,0.01184
4722.70195,0.01257
4721.67169,0.01370
4720.64143,0.01473
4719.61118,0.01527
4718.58092,0.01522
4717.55066,0.01479
4716.52040,0.01463
4715.49015,0.01451
4714.45989,0.01355
4713.42963,0.01254
4712.39937,0.01264
4711.36911,0.01347
4710.33886,0.01388
4709.30860,0.01387
4708.27834,0.01430
4707.24808,0.01464
4706.21783,0.01428
4705.18757,0.01386
4704.15731,0.01348
4703.12705,0.01329
4702.09679,0.01367
4701.06654,0.01396
4700.03628,0.01363
4699.00602,0.01292
4697.97576,0.01252
4696.94550,0.01295
4695.91525,0.01386
4694.88499,0.01468
4693.85473,0.01502
4692.82447,0.01471
4691.79422,0.01384
4690.76396,0.01329
4689.73370,0.01369
4688.70344,0.01419
4687.67318,0.01417
4686.64293,0.01384
4685.61267,0.01359
4684.58241,0.01396
4683.55215,0.01426
4682.52189,0.01378
4681.49164,0.01328
4680.46138,0.01360
4679.43112,0.01438
4678.40086,0.01479
4677.37061,0.01503
4676.34035,0.01483
4675.31009,0.01409
4674.27983,0.01368
4673.24957,0.01372
4672.21932,0.01373
4671.18906,0.01303
4670.15880,0.01238
4669.12854,0.01285
4668.09828,0.01329
4667.06803,0.01306
4666.03777,0.01313
4665.00751,0.01379
4663.97725,0.01435
4662.94700,0.01422
4661.91674,0.01361
4660.88648,0.01320
4659.85622,0.01325
4658.82596,0.01376
4657.79571,0.01471
4656.76545,0.01523
4655.73519,0.01450
4654.70493,0.01315
4653.67468,0.01225
4652.64442,0.01202
4651.61416,0.01192
4650.58390,0.01203
4649.55364,0.01286
4648.52339,0.01333
4647.49313,0.01276
4646.46287,0.01210
4645.43261,0.01199
4644.40235,0.01221
4643.37210,0.01246
4642.34184,0.01287
4641.31158,0.01306
4640.28132,0.01256
4639.25107,0.01188
4638.22081,0.01182
4637.19055,0.01241
4636.16029,0.01259
4635.13003,0.01237
4634.09978,0.01248
4633.06952,0.01275
4632.03926,0.01318
4631.00900,0.01386
4629.97874,0.01429
4628.94849,0.01403
4627.91823,0.01361
4626.88797,0.01365
4625.85771,0.01377
4624.82746,0.01368
4623.79720,0.01344
4622.76694,0.01331
4621.73668,0.01401
4620.70642,0.01517
4619.67617,0.01489
4618.64591,0.01262
4617.61565,0.01081
4616.58539,0.01147
4615.55513,0.01303
4614.52488,0.01361
4613.49462,0.01348
4612.46436,0.01327
4611.43410,0.01308
4610.40385,0.01304
4609.37359,0.01299
4608.34333,0.01300
4607.31307,0.01327
4606.28281,0.01351
4605.25256,0.01403
4604.22230,0.01421
4603.19204,0.01328
4602.16178,0.01242
4601.13153,0.01228
4600.10127,0.01237
4599.07101,0.01251
4598.04075,0.01263
4597.01049,0.01294
4595.98024,0.01316
4594.94998,0.01292
4593.91972,0.01276
4592.88946,0.01270
4591.85920,0.01220
4590.82895,0.01162
4589.79869,0.01183
4588.76843,0.01272
4587.73817,0.01373
4586.70792,0.01432
4585.67766,0.01408
4584.64740,0.01345
4583.61714,0.01292
4582.58688,0.01272
4581.55663,0.01281
4580.52637,0.01274
4579.49611,0.01243
4578.46585,0.01172
4577.43559,0.01112
4576.40534,0.01171
4575.37508,0.01283
4574.34482,0.01333
4573.31456,0.01356
4572.28431,0.01355
4571.25405,0.01313
4570.22379,0.01284
4569.19353,0.01295
4568.16327,0.01321
4567.13302,0.01334
4566.10276,0.01321
4565.07250,0.01294
4564.04224,0.01271
4563.01198,0.01267
4561.98173,0.01282
4560.95147,0.01316
4559.92121,0.01379
4558.89095,0.01405
4557.86070,0.01356
4556.83044,0.01281
4555.80018,0.01215
4554.76992,0.01232
4553.73966,0.01313
4552.70941,0.01361
4551.67915,0.01371
4550.64889,0.01363
4549.61863,0.01313
4548.58838,0.01231
4547.55812,0.01204
4546.52786,0.01221
4545.49760,0.01213
4544.46734,0.01244
4543.43709,0.01313
4542.40683,0.01341
4541.37657,0.01338
4540.34631,0.01319
4539.31605,0.01292
4538.28580,0.01314
4537.25554,0.01368
4536.22528,0.01359
4535.19502,0.01269
4534.16477,0.01194
4533.13451,0.01176
4532.10425,0.01164
4531.07399,0.01197
4530.04373,0.01298
4529.01348,0.01353
4527.98322,0.01331
4526.95296,0.01327
4525.92270,0.01361
4524.89244,0.01378
4523.86219,0.01373
4522.83193,0.01337
4521.80167,0.01325
4520.77141,0.01383
4519.74116,0.01391
4518.71090,0.01348
4517.68064,0.01348
4516.65038,0.01351
4515.62012,0.01338
4514.58987,0.01354
4513.55961,0.01388
4512.52935,0.01386
4511.49909,0.01373
4510.46883,0.01404
4509.43858,0.01448
4508.40832,0.01476
4507.37806,0.01484
4506.34780,0.01481
4505.31755,0.01455
4504.28729,0.01372
4503.25703,0.01266
4502.22677,0.01232
4501.19651,0.01279
4500.16626,0.01332
4499.13600,0.01374
4498.10574,0.01416
4497.07548,0.01438
4496.04523,0.01426
4495.01497,0.01417
4493.98471,0.01442
4492.95445,0.01448
4491.92419,0.01422
4490.89394,0.01396
4489.86368,0.01341
4488.83342,0.01286
4487.80316,0.01316
4486.77290,0.01394
4485.74265,0.01438
4484.71239,0.01445
4483.68213,0.01419
4482.65187,0.01372
4481.62162,0.01367
4480.59136,0.01378
4479.56110,0.01396
4478.53084,0.01456
4477.50058,0.01489
4476.47033,0.01493
4475.44007,0.01486
4474.40981,0.01442
4473.37955,0.01437
4472.34929,0.01494
4471.31904,0.01494
4470.28878,0.01443
4469.25852,0.01448
4468.22826,0.01508
4467.19801,0.01556
4466.16775,0.01557
4465.13749,0.01562
4464.10723,0.01590
4463.07697,0.01599
4462.04672,0.01629
4461.01646,0.01660
4459.98620,0.01602
4458.95594,0.01526
4457.92568,0.01509
4456.89543,0.01517
4455.86517,0.01525
4454.83491,0.01518
4453.80465,0.01499
4452.77440,0.01483
4451.74414,0.01456
4450.71388,0.01440
4449.68362,0.01472
4448.65336,0.01518
4447.62311,0.01537
4446.59285,0.01527
4445.56259,0.01512
4444.53233,0.01486
4443.50208,0.01431
4442.47182,0.01414
4441.44156,0.01440
4440.41130,0.01460
4439.38104,0.01463
4438.35079,0.01427
4437.32053,0.01393
4436.29027,0.01389
4435.26001,0.01392
4434.22975,0.01407
4433.19950,0.01435
4432.16924,0.01476
4431.13898,0.01511
4430.10872,0.01517
4429.07847,0.01530
4428.04821,0.01546
4427.01795,0.01522
4425.98769,0.01519
4424.95743,0.01552
4423.92718,0.01559
4422.89692,0.01548
4421.86666,0.01548
4420.83640,0.01567
4419.80614,0.01607
4418.77589,0.01620
4417.74563,0.01553
4416.71537,0.01460
4415.68511,0.01432
4414.65486,0.01472
4413.62460,0.01535
4412.59434,0.01603
4411.56408,0.01597
4410.53382,0.01523
4409.50357,0.01535
4408.47331,0.01619
4407.44305,0.01676
4406.41279,0.01678
4405.38253,0.01633
4404.35228,0.01593
4403.32202,0.01558
4402.29176,0.01513
4401.26150,0.01491
4400.23125,0.01511
4399.20099,0.01527
4398.17073,0.01475
4397.14047,0.01423
4396.11021,0.01477
4395.07996,0.01539
4394.04970,0.01522
4393.01944,0.01495
4391.98918,0.01494
4390.95893,0.01506
4389.92867,0.01500
4388.89841,0.01458
4387.86815,0.01458
4386.83789,0.01517
4385.80764,0.01550
4384.77738,0.01550
4383.74712,0.01560
4382.71686,0.01530
4381.68660,0.01422
4380.65635,0.01316
4379.62609,0.01302
4378.59583,0.01353
4377.56557,0.01388
4376.53532,0.01385
4375.50506,0.01345
4374.47480,0.01258
4373.44454,0.01217
4372.41428,0.01301
4371.38403,0.01417
4370.35377,0.01457
4369.32351,0.01418
4368.29325,0.01378
4367.26299,0.01379
4366.23274,0.01382
4365.20248,0.01361
4364.17222,0.01294
4363.14196,0.01225
4362.11171,0.01242
4361.08145,0.01325
4360.05119,0.01376
4359.02093,0.01374
4357.99067,0.01376
4356.96042,0.01382
4355.93016,0.01386
4354.89990,0.01390
4353.86964,0.01363
4352.83939,0.01344
4351.80913,0.01334
4350.77887,0.01293
4349.74861,0.01284
4348.71835,0.01315
4347.68810,0.01333
4346.65784,0.01332
4345.62758,0.01334
4344.59732,0.01359
4343.56706,0.01387
4342.53681,0.01397
4341.50655,0.01399
4340.47629,0.01366
4339.44603,0.01306
4338.41578,0.01285
4337.38552,0.01325
4336.35526,0.01390
4335.32500,0.01399
4334.29474,0.01336
4333.26449,0.01309
4332.23423,0.01351
4331.20397,0.01380
4330.17371,0.01382
4329.14345,0.01381
4328.11320,0.01400
4327.08294,0.01428
4326.05268,0.01405
4325.02242,0.01383
4323.99217,0.01379
4322.96191,0.01316
4321.93165,0.01253
4320.90139,0.01268
4319.87113,0.01312
4318.84088,0.01333
4317.81062,0.01352
4316.78036,0.01384
4315.75010,0.01406
4314.71984,0.01402
4313.68959,0.01381
4312.65933,0.01359
4311.62907,0.01376
4310.59881,0.01416
4309.56856,0.01401
4308.53830,0.01353
4307.50804,0.01356
4306.47778,0.01401
4305.44752,0.01421
4304.41727,0.01410
4303.38701,0.01393
4302.35675,0.01397
4301.32649,0.01417
4300.29624,0.01422
4299.26598,0.01404
4298.23572,0.01353
4297.20546,0.01305
4296.17520,0.01323
4295.14495,0.01375
4294.11469,0.01383
4293.08443,0.01375
4292.05417,0.01405
4291.02391,0.01465
4289.99366,0.01487
4288.96340,0.01421
4287.93314,0.01353
4286.90288,0.01351
4285.87263,0.01365
4284.84237,0.01381
4283.81211,0.01377
4282.78185,0.01321
4281.75159,0.01293
4280.72134,0.01345
4279.69108,0.01411
4278.66082,0.01443
4277.63056,0.01460
4276.60030,0.01466
4275.57005,0.01464
4274.53979,0.01459
4273.50953,0.01427
4272.47927,0.01404
4271.44902,0.01425
4270.41876,0.01427
4269.38850,0.01406
4268.35824,0.01422
4267.32798,0.01443
4266.29773,0.01418
4265.26747,0.01378
4264.23721,0.01384
4263.20695,0.01401
4262.17669,0.01375
4261.14644,0.01365
4260.11618,0.01411
4259.08592,0.01433
4258.05566,0.01390
4257.02541,0.01346
4255.99515,0.01361
4254.96489,0.01420
4253.93463,0.01444
4252.90437,0.01411
4251.87412,0.01399
4250.84386,0.01408
4249.81360,0.01370
4248.78334,0.01321
4247.75309,0.01316
4246.72283,0.01359
4245.69257,0.01432
4244.66231,0.01486
4243.63205,0.01489
4242.60180,0.01426
4241.57154,0.01347
4240.54128,0.01297
4239.51102,0.01262
4238.48076,0.01264
4237.45051,0.01320
4236.42025,0.01389
4235.38999,0.01409
4234.35973,0.01393
4233.32948,0.01395
4232.29922,0.01417
4231.26896,0.01429
4230.23870,0.01395
4229.20844,0.01334
4228.17819,0.01329
4227.14793,0.01386
4226.11767,0.01428
4225.08741,0.01448
4224.05715,0.01465
4223.02690,0.01440
4221.99664,0.01400
4220.96638,0.01426
4219.93612,0.01475
4218.90587,0.01450
4217.87561,0.01385
4216.84535,0.01368
4215.81509,0.01358
4214.78483,0.01307
4213.75458,0.01253
4212.72432,0.01257
4211.69406,0.01314
4210.66380,0.01343
4209.63354,0.01325
4208.60329,0.01319
4207.57303,0.01330
4206.54277,0.01321
4205.51251,0.01299
4204.48226,0.01313
4203.45200,0.01368
4202.42174,0.01385
4201.39148,0.01335
4200.36122,0.01288
4199.33097,0.01295
4198.30071,0.01321
4197.27045,0.01319
4196.24019,0.01322
4195.20994,0.01351
4194.17968,0.01361
4193.14942,0.01333
4192.11916,0.01315
4191.08890,0.01307
4190.05865,0.01267
4189.02839,0.01242
4187.99813,0.01275
4186.96787,0.01313
4185.93761,0.01316
4184.90736,0.01293
4183.87710,0.01280
4182.84684,0.01295
4181.81658,0.01280
4180.78633,0.01226
4179.75607,0.01222
4178.72581,0.01275
4177.69555,0.01314
4176.66529,0.01306
4175.63504,0.01309
4174.60478,0.01386
4173.57452,0.01466
4172.54426,0.01439
4171.51400,0.01332
4170.48375,0.01252
4169.45349,0.01243
4168.42323,0.01288
4167.39297,0.01355
4166.36272,0.01404
4165.33246,0.01410
4164.30220,0.01405
4163.27194,0.01414
4162.24168,0.01407
4161.21143,0.01380
4160.18117,0.01361
4159.15091,0.01360
4158.12065,0.01380
4157.09039,0.01414
4156.06014,0.01438
4155.02988,0.01431
4153.99962,0.01416
4152.96936,0.01443
4151.93911,0.01467
4150.90885,0.01430
4149.87859,0.01391
4148.84833,0.01393
4147.81807,0.01418
4146.78782,0.01440
4145.75756,0.01433
4144.72730,0.01408
4143.69704,0.01381
4142.66679,0.01376
4141.63653,0.01397
4140.60627,0.01428
4139.57601,0.01450
4138.54575,0.01433
4137.51550,0.01387
4136.48524,0.01353
4135.45498,0.01365
4134.42472,0.01390
4133.39446,0.01378
4132.36421,0.01369
4131.33395,0.01359
4130.30369,0.01314
4129.27343,0.01289
4128.24318,0.01306
4127.21292,0.01320
4126.18266,0.01316
4125.15240,0.01302
4124.12214,0.01288
4123.09189,0.01290
4122.06163,0.01305
4121.03137,0.01300
4120.00111,0.01276
4118.97085,0.01280
4117.94060,0.01319
4116.91034,0.01343
4115.88008,0.01300
4114.84982,0.01227
4113.81957,0.01232
4112.78931,0.01285
4111.75905,0.01276
4110.72879,0.01246
4109.69853,0.01266
4108.66828,0.01274
4107.63802,0.01245
4106.60776,0.01239
4105.57750,0.01269
4104.54724,0.01328
4103.51699,0.01388
4102.48673,0.01403
4101.45647,0.01377
4100.42621,0.01328
4099.39596,0.01267
4098.36570,0.01223
4097.33544,0.01229
4096.30518,0.01289
4095.27492,0.01360
4094.24467,0.01370
4093.21441,0.01316
4092.18415,0.01297
4091.15389,0.01338
4090.12364,0.01359
4089.09338,0.01327
4088.06312,0.01241
4087.03286,0.01181
4086.00260,0.01252
4084.97235,0.01347
4083.94209,0.01350
4082.91183,0.01331
4081.88157,0.01338
4080.85131,0.01341
4079.82106,0.01324
4078.79080,0.01278
4077.76054,0.01225
4076.73028,0.01208
4075.70003,0.01231
4074.66977,0.01236
4073.63951,0.01194
4072.60925,0.01189
4071.57899,0.01240
4070.54874,0.01265
4069.51848,0.01263
4068.48822,0.01261
4067.45796,0.01235
4066.42770,0.01215
4065.39745,0.01235
4064.36719,0.01251
4063.33693,0.01245
4062.30667,0.01245
4061.27642,0.01261
4060.24616,0.01270
4059.21590,0.01266
4058.18564,0.01286
4057.15538,0.01342
4056.12513,0.01378
4055.09487,0.01347
4054.06461,0.01299
4053.03435,0.01300
4052.00409,0.01322
4050.97384,0.01297
4049.94358,0.01246
4048.91332,0.01266
4047.88306,0.01326
4046.85281,0.01366
4045.82255,0.01382
4044.79229,0.01342
4043.76203,0.01267
4042.73177,0.01245
4041.70152,0.01287
4040.67126,0.01325
4039.64100,0.01336
4038.61074,0.01341
4037.58049,0.01320
4036.55023,0.01301
4035.51997,0.01309
4034.48971,0.01292
4033.45945,0.01264
4032.42920,0.01263
4031.39894,0.01273
4030.36868,0.01288
4029.33842,0.01286
4028.30816,0.01269
4027.27791,0.01269
4026.24765,0.01277
4025.21739,0.01289
4024.18713,0.01308
4023.15688,0.01326
4022.12662,0.01334
4021.09636,0.01301
4020.06610,0.01255
4019.03584,0.01257
4018.00559,0.01299
4016.97533,0.01341
4015.94507,0.01350
4014.91481,0.01309
4013.88455,0.01258
4012.85430,0.01268
4011.82404,0.01323
4010.79378,0.01352
4009.76352,0.01363
4008.73327,0.01386
4007.70301,0.01390
4006.67275,0.01351
4005.64249,0.01309
4004.61223,0.01288
4003.58198,0.01274
4002.55172,0.01284
4001.52146,0.01297
4000.49120,0.01261
3999.46095,0.01225
3998.43069,0.01242
3997.40043,0.01267
3996.37017,0.01295
3995.33991,0.01322
3994.30966,0.01303
3993.27940,0.01263
3992.24914,0.01254
3991.21888,0.01267
3990.18862,0.01280
3989.15837,0.01309
3988.12811,0.01338
3987.09785,0.01332
3986.06759,0.01271
3985.03734,0.01217
3984.00708,0.01253
3982.97682,0.01313
3981.94656,0.01305
3980.91630,0.01288
3979.88605,0.01316
3978.85579,0.01331
3977.82553,0.01305
3976.79527,0.01269
3975.76501,0.01262
3974.73476,0.01278
3973.70450,0.01280
3972.67424,0.01284
3971.64398,0.01302
3970.61373,0.01298
3969.58347,0.01247
3968.55321,0.01193
3967.52295,0.01173
3966.49269,0.01205
3965.46244,0.01281
3964.43218,0.01314
3963.40192,0.01296
3962.37166,0.01310
3961.34140,0.01333
3960.31115,0.01288
3959.28089,0.01232
3958.25063,0.01247
3957.22037,0.01282
3956.19012,0.01276
3955.15986,0.01264
3954.12960,0.01245
3953.09934,0.01208
3952.06908,0.01193
3951.03883,0.01216
3950.00857,0.01300
3948.97831,0.01390
3947.94805,0.01380
3946.91780,0.01301
3945.88754,0.01243
3944.85728,0.01220
3943.82702,0.01220
3942.79676,0.01247
3941.76651,0.01264
3940.73625,0.01258
3939.70599,0.01264
3938.67573,0.01256
3937.64547,0.01221
3936.61522,0.01228
3935.58496,0.01268
3934.55470,0.01284
3933.52444,0.01293
3932.49419,0.01309
3931.46393,0.01314
3930.43367,0.01282
3929.40341,0.01225
3928.37315,0.01194
3927.34290,0.01199
3926.31264,0.01226
3925.28238,0.01270
3924.25212,0.01308
3923.22186,0.01311
3922.19161,0.01295
3921.16135,0.01290
3920.13109,0.01276
3919.10083,0.01272
3918.07058,0.01300
3917.04032,0.01315
3916.01006,0.01285
3914.97980,0.01230
3913.94954,0.01202
3912.91929,0.01221
3911.88903,0.01253
3910.85877,0.01249
3909.82851,0.01211
3908.79825,0.01182
3907.76800,0.01181
3906.73774,0.01214
3905.70748,0.01267
3904.67722,0.01287
3903.64697,0.01284
3902.61671,0.01312
3901.58645,0.01349
3900.55619,0.01395
3899.52593,0.01419
3898.49568,0.01361
3897.46542,0.01287
3896.43516,0.01242
3895.40490,0.01208
3894.37465,0.01183
3893.34439,0.01210
3892.31413,0.01290
3891.28387,0.01327
3890.25361,0.01290
3889.22336,0.01283
3888.19310,0.01314
3887.16284,0.01332
3886.13258,0.01333
3885.10232,0.01315
3884.07207,0.01281
3883.04181,0.01266
3882.01155,0.01303
3880.98129,0.01338
3879.95104,0.01278
3878.92078,0.01196
3877.89052,0.01173
3876.86026,0.01171
3875.83000,0.01193
3874.79975,0.01268
3873.76949,0.01324
3872.73923,0.01285
3871.70897,0.01239
3870.67871,0.01269
3869.64846,0.01353
3868.61820,0.01359
3867.58794,0.01284
3866.55768,0.01226
3865.52743,0.01236
3864.49717,0.01243
3863.46691,0.01172
3862.43665,0.01103
3861.40639,0.01108
3860.37614,0.01161
3859.34588,0.01179
3858.31562,0.01159
3857.28536,0.01175
3856.25510,0.01228
3855.22485,0.01279
3854.19459,0.01365
3853.16433,0.01470
3852.13407,0.01461
3851.10382,0.01352
3850.07356,0.01265
3849.04330,0.01252
3848.01304,0.01248
3846.98278,0.01227
3845.95253,0.01231
3844.92227,0.01257
3843.89201,0.01296
3842.86175,0.01320
3841.83150,0.01317
3840.80124,0.01336
3839.77098,0.01405
3838.74072,0.01476
3837.71046,0.01472
3836.68021,0.01404
3835.64995,0.01327
3834.61969,0.01247
3833.58943,0.01197
3832.55917,0.01226
3831.52892,0.01276
3830.49866,0.01236
3829.46840,0.01163
3828.43814,0.01155
3827.40789,0.01199
3826.37763,0.01236
3825.34737,0.01259
3824.31711,0.01270
3823.28685,0.01258
3822.25660,0.01240
3821.22634,0.01286
3820.19608,0.01349
3819.16582,0.01307
3818.13556,0.01267
3817.10531,0.01312
3816.07505,0.01357
3815.04479,0.01312
3814.01453,0.01258
3812.98428,0.01224
3811.95402,0.01191
3810.92376,0.01183
3809.89350,0.01178
3808.86324,0.01175
3807.83299,0.01195
3806.80273,0.01192
3805.77247,0.01191
3804.74221,0.01270
3803.71195,0.01374
3802.68170,0.01396
3801.65144,0.01319
3800.62118,0.01242
3799.59092,0.01203
3798.56067,0.01187
3797.53041,0.01223
3796.50015,0.01299
3795.46989,0.01314
3794.43963,0.01253
3793.40938,0.01202
3792.37912,0.01199
3791.34886,0.01213
3790.31860,0.01212
3789.28835,0.01196
3788.25809,0.01191
3787.22783,0.01214
3786.19757,0.01226
3785.16731,0.01212
3784.13706,0.01210
3783.10680,0.01230
3782.07654,0.01233
3781.04628,0.01213
3780.01602,0.01205
3778.98577,0.01205
3777.95551,0.01212
3776.92525,0.01247
3775.89499,0.01279
3774.86474,0.01276
3773.83448,0.01242
3772.80422,0.01204
3771.77396,0.01173
3770.74370,0.01177
3769.71345,0.01240
3768.68319,0.01305
3767.65293,0.01333
3766.62267,0.01309
3765.59241,0.01270
3764.56216,0.01252
3763.53190,0.01235
3762.50164,0.01237
3761.47138,0.01252
3760.44113,0.01285
3759.41087,0.01306
3758.38061,0.01265
3757.35035,0.01245
3756.32009,0.01272
3755.28984,0.01285
3754.25958,0.01299
3753.22932,0.01357
3752.19906,0.01447
3751.16880,0.01522
3750.13855,0.01542
3749.10829,0.01444
3748.07803,0.01329
3747.04777,0.01334
3746.01752,0.01375
3744.98726,0.01352
3743.95700,0.01285
3742.92674,0.01272
3741.89648,0.01275
3740.86623,0.01260
3739.83597,0.01270
3738.80571,0.01325
3737.77545,0.01343
3736.74520,0.01327
3735.71494,0.01346
3734.68468,0.01366
3733.65442,0.01390
3732.62416,0.01410
3731.59391,0.01372
3730.56365,0.01306
3729.53339,0.01251
3728.50313,0.01246
3727.47287,0.01310
3726.44262,0.01390
3725.41236,0.01402
3724.38210,0.01318
3723.35184,0.01238
3722.32159,0.01252
3721.29133,0.01308
3720.26107,0.01336
3719.23081,0.01334
3718.20055,0.01286
3717.17030,0.01214
3716.14004,0.01176
3715.10978,0.01187
3714.07952,0.01228
3713.04926,0.01282
3712.01901,0.01325
3710.98875,0.01354
3709.95849,0.01371
3708.92823,0.01366
3707.89798,0.01345
3706.86772,0.01307
3705.83746,0.01277
3704.80720,0.01255
3703.77694,0.01229
3702.74669,0.01248
3701.71643,0.01288
3700.68617,0.01256
3699.65591,0.01198
3698.62565,0.01179
3697.59540,0.01196
3696.56514,0.01221
3695.53488,0.01230
3694.50462,0.01220
3693.47437,0.01218
3692.44411,0.01249
3691.41385,0.01297
3690.38359,0.01346
3689.35333,0.01397
3688.32308,0.01381
3687.29282,0.01301
3686.26256,0.01258
3685.23230,0.01232
3684.20205,0.01190
3683.17179,0.01179
3682.14153,0.01220
3681.11127,0.01255
3680.08101,0.01250
3679.05076,0.01239
3678.02050,0.01268
3676.99024,0.01343
3675.95998,0.01450
3674.92972,0.01459
3673.89947,0.01324
3672.86921,0.01237
3671.83895,0.01280
3670.80869,0.01405
3669.77844,0.01450
3668.74818,0.01360
3667.71792,0.01218
3666.68766,0.01131
3665.65740,0.01134
3664.62715,0.01186
3663.59689,0.01221
3662.56663,0.01209
3661.53637,0.01196
3660.50611,0.01189
3659.47586,0.01184
3658.44560,0.01180
3657.41534,0.01168
3656.38508,0.01174
3655.35483,0.01227
3654.32457,0.01274
3653.29431,0.01288
3652.26405,0.01325
3651.23379,0.01423
3650.20354,0.01503
3649.17328,0.01483
3648.14302,0.01424
3647.11276,0.01384
3646.08250,0.01352
3645.05225,0.01319
3644.02199,0.01293
3642.99173,0.01285
3641.96147,0.01275
3640.93122,0.01233
3639.90096,0.01177
3638.87070,0.01169
3637.84044,0.01230
3636.81018,0.01276
3635.77993,0.01264
3634.74967,0.01257
3633.71941,0.01256
3632.68915,0.01252
3631.65890,0.01306
3630.62864,0.01410
3629.59838,0.01513
3628.56812,0.01531
3627.53786,0.01424
3626.50761,0.01333
3625.47735,0.01328
3624.44709,0.01353
3623.41683,0.01356
3622.38657,0.01330
3621.35632,0.01273
3620.32606,0.01233
3619.29580,0.01268
3618.26554,0.01308
3617.23529,0.01300
3616.20503,0.01308
3615.17477,0.01353
3614.14451,0.01390
3613.11425,0.01377
3612.08400,0.01337
3611.05374,0.01342
3610.02348,0.01386
3608.99322,0.01396
3607.96296,0.01383
3606.93271,0.01401
3605.90245,0.01422
3604.87219,0.01407
3603.84193,0.01378
3602.81168,0.01378
3601.78142,0.01406
3600.75116,0.01435
3599.72090,0.01470
3598.69064,0.01495
3597.66039,0.01491
3596.63013,0.01487
3595.59987,0.01492
3594.56961,0.01488
3593.53936,0.01473
3592.50910,0.01458
3591.47884,0.01435
3590.44858,0.01443
3589.41832,0.01531
3588.38807,0.01638
3587.35781,0.01637
3586.32755,0.01561
3585.29729,0.01525
3584.26703,0.01520
3583.23678,0.01494
3582.20652,0.01460
3581.17626,0.01458
3580.14600,0.01467
3579.11575,0.01475
3578.08549,0.01507
3577.05523,0.01529
3576.02497,0.01511
3574.99471,0.01506
3573.96446,0.01555
3572.93420,0.01585
3571.90394,0.01548
3570.87368,0.01503
3569.84342,0.01499
3568.81317,0.01538
3567.78291,0.01596
3566.75265,0.01657
3565.72239,0.01729
3564.69214,0.01750
3563.66188,0.01674
3562.63162,0.01587
3561.60136,0.01585
3560.57110,0.01641
3559.54085,0.01652
3558.51059,0.01616
3557.48033,0.01618
3556.45007,0.01683
3555.41981,0.01744
3554.38956,0.01762
3553.35930,0.01779
3552.32904,0.01812
3551.29878,0.01845
3550.26853,0.01863
3549.23827,0.01883
3548.20801,0.01923
3547.17775,0.01930
3546.14749,0.01897
3545.11724,0.01852
3544.08698,0.01814
3543.05672,0.01818
3542.02646,0.01832
3540.99621,0.01822
3539.96595,0.01839
3538.93569,0.01888
3537.90543,0.01924
3536.87517,0.01961
3535.84492,0.01998
3534.81466,0.01997
3533.78440,0.01976
3532.75414,0.01976
3531.72388,0.02021
3530.69363,0.02094
3529.66337,0.02124
3528.63311,0.02090
3527.60285,0.02086
3526.57260,0.02138
3525.54234,0.02162
3524.51208,0.02151
3523.48182,0.02147
3522.45156,0.02161
3521.42131,0.02202
3520.39105,0.02259
3519.36079,0.02283
3518.33053,0.02244
3517.30027,0.02198
3516.27002,0.02241
3515.23976,0.02335
3514.20950,0.02389
3513.17924,0.02427
3512.14899,0.02466
3511.11873,0.02468
3510.08847,0.02463
3509.05821,0.02498
3508.02795,0.02544
3506.99770,0.02595
3505.96744,0.02654
3504.93718,0.02679
3503.90692,0.02662
3502.87666,0.02632
3501.84641,0.02639
3500.81615,0.02682
3499.78589,0.02721
3498.75563,0.02716
3497.72538,0.02688
3496.69512,0.02704
3495.66486,0.02753
3494.63460,0.02791
3493.60434,0.02800
3492.57409,0.02783
3491.54383,0.02808
3490.51357,0.02903
3489.48331,0.02982
3488.45306,0.03007
3487.42280,0.03026
3486.39254,0.03045
3485.36228,0.03059
3484.33202,0.03077
3483.30177,0.03109
3482.27151,0.03148
3481.24125,0.03152
3480.21099,0.03145
3479.18073,0.03181
3478.15048,0.03234
3477.12022,0.03255
3476.08996,0.03266
3475.05970,0.03319
3474.02945,0.03402
3472.99919,0.03463
3471.96893,0.03480
3470.93867,0.03489
3469.90841,0.03516
3468.87816,0.03559
3467.84790,0.03635
3466.81764,0.03706
3465.78738,0.03723
3464.75712,0.03719
3463.72687,0.03736
3462.69661,0.03772
3461.66635,0.03812
3460.63609,0.03849
3459.60584,0.03886
3458.57558,0.03923
3457.54532,0.03980
3456.51506,0.04036
3455.48480,0.04063
3454.45455,0.04097
3453.42429,0.04159
3452.39403,0.04218
3451.36377,0.04259
3450.33351,0.04305
3449.30326,0.04328
3448.27300,0.04330
3447.24274,0.04371
3446.21248,0.04477
3445.18223,0.04601
3444.15197,0.04669
3443.12171,0.04697
3442.09145,0.04728
3441.06119,0.04768
3440.03094,0.04837
3439.00068,0.04928
3437.97042,0.04997
3436.94016,0.05032
3435.90991,0.05055
3434.87965,0.05065
3433.84939,0.05078
3432.81913,0.05157
3431.78887,0.05275
3430.75862,0.05323
3429.72836,0.05341
3428.69810,0.05440
3427.66784,0.05600
3426.63758,0.05718
3425.60733,0.05778
3424.57707,0.05818
3423.54681,0.05842
3422.51655,0.05910
3421.48630,0.06039
3420.45604,0.06121
3419.42578,0.06171
3418.39552,0.06241
3417.36526,0.06303
3416.33501,0.06365
3415.30475,0.06448
3414.27449,0.06532
3413.24423,0.06615
3412.21397,0.06730
3411.18372,0.06851
3410.15346,0.06931
3409.12320,0.06982
3408.09294,0.07050
3407.06269,0.07144
3406.03243,0.07218
3405.00217,0.07268
3403.97191,0.07339
3402.94165,0.07438
3401.91140,0.07533
3400.88114,0.07600
3399.85088,0.07665
3398.82062,0.07782
3397.79036,0.07920
3396.76011,0.08016
3395.72985,0.08069
3394.69959,0.08106
3393.66933,0.08167
3392.63908,0.08264
3391.60882,0.08360
3390.57856,0.08424
3389.54830,0.08477
3388.51804,0.08574
3387.48779,0.08691
3386.45753,0.08748
3385.42727,0.08776
3384.39701,0.08859
3383.36676,0.08983
3382.33650,0.09063
3381.30624,0.09086
3380.27598,0.09106
3379.24572,0.09165
3378.21547,0.09270
3377.18521,0.09359
3376.15495,0.09378
3375.12469,0.09399
3374.09443,0.09470
3373.06418,0.09556
3372.03392,0.09616
3371.00366,0.09624
3369.97340,0.09636
3368.94315,0.09714
3367.91289,0.09789
3366.88263,0.09826
3365.85237,0.09852
3364.82211,0.09867
3363.79186,0.09901
3362.76160,0.09978
3361.73134,0.10053
3360.70108,0.10101
3359.67082,0.10145
3358.64057,0.10203
3357.61031,0.10279
3356.58005,0.10345
3355.54979,0.10351
3354.51954,0.10338
3353.48928,0.10387
3352.45902,0.10484
3351.42876,0.10525
3350.39850,0.10523
3349.36825,0.10565
3348.33799,0.10616
3347.30773,0.10639
3346.27747,0.10659
3345.24721,0.10661
3344.21696,0.10683
3343.18670,0.10744
3342.15644,0.10776
3341.12618,0.10778
3340.09593,0.10778
3339.06567,0.10784
3338.03541,0.10802
3337.00515,0.10820
3335.97489,0.10818
3334.94464,0.10798
3333.91438,0.10783
3332.88412,0.10762
3331.85386,0.10733
3330.82361,0.10715
3329.79335,0.10697
3328.76309,0.10681
3327.73283,0.10676
3326.70257,0.10685
3325.67232,0.10688
3324.64206,0.10643
3323.61180,0.10579
3322.58154,0.10551
3321.55128,0.10533
3320.52103,0.10476
3319.49077,0.10421
3318.46051,0.10398
3317.43025,0.10347
3316.40000,0.10273
3315.36974,0.10221
3314.33948,0.10179
3313.30922,0.10154
3312.27896,0.10107
3311.24871,0.10004
3310.21845,0.09945
3309.18819,0.09962
3308.15793,0.09932
3307.12767,0.09818
3306.09742,0.09710
3305.06716,0.09653
3304.03690,0.09622
3303.00664,0.09569
3301.97639,0.09510
3300.94613,0.09479
3299.91587,0.09439
3298.88561,0.09386
3297.85535,0.09351
3296.82510,0.09318
3295.79484,0.09291
3294.76458,0.09277
3293.73432,0.09249
3292.70406,0.09224
3291.67381,0.09213
3290.64355,0.09177
3289.61329,0.09095
3288.58303,0.08999
3287.55278,0.08950
3286.52252,0.08926
3285.49226,0.08861
3284.46200,0.08787
3283.43174,0.08776
3282.40149,0.08810
3281.37123,0.08818
3280.34097,0.08768
3279.31071,0.08686
3278.28046,0.08613
3277.25020,0.08552
3276.21994,0.08527
3275.18968,0.08541
3274.15942,0.08550
3273.12917,0.08526
3272.09891,0.08474
3271.06865,0.08434
3270.03839,0.08399
3269.00813,0.08341
3267.97788,0.08322
3266.94762,0.08366
3265.91736,0.08370
3264.88710,0.08307
3263.85685,0.08270
3262.82659,0.08232
3261.79633,0.08159
3260.76607,0.08146
3259.73581,0.08179
3258.70556,0.08193
3257.67530,0.08207
3256.64504,0.08214
3255.61478,0.08191
3254.58452,0.08159
3253.55427,0.08139
3252.52401,0.08126
3251.49375,0.08142
3250.46349,0.08201
3249.43324,0.08225
3248.40298,0.08186
3247.37272,0.08161
3246.34246,0.08151
3245.31220,0.08113
3244.28195,0.08089
3243.25169,0.08110
3242.22143,0.08141
3241.19117,0.08156
3240.16092,0.08150
3239.13066,0.08131
3238.10040,0.08124
3237.07014,0.08108
3236.03988,0.08051
3235.00963,0.08011
3233.97937,0.08008
3232.94911,0.07999
3231.91885,0.08010
3230.88859,0.08040
3229.85834,0.08040
3228.82808,0.08034
3227.79782,0.08042
3226.76756,0.08040
3225.73731,0.08032
3224.70705,0.08054
3223.67679,0.08085
3222.64653,0.08106
3221.61627,0.08145
3220.58602,0.08177
3219.55576,0.08178
3218.52550,0.08182
3217.49524,0.08184
3216.46498,0.08168
3215.43473,0.08178
3214.40447,0.08201
3213.37421,0.08199
3212.34395,0.08230
3211.31370,0.08280
3210.28344,0.08282
3209.25318,0.08261
3208.22292,0.08233
3207.19266,0.08204
3206.16241,0.08197
3205.13215,0.08199
3204.10189,0.08205
3203.07163,0.08217
3202.04137,0.08246
3201.01112,0.08275
3199.98086,0.08289
3198.95060,0.08319
3197.92034,0.08352
3196.89009,0.08327
3195.85983,0.08273
3194.82957,0.08283
3193.79931,0.08341
3192.76905,0.08350
3191.73880,0.08298
3190.70854,0.08251
3189.67828,0.08234
3188.64802,0.08231
3187.61777,0.08238
3186.58751,0.08246
3185.55725,0.08245
3184.52699,0.08270
3183.49673,0.08295
3182.46648,0.08270
3181.43622,0.08257
3180.40596,0.08304
3179.37570,0.08332
3178.34544,0.08308
3177.31519,0.08295
3176.28493,0.08280
3175.25467,0.08247
3174.22441,0.08229
3173.19416,0.08195
3172.16390,0.08139
3171.13364,0.08135
3170.10338,0.08212
3169.07312,0.08271
3168.04287,0.08253
3167.01261,0.08216
3165.98235,0.08200
3164.95209,0.08198
3163.92183,0.08201
3162.89158,0.08205
3161.86132,0.08207
3160.83106,0.08199
3159.80080,0.08181
3158.77055,0.08172
3157.74029,0.08187
3156.71003,0.08194
3155.67977,0.08184
3154.64951,0.08184
3153.61926,0.08181
3152.58900,0.08181
3151.55874,0.08197
3150.52848,0.08217
3149.49822,0.08215
3148.46797,0.08185
3147.43771,0.08174
3146.40745,0.08192
3145.37719,0.08217
3144.34694,0.08244
3143.31668,0.08267
3142.28642,0.08301
3141.25616,0.08323
3140.22590,0.08287
3139.19565,0.08236
3138.16539,0.08232
3137.13513,0.08288
3136.10487,0.08361
3135.07462,0.08381
3134.04436,0.08359
3133.01410,0.08368
3131.98384,0.08379
3130.95358,0.08352
3129.92333,0.08333
3128.89307,0.08355
3127.86281,0.08402
3126.83255,0.08414
3125.80229,0.08399
3124.77204,0.08410
3123.74178,0.08435
3122.71152,0.08443
3121.68126,0.08437
3120.65101,0.08438
3119.62075,0.08456
3118.59049,0.08490
3117.56023,0.08525
3116.52997,0.08520
3115.49972,0.08500
3114.46946,0.08531
3113.43920,0.08570
3112.40894,0.08591
3111.37868,0.08644
3110.34843,0.08703
3109.31817,0.08730
3108.28791,0.08744
3107.25765,0.08775
3106.22740,0.08807
3105.19714,0.08832
3104.16688,0.08849
3103.13662,0.08830
3102.10636,0.08802
3101.07611,0.08828
3100.04585,0.08894
3099.01559,0.08933
3097.98533,0.08921
3096.95507,0.08889
3095.92482,0.08920
3094.89456,0.09037
3093.86430,0.09157
3092.83404,0.09218
3091.80379,0.09235
3090.77353,0.09223
3089.74327,0.09211
3088.71301,0.09249
3087.68275,0.09308
3086.65250,0.09340
3085.62224,0.09350
3084.59198,0.09364
3083.56172,0.09392
3082.53147,0.09411
3081.50121,0.09428
3080.47095,0.09472
3079.44069,0.09524
3078.41043,0.09563
3077.38018,0.09590
3076.34992,0.09583
3075.31966,0.09569
3074.28940,0.09607
3073.25914,0.09681
3072.22889,0.09766
3071.19863,0.09840
3070.16837,0.09888
3069.13811,0.09933
3068.10786,0.09978
3067.07760,0.10002
3066.04734,0.10036
3065.01708,0.10112
3063.98682,0.10192
3062.95657,0.10244
3061.92631,0.10252
3060.89605,0.10220
3059.86579,0.10242
3058.83553,0.10351
3057.80528,0.10432
3056.77502,0.10465
3055.74476,0.10516
3054.71450,0.10571
3053.68425,0.10604
3052.65399,0.10620
3051.62373,0.10642
3050.59347,0.10695
3049.56321,0.10739
3048.53296,0.10741
3047.50270,0.10754
3046.47244,0.10782
3045.44218,0.10817
3044.41192,0.10888
3043.38167,0.10956
3042.35141,0.10998
3041.32115,0.11032
3040.29089,0.11076
3039.26064,0.11156
3038.23038,0.11248
3037.20012,0.11296
3036.16986,0.11309
3035.13960,0.11336
3034.10935,0.11362
3033.07909,0.11356
3032.04883,0.11366
3031.01857,0.11425
3029.98832,0.11491
3028.95806,0.11563
3027.92780,0.11641
3026.89754,0.11694
3025.86728,0.11774
3024.83703,0.11895
3023.80677,0.12041
3022.77651,0.12286
3021.74625,0.12657
3020.71599,0.13069
3019.68574,0.13388
3018.65548,0.13550
3017.62522,0.13626
3016.59496,0.13658
3015.56471,0.13630
3014.53445,0.13552
3013.50419,0.13433
3012.47393,0.13288
3011.44367,0.13160
3010.41342,0.13084
3009.38316,0.13055
3008.35290,0.13064
3007.32264,0.13114
3006.29238,0.13187
3005.26213,0.13261
3004.23187,0.13321
3003.20161,0.13353
3002.17135,0.13382
3001.14110,0.13371
3000.11084,0.13269
2999.08058,0.13185
2998.05032,0.13180
2997.02006,0.13156
2995.98981,0.13096
2994.95955,0.13070
2993.92929,0.13100
2992.89903,0.13136
2991.86877,0.13191
2990.83852,0.13285
2989.80826,0.13334
2988.77800,0.13319
2987.74774,0.13322
2986.71749,0.13367
2985.68723,0.13405
2984.65697,0.13418
2983.62671,0.13435
2982.59645,0.13488
2981.56620,0.13562
2980.53594,0.13591
2979.50568,0.13574
2978.47542,0.13554
2977.44517,0.13580
2976.41491,0.13674
2975.38465,0.13770
2974.35439,0.13817
2973.32413,0.13828
2972.29388,0.13828
2971.26362,0.13847
2970.23336,0.13909
2969.20310,0.14003
2968.17284,0.14106
2967.14259,0.14167
2966.11233,0.14151
2965.08207,0.14109
2964.05181,0.14103
2963.02156,0.14144
2961.99130,0.14212
2960.96104,0.14287
2959.93078,0.14341
2958.90052,0.14387
2957.87027,0.14450
2956.84001,0.14485
2955.80975,0.14485
2954.77949,0.14486
2953.74923,0.14500
2952.71898,0.14531
2951.68872,0.14537
2950.65846,0.14492
2949.62820,0.14444
2948.59795,0.14422
2947.56769,0.14388
2946.53743,0.14342
2945.50717,0.14337
2944.47691,0.14368
2943.44666,0.14387
2942.41640,0.14355
2941.38614,0.14292
2940.35588,0.14268
2939.32562,0.14257
2938.29537,0.14199
2937.26511,0.14131
2936.23485,0.14080
2935.20459,0.13998
2934.17434,0.13861
2933.14408,0.13730
2932.11382,0.13626
2931.08356,0.13517
2930.05330,0.13425
2929.02305,0.13349
2927.99279,0.13267
2926.96253,0.13180
2925.93227,0.13098
2924.90202,0.13026
2923.87176,0.12920
2922.84150,0.12780
2921.81124,0.12684
2920.78098,0.12632
2919.75073,0.12583
2918.72047,0.12526
2917.69021,0.12448
2916.65995,0.12352
2915.62969,0.12264
2914.59944,0.12213
2913.56918,0.12170
2912.53892,0.12103
2911.50866,0.12041
2910.47841,0.11993
2909.44815,0.11925
2908.41789,0.11857
2907.38763,0.11802
2906.35737,0.11726
2905.32712,0.11655
2904.29686,0.11615
2903.26660,0.11583
2902.23634,0.11568
2901.20608,0.11560
2900.17583,0.11511
2899.14557,0.11414
2898.11531,0.11324
2897.08505,0.11252
2896.05480,0.11171
2895.02454,0.11093
2893.99428,0.11038
2892.96402,0.10982
2891.93376,0.10916
2890.90351,0.10871
2889.87325,0.10823
2888.84299,0.10742
2887.81273,0.10677
2886.78247,0.10643
2885.75222,0.10587
2884.72196,0.10533
2883.69170,0.10527
2882.66144,0.10519
2881.63119,0.10480
2880.60093,0.10422
2879.57067,0.10350
2878.54041,0.10275
2877.51015,0.10216
2876.47990,0.10200
2875.44964,0.10194
2874.41938,0.10143
2873.38912,0.10089
2872.35887,0.10051
2871.32861,0.09987
2870.29835,0.09914
2869.26809,0.09857
2868.23783,0.09798
2867.20758,0.09738
2866.17732,0.09682
2865.14706,0.09626
2864.11680,0.09566
2863.08654,0.09498
2862.05629,0.09427
2861.02603,0.09369
2859.99577,0.09334
2858.96551,0.09317
2857.93526,0.09287
2856.90500,0.09235
2855.87474,0.09179
2854.84448,0.09130
2853.81422,0.09100
2852.78397,0.09082
2851.75371,0.09042
2850.72345,0.08987
2849.69319,0.08954
2848.66293,0.08940
2847.63268,0.08906
2846.60242,0.08828
2845.57216,0.08749
2844.54190,0.08690
2843.51165,0.08621
2842.48139,0.08585
2841.45113,0.08569
2840.42087,0.08513
2839.39061,0.08471
2838.36036,0.08471
2837.33010,0.08447
2836.29984,0.08386
2835.26958,0.08329
2834.23933,0.08280
2833.20907,0.08229
2832.17881,0.08191
2831.14855,0.08168
2830.11829,0.08143
2829.08804,0.08106
2828.05778,0.08051
2827.02752,0.08012
2825.99726,0.08010
2824.96700,0.07992
2823.93675,0.07947
2822.90649,0.07924
2821.87623,0.07919
2820.84597,0.07896
2819.81572,0.07843
2818.78546,0.07790
2817.75520,0.07760
2816.72494,0.07729
2815.69468,0.07699
2814.66443,0.07689
2813.63417,0.07660
2812.60391,0.07598
2811.57365,0.07536
2810.54339,0.07496
2809.51314,0.07458
2808.48288,0.07380
2807.45262,0.07308
2806.42236,0.07297
2805.39211,0.07295
2804.36185,0.07276
2803.33159,0.07257
2802.30133,0.07218
2801.27107,0.07149
2800.24082,0.07079
2799.21056,0.07040
2798.18030,0.07031
2797.15004,0.07006
2796.11978,0.06954
2795.08953,0.06912
2794.05927,0.06891
2793.02901,0.06874
2791.99875,0.06854
2790.96850,0.06835
2789.93824,0.06815
2788.90798,0.06783
2787.87772,0.06739
2786.84746,0.06698
2785.81721,0.06677
2784.78695,0.06671
2783.75669,0.06667
2782.72643,0.06677
2781.69618,0.06683
2780.66592,0.06654
2779.63566,0.06620
2778.60540,0.06591
2777.57514,0.06529
2776.54489,0.06464
2775.51463,0.06430
2774.48437,0.06406
2773.45411,0.06390
2772.42385,0.06374
2771.39360,0.06336
2770.36334,0.06287
2769.33308,0.06260
2768.30282,0.06260
2767.27257,0.06270
2766.24231,0.06272
2765.21205,0.06252
2764.18179,0.06195
2763.15153,0.06107
2762.12128,0.06031
2761.09102,0.06009
2760.06076,0.06002
2759.03050,0.05970
2758.00024,0.05942
2756.96999,0.05927
2755.93973,0.05898
2754.90947,0.05853
2753.87921,0.05827
2752.84896,0.05820
2751.81870,0.05793
2750.78844,0.05751
2749.75818,0.05706
2748.72792,0.05669
2747.69767,0.05653
2746.66741,0.05641
2745.63715,0.05623
2744.60689,0.05603
2743.57663,0.05595
2742.54638,0.05581
2741.51612,0.05538
2740.48586,0.05496
2739.45560,0.05462
2738.42535,0.05424
2737.39509,0.05401
2736.36483,0.05380
2735.33457,0.05350
2734.30431,0.05336
2733.27406,0.05330
2732.24380,0.05299
2731.21354,0.05257
2730.18328,0.05250
2729.15303,0.05254
2728.12277,0.05222
2727.09251,0.05180
2726.06225,0.05155
2725.03199,0.05144
2724.00174,0.05128
2722.97148,0.05092
2721.94122,0.05056
2720.91096,0.05031
2719.88070,0.05005
2718.85045,0.04981
2717.82019,0.04959
2716.78993,0.04928
2715.75967,0.04907
2714.72942,0.04877
2713.69916,0.04796
2712.66890,0.04727
2711.63864,0.04737
2710.60838,0.04770
2709.57813,0.04758
2708.54787,0.04728
2707.51761,0.04712
2706.48735,0.04701
2705.45709,0.04701
2704.42684,0.04689
2703.39658,0.04661
2702.36632,0.04644
2701.33606,0.04626
2700.30581,0.04593
2699.27555,0.04558
2698.24529,0.04531
2697.21503,0.04519
2696.18477,0.04512
2695.15452,0.04484
2694.12426,0.04439
2693.09400,0.04414
2692.06374,0.04387
2691.03348,0.04341
2690.00323,0.04297
2688.97297,0.04256
2687.94271,0.04226
2686.91245,0.04220
2685.88220,0.04217
2684.85194,0.04198
2683.82168,0.04158
2682.79142,0.04105
2681.76116,0.04075
2680.73091,0.04077
2679.70065,0.04057
2678.67039,0.04021
2677.64013,0.04015
2676.60988,0.04025
2675.57962,0.04007
2674.54936,0.03968
2673.51910,0.03951
2672.48884,0.03949
2671.45859,0.03934
2670.42833,0.03908
2669.39807,0.03883
2668.36781,0.03862
2667.33755,0.03853
2666.30730,0.03854
2665.27704,0.03848
2664.24678,0.03825
2663.21652,0.03779
2662.18627,0.03731
2661.15601,0.03704
2660.12575,0.03670
2659.09549,0.03644
2658.06523,0.03649
2657.03498,0.03658
2656.00472,0.03657
2654.97446,0.03642
2653.94420,0.03605
2652.91394,0.03572
2651.88369,0.03563
2650.85343,0.03563
2649.82317,0.03570
2648.79291,0.03558
2647.76266,0.03510
2646.73240,0.03471
2645.70214,0.03473
2644.67188,0.03494
2643.64162,0.03480
2642.61137,0.03423
2641.58111,0.03382
2640.55085,0.03393
2639.52059,0.03415
2638.49033,0.03394
2637.46008,0.03362
2636.42982,0.03374
2635.39956,0.03392
2634.36930,0.03376
2633.33905,0.03373
2632.30879,0.03393
2631.27853,0.03383
2630.24827,0.03343
2629.21801,0.03305
2628.18776,0.03268
2627.15750,0.03250
2626.12724,0.03261
2625.09698,0.03276
2624.06673,0.03274
2623.03647,0.03250
2622.00621,0.03213
2620.97595,0.03200
2619.94569,0.03209
2618.91544,0.03217
2617.88518,0.03219
2616.85492,0.03196
2615.82466,0.03159
2614.79440,0.03122
2613.76415,0.03098
2612.73389,0.03099
2611.70363,0.03136
2610.67337,0.03184
2609.64312,0.03204
2608.61286,0.03201
2607.58260,0.03201
2606.55234,0.03183
2605.52208,0.03121
2604.49183,0.03044
2603.46157,0.03024
2602.43131,0.03093
2601.40105,0.03155
2600.37079,0.03136
2599.34054,0.03099
2598.31028,0.03062
2597.28002,0.03013
2596.24976,0.02997
2595.21951,0.03033
2594.18925,0.03062
2593.15899,0.03045
2592.12873,0.03011
2591.09847,0.02987
2590.06822,0.02953
2589.03796,0.02913
2588.00770,0.02912
2586.97744,0.02919
2585.94718,0.02895
2584.91693,0.02899
2583.88667,0.02950
2582.85641,0.02985
2581.82615,0.02958
2580.79590,0.02931
2579.76564,0.02966
2578.73538,0.02999
2577.70512,0.02981
2576.67486,0.02970
2575.64461,0.02995
2574.61435,0.02987
2573.58409,0.02945
2572.55383,0.02933
2571.52358,0.02933
2570.49332,0.02920
2569.46306,0.02928
2568.43280,0.02944
2567.40254,0.02947
2566.37229,0.02949
2565.34203,0.02932
2564.31177,0.02915
2563.28151,0.02923
2562.25125,0.02922
2561.22100,0.02894
2560.19074,0.02860
2559.16048,0.02823
2558.13022,0.02785
2557.09997,0.02787
2556.06971,0.02813
2555.03945,0.02794
2554.00919,0.02736
2552.97893,0.02714
2551.94868,0.02739
2550.91842,0.02763
2549.88816,0.02774
2548.85790,0.02760
2547.82764,0.02704
2546.79739,0.02670
2545.76713,0.02691
2544.73687,0.02731
2543.70661,0.02767
2542.67636,0.02749
2541.64610,0.02690
2540.61584,0.02665
2539.58558,0.02671
2538.55532,0.02673
2537.52507,0.02696
2536.49481,0.02750
2535.46455,0.02761
2534.43429,0.02711
2533.40403,0.02693
2532.37378,0.02739
2531.34352,0.02759
2530.31326,0.02738
2529.28300,0.02733
2528.25275,0.02739
2527.22249,0.02743
2526.19223,0.02758
2525.16197,0.02777
2524.13171,0.02779
2523.10146,0.02772
2522.07120,0.02783
2521.04094,0.02787
2520.01068,0.02770
2518.98043,0.02781
2517.95017,0.02835
2516.91991,0.02888
2515.88965,0.02906
2514.85939,0.02895
2513.82914,0.02864
2512.79888,0.02801
2511.76862,0.02735
2510.73836,0.02705
2509.70810,0.02702
2508.67785,0.02705
2507.64759,0.02702
2506.61733,0.02686
2505.58707,0.02663
2504.55682,0.02672
2503.52656,0.02721
2502.49630,0.02716
2501.46604,0.02622
2500.43578,0.02554
2499.40553,0.02574
2498.37527,0.02619
2497.34501,0.02612
2496.31475,0.02572
2495.28449,0.02586
2494.25424,0.02645
2493.22398,0.02662
2492.19372,0.02601
2491.16346,0.02509
2490.13321,0.02455
2489.10295,0.02474
2488.07269,0.02510
2487.04243,0.02487
2486.01217,0.02434
2484.98192,0.02406
2483.95166,0.02412
2482.92140,0.02449
2481.89114,0.02477
2480.86088,0.02475
2479.83063,0.02465
2478.80037,0.02457
2477.77011,0.02443
2476.73985,0.02425
2475.70960,0.02404
2474.67934,0.02381
2473.64908,0.02381
2472.61882,0.02425
2471.58856,0.02473
2470.55831,0.02448
2469.52805,0.02391
2468.49779,0.02416
2467.46753,0.02502
2466.43728,0.02519
2465.40702,0.02450
2464.37676,0.02405
2463.34650,0.02443
2462.31624,0.02503
2461.28599,0.02527
2460.25573,0.02521
2459.22547,0.02507
2458.19521,0.02505
2457.16495,0.02519
2456.13470,0.02545
2455.10444,0.02534
2454.07418,0.02507
2453.04392,0.02508
2452.01367,0.02503
2450.98341,0.02518
2449.95315,0.02567
2448.92289,0.02589
2447.89263,0.02553
2446.86238,0.02482
2445.83212,0.02419
2444.80186,0.02425
2443.77160,0.02472
2442.74134,0.02487
2441.71109,0.02480
2440.68083,0.02466
2439.65057,0.02439
2438.62031,0.02443
2437.59006,0.02471
2436.55980,0.02461
2435.52954,0.02422
2434.49928,0.02417
2433.46902,0.02449
2432.43877,0.02460
2431.40851,0.02437
2430.37825,0.02419
2429.34799,0.02415
2428.31774,0.02426
2427.28748,0.02458
2426.25722,0.02477
2425.22696,0.02474
2424.19670,0.02491
2423.16645,0.02526
2422.13619,0.02524
2421.10593,0.02477
2420.07567,0.02436
2419.04541,0.02446
2418.01516,0.02490
2416.98490,0.02511
2415.95464,0.02500
2414.92438,0.02483
2413.89413,0.02481
2412.86387,0.02489
2411.83361,0.02474
2410.80335,0.02432
2409.77309,0.02418
2408.74284,0.02467
2407.71258,0.02526
2406.68232,0.02541
2405.65206,0.02530
2404.62180,0.02524
2403.59155,0.02514
2402.56129,0.02476
2401.53103,0.02459
2400.50077,0.02498
2399.47052,0.02524
2398.44026,0.02538
2397.41000,0.02576
2396.37974,0.02588
2395.34948,0.02569
2394.31923,0.02556
2393.28897,0.02560
2392.25871,0.02578
2391.22845,0.02600
2390.19819,0.02619
2389.16794,0.02622
2388.13768,0.02626
2387.10742,0.02641
2386.07716,0.02665
2385.04691,0.02721
2384.01665,0.02766
2382.98639,0.02768
2381.95613,0.02785
2380.92587,0.02824
2379.89562,0.02858
2378.86536,0.02914
2377.83510,0.02993
2376.80484,0.03059
2375.77459,0.03136
2374.74433,0.03213
2373.71407,0.03232
2372.68381,0.03286
2371.65355,0.03430
2370.62330,0.03557
2369.59304,0.03673
2368.56278,0.03777
2367.53252,0.03765
2366.50226,0.03731
2365.47201,0.03747
2364.44175,0.03746
2363.41149,0.03747
2362.38123,0.03771
2361.35098,0.03772
2360.32072,0.03700
2359.29046,0.03646
2358.26020,0.03726
2357.22994,0.03807
2356.19969,0.03757
2355.16943,0.03688
2354.13917,0.03665
2353.10891,0.03632
2352.07865,0.03618
2351.04840,0.03625
2350.01814,0.03613
2348.98788,0.03614
2347.95762,0.03634
2346.92737,0.03667
2345.89711,0.03770
2344.86685,0.03931
2343.83659,0.04007
2342.80633,0.03987
2341.77608,0.04021
2340.74582,0.04117
2339.71556,0.04153
2338.68530,0.04130
2337.65504,0.04101
2336.62479,0.04095
2335.59453,0.04103
2334.56427,0.04104
2333.53401,0.04125
2332.50376,0.04152
2331.47350,0.04108
2330.44324,0.04017
2329.41298,0.03987
2328.38272,0.04009
2327.35247,0.04007
2326.32221,0.03964
2325.29195,0.03936
2324.26169,0.03957
2323.23144,0.03969
2322.20118,0.03941
2321.17092,0.03903
2320.14066,0.03843
2319.11040,0.03792
2318.08015,0.03815
2317.04989,0.03831
2316.01963,0.03784
2314.98937,0.03784
2313.95911,0.03824
2312.92886,0.03806
2311.89860,0.03772
2310.86834,0.03776
2309.83808,0.03792
2308.80783,0.03775
2307.77757,0.03737
2306.74731,0.03694
2305.71705,0.03657
2304.68679,0.03648
2303.65654,0.03670
2302.62628,0.03699
2301.59602,0.03682
2300.56576,0.03618
2299.53550,0.03569
2298.50525,0.03559
2297.47499,0.03558
2296.44473,0.03559
2295.41447,0.03581
2294.38422,0.03620
2293.35396,0.03648
2292.32370,0.03672
2291.29344,0.03686
2290.26318,0.03676
2289.23293,0.03654
2288.20267,0.03628
2287.17241,0.03628
2286.14215,0.03626
2285.11189,0.03570
2284.08164,0.03521
2283.05138,0.03527
2282.02112,0.03527
2280.99086,0.03489
2279.96061,0.03435
2278.93035,0.03414
2277.90009,0.03461
2276.86983,0.03538
2275.83957,0.03563
2274.80932,0.03495
2273.77906,0.03441
2272.74880,0.03490
2271.71854,0.03590
2270.68829,0.03664
2269.65803,0.03673
2268.62777,0.03609
2267.59751,0.03512
2266.56725,0.03447
2265.53700,0.03467
2264.50674,0.03563
2263.47648,0.03594
2262.44622,0.03476
2261.41596,0.03337
2260.38571,0.03314
2259.35545,0.03347
2258.32519,0.03348
2257.29493,0.03345
2256.26468,0.03355
2255.23442,0.03365
2254.20416,0.03339
2253.17390,0.03281
2252.14364,0.03269
2251.11339,0.03277
2250.08313,0.03238
2249.05287,0.03195
2248.02261,0.03184
2246.99235,0.03182
2245.96210,0.03166
2244.93184,0.03179
2243.90158,0.03206
2242.87132,0.03186
2241.84107,0.03134
2240.81081,0.03107
2239.78055,0.03162
2238.75029,0.03199
2237.72003,0.03128
2236.68978,0.03028
2235.65952,0.03012
2234.62926,0.03073
2233.59900,0.03088
2232.56874,0.02988
2231.53849,0.02850
2230.50823,0.02805
2229.47797,0.02830
2228.44771,0.02882
2227.41746,0.02962
2226.38720,0.02964
2225.35694,0.02863
2224.32668,0.02790
2223.29642,0.02824
2222.26617,0.02873
2221.23591,0.02841
2220.20565,0.02853
2219.17539,0.02968
2218.14514,0.03040
2217.11488,0.03030
2216.08462,0.02971
2215.05436,0.02886
2214.02410,0.02826
2212.99385,0.02805
2211.96359,0.02818
2210.93333,0.02841
2209.90307,0.02879
2208.87281,0.02925
2207.84256,0.02935
2206.81230,0.02949
2205.78204,0.03016
2204.75178,0.03083
2203.72153,0.03046
2202.69127,0.02890
2201.66101,0.02790
2200.63075,0.02865
2199.60049,0.02990
2198.57024,0.03026
2197.53998,0.02909
2196.50972,0.02777
2195.47946,0.02796
2194.44920,0.02793
2193.41895,0.02713
2192.38869,0.02675
2191.35843,0.02632
2190.32817,0.02630
2189.29792,0.02762
2188.26766,0.02853
2187.23740,0.02738
2186.20714,0.02629
2185.17688,0.02700
2184.14663,0.02706
2183.11637,0.02520
2182.08611,0.02471
2181.05585,0.02656
2180.02559,0.02802
2178.99534,0.02844
2177.96508,0.02921
2176.93482,0.02971
2175.90456,0.02863
2174.87431,0.02752
2173.84405,0.02735
2172.81379,0.02642
2171.78353,0.02385
2170.75327,0.02165
2169.72302,0.02288
2168.69276,0.02593
2167.66250,0.02658
2166.63224,0.02564
2165.60199,0.02555
2164.57173,0.02680
2163.54147,0.02873
2162.51121,0.02875
2161.48095,0.02708
2160.45070,0.02604
2159.42044,0.02509
2158.39018,0.02428
2157.35992,0.02485
2156.32966,0.02539
2155.29941,0.02462
2154.26915,0.02434
2153.23889,0.02492
2152.20863,0.02503
2151.17838,0.02533
2150.14812,0.02605
2149.11786,0.02530
2148.08760,0.02360
2147.05734,0.02286
2146.02709,0.02284
2144.99683,0.02346
2143.96657,0.02473
2142.93631,0.02550
2141.90605,0.02504
2140.87580,0.02415
2139.84554,0.02392
2138.81528,0.02487
2137.78502,0.02602
2136.75477,0.02550
2135.72451,0.02384
2134.69425,0.02263
2133.66399,0.02198
2132.63373,0.02195
2131.60348,0.02243
2130.57322,0.02285
2129.54296,0.02348
2128.51270,0.02385
2127.48244,0.02335
2126.45219,0.02288
2125.42193,0.02310
2124.39167,0.02400
2123.36141,0.02485
2122.33116,0.02473
2121.30090,0.02382
2120.27064,0.02348
2119.24038,0.02410
2118.21012,0.02411
2117.17987,0.02319
2116.14961,0.02304
2115.11935,0.02411
2114.08909,0.02466
2113.05884,0.02356
2112.02858,0.02216
2110.99832,0.02198
2109.96806,0.02304
2108.93780,0.02462
2107.90755,0.02554
2106.87729,0.02538
2105.84703,0.02513
2104.81677,0.02516
2103.78651,0.02463
2102.75626,0.02352
2101.72600,0.02309
2100.69574,0.02384
2099.66548,0.02443
2098.63523,0.02390
2097.60497,0.02349
2096.57471,0.02391
2095.54445,0.02467
2094.51419,0.02516
2093.48394,0.02512
2092.45368,0.02458
2091.42342,0.02329
2090.39316,0.02224
2089.36290,0.02219
2088.33265,0.02265
2087.30239,0.02331
2086.27213,0.02401
2085.24187,0.02495
2084.21162,0.02587
2083.18136,0.02556
2082.15110,0.02426
2081.12084,0.02340
2080.09058,0.02333
2079.06033,0.02361
2078.03007,0.02334
2076.99981,0.02318
2075.96955,0.02414
2074.93930,0.02504
2073.90904,0.02500
2072.87878,0.02460
2071.84852,0.02416
2070.81826,0.02310
2069.78801,0.02127
2068.75775,0.01986
2067.72749,0.02055
2066.69723,0.02307
2065.66697,0.02473
2064.63672,0.02437
2063.60646,0.02349
2062.57620,0.02295
2061.54594,0.02228
2060.51569,0.02157
2059.48543,0.02178
2058.45517,0.02301
2057.42491,0.02355
2056.39465,0.02278
2055.36440,0.02259
2054.33414,0.02289
2053.30388,0.02253
2052.27362,0.02289
2051.24336,0.02385
2050.21311,0.02346
2049.18285,0.02218
2048.15259,0.02157
2047.12233,0.02172
2046.09208,0.02185
2045.06182,0.02206
2044.03156,0.02282
2043.00130,0.02329
2041.97104,0.02319
2040.94079,0.02300
2039.91053,0.02234
2038.88027,0.02170
2037.85001,0.02240
2036.81975,0.02383
2035.78950,0.02407
2034.75924,0.02377
2033.72898,0.02406
2032.69872,0.02386
2031.66847,0.02296
2030.63821,0.02210
2029.60795,0.02168
2028.57769,0.02197
2027.54743,0.02212
2026.51718,0.02101
2025.48692,0.02005
2024.45666,0.02037
2023.42640,0.02124
2022.39615,0.02192
2021.36589,0.02098
2020.33563,0.01923
2019.30537,0.01899
2018.27511,0.02006
2017.24486,0.02187
2016.21460,0.02363
2015.18434,0.02311
2014.15408,0.02024
2013.12382,0.01808
2012.09357,0.01858
2011.06331,0.02036
2010.03305,0.02043
2009.00279,0.01874
2007.97254,0.01848
2006.94228,0.01998
2005.91202,0.02046
2004.88176,0.01967
2003.85150,0.01930
2002.82125,0.01987
2001.79099,0.02018
2000.76073,0.01974
1999.73047,0.02046
1998.70021,0.02234
1997.66996,0.02342
1996.63970,0.02321
1995.60944,0.02186
1994.57918,0.02017
1993.54893,0.01978
1992.51867,0.02031
1991.48841,0.02028
1990.45815,0.02040
1989.42789,0.02149
1988.39764,0.02243
1987.36738,0.02172
1986.33712,0.02097
1985.30686,0.02153
1984.27660,0.02178
1983.24635,0.02129
1982.21609,0.02025
1981.18583,0.01983
1980.15557,0.02094
1979.12532,0.02071
1978.09506,0.01855
1977.06480,0.01803
1976.03454,0.01936
1975.00428,0.02016
1973.97403,0.01983
1972.94377,0.01877
1971.91351,0.01845
1970.88325,0.02030
1969.85300,0.02215
1968.82274,0.02204
1967.79248,0.02128
1966.76222,0.02012
1965.73196,0.01855
1964.70171,0.01787
1963.67145,0.01833
1962.64119,0.01979
1961.61093,0.02077
1960.58067,0.01974
1959.55042,0.01834
1958.52016,0.01802
1957.48990,0.01877
1956.45964,0.02016
1955.42939,0.02069
1954.39913,0.02034
1953.36887,0.02053
1952.33861,0.02177
1951.30835,0.02305
1950.27810,0.02290
1949.24784,0.02185
1948.21758,0.02132
1947.18732,0.02051
1946.15706,0.01911
1945.12681,0.01877
1944.09655,0.01979
1943.06629,0.02114
1942.03603,0.02152
1941.00578,0.02073
1939.97552,0.02029
1938.94526,0.02065
1937.91500,0.02080
1936.88474,0.02039
1935.85449,0.01990
1934.82423,0.01991
1933.79397,0.02032
1932.76371,0.02080
1931.73345,0.02109
1930.70320,0.02068
1929.67294,0.02024
1928.64268,0.02024
1927.61242,0.02046
1926.58217,0.02127
1925.55191,0.02204
1924.52165,0.02170
1923.49139,0.02134
1922.46113,0.02176
1921.43088,0.02157
1920.40062,0.02086
1919.37036,0.02094
1918.34010,0.02163
1917.30985,0.02173
1916.27959,0.02090
1915.24933,0.02007
1914.21907,0.02030
1913.18881,0.02100
1912.15856,0.02099
1911.12830,0.02052
1910.09804,0.02019
1909.06778,0.02048
1908.03752,0.02124
1907.00727,0.02191
1905.97701,0.02222
1904.94675,0.02159
1903.91649,0.02057
1902.88624,0.02067
1901.85598,0.02147
1900.82572,0.02177
1899.79546,0.02150
1898.76520,0.02151
1897.73495,0.02243
1896.70469,0.02364
1895.67443,0.02426
1894.64417,0.02407
1893.61391,0.02378
1892.58366,0.02382
1891.55340,0.02362
1890.52314,0.02348
1889.49288,0.02363
1888.46263,0.02377
1887.43237,0.02409
1886.40211,0.02450
1885.37185,0.02496
1884.34159,0.02563
1883.31134,0.02624
1882.28108,0.02623
1881.25082,0.02580
1880.22056,0.02580
1879.19030,0.02607
1878.16005,0.02612
1877.12979,0.02609
1876.09953,0.02594
1875.06927,0.02557
1874.03902,0.02533
1873.00876,0.02557
1871.97850,0.02625
1870.94824,0.02683
1869.91798,0.02701
1868.88773,0.02712
1867.85747,0.02721
1866.82721,0.02717
1865.79695,0.02727
1864.76670,0.02748
1863.73644,0.02741
1862.70618,0.02706
1861.67592,0.02674
1860.64566,0.02644
1859.61541,0.02592
1858.58515,0.02551
1857.55489,0.02555
1856.52463,0.02527
1855.49437,0.02474
1854.46412,0.02475
1853.43386,0.02483
1852.40360,0.02462
1851.37334,0.02447
1850.34309,0.02446
1849.31283,0.02460
1848.28257,0.02468
1847.25231,0.02443
1846.22205,0.02453
1845.19180,0.02515
1844.16154,0.02507
1843.13128,0.02422
1842.10102,0.02395
1841.07076,0.02398
1840.04051,0.02401
1839.01025,0.02410
1837.97999,0.02417
1836.94973,0.02430
1835.91948,0.02434
1834.88922,0.02413
1833.85896,0.02386
1832.82870,0.02371
1831.79844,0.02373
1830.76819,0.02410
1829.73793,0.02461
1828.70767,0.02456
1827.67741,0.02419
1826.64715,0.02410
1825.61690,0.02420
1824.58664,0.02399
1823.55638,0.02397
1822.52612,0.02447
1821.49587,0.02480
1820.46561,0.02464
1819.43535,0.02443
1818.40509,0.02438
1817.37483,0.02460
1816.34458,0.02491
1815.31432,0.02501
1814.28406,0.02525
1813.25380,0.02550
1812.22355,0.02553
1811.19329,0.02564
1810.16303,0.02576
1809.13277,0.02571
1808.10251,0.02560
1807.07226,0.02541
1806.04200,0.02519
1805.01174,0.02522
1803.98148,0.02558
1802.95122,0.02605
1801.92097,0.02658
1800.89071,0.02705
1799.86045,0.02705
1798.83019,0.02666
1797.79994,0.02652
1796.76968,0.02687
1795.73942,0.02727
1794.70916,0.02750
1793.67890,0.02771
1792.64865,0.02771
1791.61839,0.02775
1790.58813,0.02816
1789.55787,0.02841
1788.52761,0.02823
1787.49736,0.02777
1786.46710,0.02749
1785.43684,0.02758
1784.40658,0.02777
1783.37633,0.02793
1782.34607,0.02810
1781.31581,0.02844
1780.28555,0.02873
1779.25529,0.02876
1778.22504,0.02884
1777.19478,0.02904
1776.16452,0.02926
1775.13426,0.02954
1774.10400,0.02979
1773.07375,0.03016
1772.04349,0.03068
1771.01323,0.03057
1769.98297,0.03011
1768.95272,0.03006
1767.92246,0.03027
1766.89220,0.03021
1765.86194,0.02999
1764.83168,0.02997
1763.80143,0.03022
1762.77117,0.03057
1761.74091,0.03068
1760.71065,0.03056
1759.68040,0.03062
1758.65014,0.03093
1757.61988,0.03142
1756.58962,0.03169
1755.55936,0.03156
1754.52911,0.03140
1753.49885,0.03148
1752.46859,0.03196
1751.43833,0.03270
1750.40807,0.03307
1749.37782,0.03298
1748.34756,0.03283
1747.31730,0.03279
1746.28704,0.03286
1745.25679,0.03296
1744.22653,0.03329
1743.19627,0.03360
1742.16601,0.03361
1741.13575,0.03396
1740.10550,0.03444
1739.07524,0.03409
1738.04498,0.03362
1737.01472,0.03387
1735.98446,0.03464
1734.95421,0.03565
1733.92395,0.03621
1732.89369,0.03576
1731.86343,0.03546
1730.83318,0.03549
1729.80292,0.03543
1728.77266,0.03532
1727.74240,0.03542
1726.71214,0.03570
1725.68189,0.03612
1724.65163,0.03669
1723.62137,0.03721
1722.59111,0.03755
1721.56085,0.03778
1720.53060,0.03802
1719.50034,0.03848
1718.47008,0.03896
1717.43982,0.03894
1716.40957,0.03926
1715.37931,0.04000
1714.34905,0.04025
1713.31879,0.04002
1712.28853,0.04001
1711.25828,0.04025
1710.22802,0.04042
1709.19776,0.04064
1708.16750,0.04126
1707.13725,0.04215
1706.10699,0.04276
1705.07673,0.04276
1704.04647,0.04243
1703.01621,0.04236
1701.98596,0.04300
1700.95570,0.04433
1699.92544,0.04527
1698.89518,0.04508
1697.86492,0.04511
1696.83467,0.04566
1695.80441,0.04601
1694.77415,0.04534
1693.74389,0.04482
1692.71364,0.04462
1691.68338,0.04466
1690.65312,0.04492
1689.62286,0.04523
1688.59260,0.04548
1687.56235,0.04563
1686.53209,0.04594
1685.50183,0.04670
1684.47157,0.04726
1683.44131,0.04626
1682.41106,0.04534
1681.38080,0.04527
1680.35054,0.04527
1679.32028,0.04482
1678.29003,0.04432
1677.25977,0.04407
1676.22951,0.04403
1675.19925,0.04384
1674.16899,0.04343
1673.13874,0.04323
1672.10848,0.04318
1671.07822,0.04319
1670.04796,0.04327
1669.01771,0.04299
1667.98745,0.04236
1666.95719,0.04191
1665.92693,0.04159
1664.89667,0.04148
1663.86642,0.04155
1662.83616,0.04126
1661.80590,0.04067
1660.77564,0.04042
1659.74538,0.04037
1658.71513,0.04029
1657.68487,0.04025
1656.65461,0.04034
1655.62435,0.04060
1654.59410,0.04127
1653.56384,0.04219
1652.53358,0.04091
1651.50332,0.03889
1650.47306,0.03818
1649.44281,0.03834
1648.41255,0.03906
1647.38229,0.03958
1646.35203,0.03920
1645.32177,0.03827
1644.29152,0.03762
1643.26126,0.03731
1642.23100,0.03718
1641.20074,0.03716
1640.17049,0.03717
1639.14023,0.03726
1638.10997,0.03754
1637.07971,0.03805
1636.04945,0.03869
1635.01920,0.03841
1633.98894,0.03729
1632.95868,0.03646
1631.92842,0.03602
1630.89816,0.03597
1629.86791,0.03628
1628.83765,0.03681
1627.80739,0.03694
1626.77713,0.03661
1625.74688,0.03662
1624.71662,0.03685
1623.68636,0.03679
1622.65610,0.03632
1621.62584,0.03595
1620.59559,0.03585
1619.56533,0.03581
1618.53507,0.03610
1617.50481,0.03675
1616.47456,0.03670
1615.44430,0.03605
1614.41404,0.03594
1613.38378,0.03594
1612.35352,0.03580
1611.32327,0.03573
1610.29301,0.03571
1609.26275,0.03571
1608.23249,0.03576
1607.20223,0.03574
1606.17198,0.03545
1605.14172,0.03515
1604.11146,0.03516
1603.08120,0.03524
1602.05095,0.03535
1601.02069,0.03551
1599.99043,0.03549
1598.96017,0.03538
1597.92991,0.03527
1596.89966,0.03518
1595.86940,0.03528
1594.83914,0.03563
1593.80888,0.03589
1592.77862,0.03580
1591.74837,0.03574
1590.71811,0.03577
1589.68785,0.03562
1588.65759,0.03554
1587.62734,0.03562
1586.59708,0.03559
1585.56682,0.03548
1584.53656,0.03548
1583.50630,0.03565
1582.47605,0.03585
1581.44579,0.03587
1580.41553,0.03587
1579.38527,0.03601
1578.35501,0.03644
1577.32476,0.03714
1576.29450,0.03721
1575.26424,0.03629
1574.23398,0.03598
1573.20373,0.03596
1572.17347,0.03574
1571.14321,0.03580
1570.11295,0.03625
1569.08269,0.03628
1568.05244,0.03590
1567.02218,0.03584
1565.99192,0.03608
1564.96166,0.03611
1563.93141,0.03585
1562.90115,0.03585
1561.87089,0.03623
1560.84063,0.03705
1559.81037,0.03858
1558.78012,0.03924
1557.74986,0.03782
1556.71960,0.03692
1555.68934,0.03694
1554.65908,0.03691
1553.62883,0.03627
1552.59857,0.03572
1551.56831,0.03569
1550.53805,0.03596
1549.50780,0.03583
1548.47754,0.03540
1547.44728,0.03552
1546.41702,0.03620
1545.38676,0.03686
1544.35651,0.03714
1543.32625,0.03754
1542.29599,0.03818
1541.26573,0.03860
1540.23547,0.03871
1539.20522,0.03781
1538.17496,0.03639
1537.14470,0.03575
1536.11444,0.03572
1535.08419,0.03622
1534.05393,0.03703
1533.02367,0.03711
1531.99341,0.03658
1530.96315,0.03627
1529.93290,0.03624
1528.90264,0.03638
1527.87238,0.03659
1526.84212,0.03693
1525.81186,0.03735
1524.78161,0.03751
1523.75135,0.03776
1522.72109,0.03846
1521.69083,0.03896
1520.66058,0.03864
1519.63032,0.03819
1518.60006,0.03824
1517.56980,0.03835
1516.53954,0.03788
1515.50929,0.03741
1514.47903,0.03730
1513.44877,0.03740
1512.41851,0.03760
1511.38826,0.03783
1510.35800,0.03819
1509.32774,0.03894
1508.29748,0.04016
1507.26722,0.04147
1506.23697,0.04130
1505.20671,0.03977
1504.17645,0.03877
1503.14619,0.03832
1502.11593,0.03810
1501.08568,0.03817
1500.05542,0.03866
1499.02516,0.03945
1497.99490,0.04016
1496.96465,0.04069
1495.93439,0.04122
1494.90413,0.04191
1493.87387,0.04323
1492.84361,0.04543
1491.81336,0.04870
1490.78310,0.05394
1489.75284,0.06203
1488.72258,0.07126
1487.69232,0.08075
1486.66207,0.09010
1485.63181,0.09731
1484.60155,0.10293
1483.57129,0.10884
1482.54104,0.11661
1481.51078,0.12655
1480.48052,0.13525
1479.45026,0.13682
1478.42000,0.13062
1477.38975,0.12172
1476.35949,0.11457
1475.32923,0.11234
1474.29897,0.11495
1473.26871,0.12072
1472.23846,0.12771
1471.20820,0.13286
1470.17794,0.13477
1469.14768,0.13333
1468.11743,0.12853
1467.08717,0.12217
1466.05691,0.11636
1465.02665,0.11125
1463.99639,0.10864
1462.96614,0.10999
1461.93588,0.11338
1460.90562,0.11651
1459.87536,0.11765
1458.84511,0.11626
1457.81485,0.11278
1456.78459,0.10597
1455.75433,0.09910
1454.72407,0.09560
1453.69382,0.09384
1452.66356,0.09268
1451.63330,0.09120
1450.60304,0.08964
1449.57278,0.08940
1448.54253,0.09097
1447.51227,0.09240
1446.48201,0.09071
1445.45175,0.08628
1444.42150,0.08173
1443.39124,0.07899
1442.36098,0.07789
1441.33072,0.07734
1440.30046,0.07640
1439.27021,0.07466
1438.23995,0.07253
1437.20969,0.06945
1436.17943,0.06457
1435.14917,0.06113
1434.11892,0.05950
1433.08866,0.05853
1432.05840,0.05803
1431.02814,0.05759
1429.99789,0.05642
1428.96763,0.05441
1427.93737,0.05234
1426.90711,0.05034
1425.87685,0.04849
1424.84660,0.04706
1423.81634,0.04557
1422.78608,0.04396
1421.75582,0.04300
1420.72556,0.04285
1419.69531,0.04281
1418.66505,0.04208
1417.63479,0.04110
1416.60453,0.04022
1415.57428,0.03950
1414.54402,0.03902
1413.51376,0.03869
1412.48350,0.03862
1411.45324,0.03882
1410.42299,0.03911
1409.39273,0.03941
1408.36247,0.03993
1407.33221,0.04138
1406.30196,0.04426
1405.27170,0.04885
1404.24144,0.05422
1403.21118,0.05769
1402.18092,0.05844
1401.15067,0.05851
1400.12041,0.06132
1399.09015,0.06839
1398.05989,0.07549
1397.02963,0.07870
1395.99938,0.07956
1394.96912,0.07696
1393.93886,0.06876
1392.90860,0.06014
1391.87835,0.05475
1390.84809,0.05291
1389.81783,0.05486
1388.78757,0.05807
1387.75731,0.05721
1386.72706,0.05098
1385.69680,0.04527
1384.66654,0.04223
1383.63628,0.04047
1382.60602,0.03924
1381.57577,0.03840
1380.54551,0.03769
1379.51525,0.03712
1378.48499,0.03678
1377.45474,0.03647
1376.42448,0.03623
1375.39422,0.03612
1374.36396,0.03601
1373.33370,0.03579
1372.30345,0.03550
1371.27319,0.03507
1370.24293,0.03468
1369.21267,0.03455
1368.18241,0.03443
1367.15216,0.03411
1366.12190,0.03375
1365.09164,0.03361
1364.06138,0.03363
1363.03113,0.03371
1362.00087,0.03387
1360.97061,0.03386
1359.94035,0.03363
1358.91009,0.03348
1357.87984,0.03337
1356.84958,0.03321
1355.81932,0.03303
1354.78906,0.03274
1353.75881,0.03250
1352.72855,0.03254
1351.69829,0.03261
1350.66803,0.03269
1349.63777,0.03281
1348.60752,0.03266
1347.57726,0.03239
1346.54700,0.03224
1345.51674,0.03206
1344.48648,0.03185
1343.45623,0.03179
1342.42597,0.03202
1341.39571,0.03249
1340.36545,0.03276
1339.33520,0.03257
1338.30494,0.03221
1337.27468,0.03209
1336.24442,0.03216
1335.21416,0.03214
1334.18391,0.03195
1333.15365,0.03163
1332.12339,0.03145
1331.09313,0.03147
1330.06287,0.03147
1329.03262,0.03135
1328.00236,0.03122
1326.97210,0.03137
1325.94184,0.03151
1324.91159,0.03133
1323.88133,0.03129
1322.85107,0.03142
1321.82081,0.03136
1320.79055,0.03125
1319.76030,0.03124
1318.73004,0.03122
1317.69978,0.03119
1316.66952,0.03118
1315.63927,0.03106
1314.60901,0.03080
1313.57875,0.03049
1312.54849,0.03019
1311.51823,0.03012
1310.48798,0.03028
1309.45772,0.03044
1308.42746,0.03047
1307.39720,0.03033
1306.36694,0.03014
1305.33669,0.02995
1304.30643,0.02984
1303.27617,0.02991
1302.24591,0.02998
1301.21566,0.02985
1300.18540,0.02951
1299.15514,0.02922
1298.12488,0.02918
1297.09462,0.02938
1296.06437,0.02953
1295.03411,0.02955
1294.00385,0.02952
1292.97359,0.02923
1291.94333,0.02896
1290.91308,0.02908
1289.88282,0.02947
1288.85256,0.02986
1287.82230,0.03001
1286.79205,0.02988
1285.76179,0.02972
1284.73153,0.02969
1283.70127,0.02975
1282.67101,0.02978
1281.64076,0.02989
1280.61050,0.03026
1279.58024,0.03075
1278.54998,0.03119
1277.51972,0.03147
1276.48947,0.03164
1275.45921,0.03177
1274.42895,0.03188
1273.39869,0.03205
1272.36844,0.03234
1271.33818,0.03256
1270.30792,0.03264
1269.27766,0.03284
1268.24740,0.03323
1267.21715,0.03360
1266.18689,0.03397
1265.15663,0.03450
1264.12637,0.03518
1263.09612,0.03607
1262.06586,0.03755
1261.03560,0.04018
1260.00534,0.04481
1258.97508,0.05269
1257.94483,0.06539
1256.91457,0.08280
1255.88431,0.09934
1254.85405,0.10574
1253.82379,0.09871
1252.79354,0.08478
1251.76328,0.07212
1250.73302,0.06412
1249.70276,0.06066
1248.67251,0.06099
1247.64225,0.06414
1246.61199,0.06875
1245.58173,0.07443
1244.55147,0.08236
1243.52122,0.09323
1242.49096,0.10477
1241.46070,0.11290
1240.43044,0.11493
1239.40018,0.11044
1238.36993,0.10088
1237.33967,0.08889
1236.30941,0.07724
1235.27915,0.06748
1234.24890,0.05977
1233.21864,0.05393
1232.18838,0.04972
1231.15812,0.04667
1230.12786,0.04420
1229.09761,0.04221
1228.06735,0.04097
1227.03709,0.04023
1226.00683,0.03954
1224.97657,0.03872
1223.94632,0.03778
1222.91606,0.03695
1221.88580,0.03648
1220.85554,0.03623
1219.82529,0.03594
1218.79503,0.03575
1217.76477,0.03569
1216.73451,0.03547
1215.70425,0.03500
1214.67400,0.03449
1213.64374,0.03431
1212.61348,0.03437
1211.58322,0.03419
1210.55297,0.03391
1209.52271,0.03381
1208.49245,0.03366
1207.46219,0.03362
1206.43193,0.03379
1205.40168,0.03369
1204.37142,0.03331
1203.34116,0.03287
1202.31090,0.03230
1201.28064,0.03186
1200.25039,0.03170
1199.22013,0.03170
1198.18987,0.03180
1197.15961,0.03177
1196.12936,0.03155
1195.09910,0.03137
1194.06884,0.03123
1193.03858,0.03101
1192.00832,0.03087
1190.97807,0.03102
1189.94781,0.03114
1188.91755,0.03099
1187.88729,0.03091
1186.85703,0.03097
1185.82678,0.03086
1184.79652,0.03064
1183.76626,0.03058
1182.73600,0.03053
1181.70575,0.03026
1180.67549,0.02987
1179.64523,0.02969
1178.61497,0.02973
1177.58471,0.02966
1176.55446,0.02948
1175.52420,0.02937
1174.49394,0.02945
1173.46368,0.02959
1172.43342,0.02958
1171.40317,0.02954
1170.37291,0.02946
1169.34265,0.02925
1168.31239,0.02896
1167.28214,0.02864
1166.25188,0.02834
1165.22162,0.02817
1164.19136,0.02826
1163.16110,0.02848
1162.13085,0.02864
1161.10059,0.02850
1160.07033,0.02799
1159.04007,0.02738
1158.00982,0.02710
1156.97956,0.02716
1155.94930,0.02725
1154.91904,0.02739
1153.88878,0.02747
1152.85853,0.02730
1151.82827,0.02712
1150.79801,0.02692
1149.76775,0.02655
1148.73749,0.02627
1147.70724,0.02626
1146.67698,0.02646
1145.64672,0.02651
1144.61646,0.02628
1143.58621,0.02606
1142.55595,0.02592
1141.52569,0.02586
1140.49543,0.02592
1139.46517,0.02591
1138.43492,0.02575
1137.40466,0.02599
1136.37440,0.02688
1135.34414,0.02802
1134.31388,0.02897
1133.28363,0.02920
1132.25337,0.02858
1131.22311,0.02788
1130.19285,0.02774
1129.16260,0.02812
1128.13234,0.02920
1127.10208,0.03180
1126.07182,0.03569
1125.04156,0.03880
1124.01131,0.03943
1122.98105,0.03778
1121.95079,0.03493
1120.92053,0.03187
1119.89027,0.02949
1118.86002,0.02792
1117.82976,0.02689
1116.79950,0.02631
1115.76924,0.02600
1114.73899,0.02565
1113.70873,0.02523
1112.67847,0.02489
1111.64821,0.02462
1110.61795,0.02429
1109.58770,0.02400
1108.55744,0.02398
1107.52718,0.02395
1106.49692,0.02362
1105.46667,0.02325
1104.43641,0.02319
1103.40615,0.02347
1102.37589,0.02365
1101.34563,0.02353
1100.31538,0.02351
1099.28512,0.02364
1098.25486,0.02369
1097.22460,0.02358
1096.19434,0.02356
1095.16409,0.02373
1094.13383,0.02360
1093.10357,0.02306
1092.07331,0.02295
1091.04306,0.02340
1090.01280,0.02375
1088.98254,0.02379
1087.95228,0.02359
1086.92202,0.02325
1085.89177,0.02285
1084.86151,0.02251
1083.83125,0.02266
1082.80099,0.02306
1081.77073,0.02316
1080.74048,0.02307
1079.71022,0.02300
1078.67996,0.02287
1077.64970,0.02280
1076.61945,0.02296
1075.58919,0.02305
1074.55893,0.02297
1073.52867,0.02312
1072.49841,0.02332
1071.46816,0.02325
1070.43790,0.02341
1069.40764,0.02376
1068.37738,0.02372
1067.34712,0.02373
1066.31687,0.02409
1065.28661,0.02432
1064.25635,0.02443
1063.22609,0.02455
1062.19584,0.02477
1061.16558,0.02500
1060.13532,0.02473
1059.10506,0.02418
1058.07480,0.02399
1057.04455,0.02401
1056.01429,0.02404
1054.98403,0.02411
1053.95377,0.02410
1052.92352,0.02411
1051.89326,0.02420
1050.86300,0.02417
1049.83274,0.02395
1048.80248,0.02368
1047.77223,0.02359
1046.74197,0.02374
1045.71171,0.02373
1044.68145,0.02357
1043.65119,0.02368
1042.62094,0.02399
1041.59068,0.02423
1040.56042,0.02418
1039.53016,0.02401
1038.49991,0.02392
1037.46965,0.02388
1036.43939,0.02404
1035.40913,0.02444
1034.37887,0.02470
1033.34862,0.02457
1032.31836,0.02443
1031.28810,0.02452
1030.25784,0.02472
1029.22758,0.02493
1028.19733,0.02489
1027.16707,0.02463
1026.13681,0.02461
1025.10655,0.02489
1024.07630,0.02504
1023.04604,0.02511
1022.01578,0.02523
1020.98552,0.02520
1019.95526,0.02527
1018.92501,0.02580
1017.89475,0.02625
1016.86449,0.02611
1015.83423,0.02608
1014.80397,0.02629
1013.77372,0.02625
1012.74346,0.02616
1011.71320,0.02634
1010.68294,0.02670
1009.65269,0.02700
1008.62243,0.02718
1007.59217,0.02740
1006.56191,0.02756
1005.53165,0.02744
1004.50140,0.02738
1003.47114,0.02765
1002.44088,0.02803
1001.41062,0.02826
1000.38037,0.02836
999.35011,0.02861
998.31985,0.02881
997.28959,0.02877
996.25933,0.02870
995.22908,0.02858
994.19882,0.02867
993.16856,0.02919
992.13830,0.02988
991.10804,0.03042
990.07779,0.03068
989.04753,0.03069
988.01727,0.03073
986.98701,0.03107
985.95676,0.03142
984.92650,0.03156
983.89624,0.03185
982.86598,0.03242
981.83572,0.03306
980.80547,0.03357
979.77521,0.03386
978.74495,0.03404
977.71469,0.03418
976.68443,0.03460
975.65418,0.03521
974.62392,0.03569
973.59366,0.03653
972.56340,0.03767
971.53315,0.03840
970.50289,0.03901
969.47263,0.04007
968.44237,0.04126
967.41211,0.04222
966.38186,0.04338
965.35160,0.04510
964.32134,0.04702
963.29108,0.04878
962.26082,0.05074
961.23057,0.05340
960.20031,0.05709
959.17005,0.06178
958.13979,0.06754
957.10954,0.07521
956.07928,0.08594
955.04902,0.10049
954.01876,0.11933
952.98850,0.14187
951.95825,0.16520
950.92799,0.18539
949.89773,0.20067
948.86747,0.21287
947.83722,0.22468
946.80696,0.23548
945.77670,0.23949
944.74644,0.23086
943.71618,0.21213
942.68593,0.19232
941.65567,0.17783
940.62541,0.16977
939.59515,0.16665
938.56489,0.16640
937.53464,0.16752
936.50438,0.16869
935.47412,0.16771
934.44386,0.16282
933.41361,0.15411
932.38335,0.14299
931.35309,0.13089
930.32283,0.11892
929.29257,0.10824
928.26232,0.09944
927.23206,0.09259
926.20180,0.08739
925.17154,0.08336
924.14128,0.08036
923.11103,0.07832
922.08077,0.07712
921.05051,0.07682
920.02025,0.07724
918.99000,0.07796
917.95974,0.07897
916.92948,0.08031
915.89922,0.08156
914.86896,0.08278
913.83871,0.08438
912.80845,0.08619
911.77819,0.08799
910.74793,0.09004
909.71768,0.09228
908.68742,0.09440
907.65716,0.09664
906.62690,0.09910
905.59664,0.10111
904.56639,0.10295
903.53613,0.10535
902.50587,0.10753
901.47561,0.10916
900.44535,0.11080
899.41510,0.11226
898.38484,0.11338
897.35458,0.11425
896.32432,0.11482
895.29407,0.11540
894.26381,0.11607
893.23355,0.11653
892.20329,0.11673
891.17303,0.11693
890.14278,0.11725
889.11252,0.11743
888.08226,0.11721
887.05200,0.11680
886.02174,0.11680
884.99149,0.11707
883.96123,0.11702
882.93097,0.11694
881.90071,0.11716
880.87046,0.11738
879.84020,0.11728
878.80994,0.11693
877.77968,0.11664
876.74942,0.11675
875.71917,0.11712
874.68891,0.11758
873.65865,0.11820
872.62839,0.11899
871.59813,0.11993
870.56788,0.12052
869.53762,0.12050
868.50736,0.12039
867.47710,0.12055
866.44685,0.12077
865.41659,0.12119
864.38633,0.12220
863.35607,0.12327
862.32581,0.12357
861.29556,0.12332
860.26530,0.12339
859.23504,0.12384
858.20478,0.12446
857.17453,0.12536
856.14427,0.12618
855.11401,0.12624
854.08375,0.12569
853.05349,0.12533
852.02324,0.12543
850.99298,0.12555
849.96272,0.12525
848.93246,0.12493
847.90220,0.12488
846.87195,0.12465
845.84169,0.12401
844.81143,0.12339
843.78117,0.12317
842.75092,0.12317
841.72066,0.12269
840.69040,0.12135
839.66014,0.11970
838.62988,0.11845
837.59963,0.11759
836.56937,0.11664
835.53911,0.11553
834.50885,0.11474
833.47859,0.11383
832.44834,0.11237
831.41808,0.11130
830.38782,0.11081
829.35756,0.11003
828.32731,0.10890
827.29705,0.10783
826.26679,0.10695
825.23653,0.10637
824.20627,0.10592
823.17602,0.10539
822.14576,0.10474
821.11550,0.10352
820.08524,0.10181
819.05498,0.10029
818.02473,0.09922
816.99447,0.09879
815.96421,0.09878
814.93395,0.09866
813.90370,0.09827
812.87344,0.09752
811.84318,0.09671
810.81292,0.09631
809.78266,0.09601
808.75241,0.09549
807.72215,0.09490
806.69189,0.09459
805.66163,0.09478
804.63138,0.09508
803.60112,0.09546
802.57086,0.09587
801.54060,0.09593
800.51034,0.09582
799.48009,0.09574
798.44983,0.09580
797.41957,0.09611
796.38931,0.09656
795.35905,0.09702
794.32880,0.09751
793.29854,0.09780
792.26828,0.09785
791.23802,0.09834
790.20777,0.09949
789.17751,0.10063
788.14725,0.10156
787.11699,0.10268
786.08673,0.10417
785.05648,0.10589
784.02622,0.10755
782.99596,0.10913
781.96570,0.11078
780.93544,0.11274
779.90519,0.11482
778.87493,0.11672
777.84467,0.11910
776.81441,0.12219
775.78416,0.12529
774.75390,0.12832
773.72364,0.13170
772.69338,0.13538
771.66312,0.13924
770.63287,0.14369
769.60261,0.14904
768.57235,0.15408
767.54209,0.15776
766.51183,0.16119
765.48158,0.16501
764.45132,0.16818
763.42106,0.17098
762.39080,0.17480
761.36055,0.18009
760.33029,0.18704
759.30003,0.19609
758.26977,0.20670
757.23951,0.21602
756.20926,0.22080
755.17900,0.22033
754.14874,0.21613
753.11848,0.20990
752.08823,0.20296
751.05797,0.19663
750.02771,0.19163
748.99745,0.18732
747.96719,0.18292
746.93694,0.17877
745.90668,0.17518
744.87642,0.17189
743.84616,0.16905
742.81590,0.16684
741.78565,0.16467
740.75539,0.16215
739.72513,0.15972
738.69487,0.15780
737.66462,0.15596
736.63436,0.15372
735.60410,0.15189
734.57384,0.15090
733.54358,0.14997
732.51333,0.14869
731.48307,0.14728
730.45281,0.14600
729.42255,0.14483
728.39229,0.14388
727.36204,0.14312
726.33178,0.14178
725.30152,0.13962
724.27126,0.13810
723.24101,0.13776
722.21075,0.13774
721.18049,0.13781
720.15023,0.13748
719.11997,0.13638
718.08972,0.13525
717.05946,0.13470
716.02920,0.13467
714.99894,0.13437
713.96868,0.13358
712.93843,0.13308
711.90817,0.13271
710.87791,0.13225
709.84765,0.13194
708.81740,0.13176
707.78714,0.13170
706.75688,0.13163
705.72662,0.13148
704.69636,0.13128
703.66611,0.13146
702.63585,0.13200
701.60559,0.13189
700.57533,0.13137
699.54508,0.13144
698.51482,0.13190
697.48456,0.13229
696.45430,0.13247
695.42404,0.13269
694.39379,0.13327
693.36353,0.13333
692.33327,0.13300
691.30301,0.13376
690.27275,0.13517
689.24250,0.13528
688.21224,0.13453
687.18198,0.13513
686.15172,0.13689
685.12147,0.13820
684.09121,0.13879
683.06095,0.13938
682.03069,0.14051
681.00043,0.14150
679.97018,0.14179
678.93992,0.14187
677.90966,0.14203
676.87940,0.14274
675.84914,0.14391
674.81889,0.14467
673.78863,0.14550
672.75837,0.14642
671.72811,0.14693
670.69786,0.14831
669.66760,0.15093
668.63734,0.15194
667.60708,0.14738
666.57682,0.14481
665.54657,0.14490
664.51631,0.14539
663.48605,0.14567
662.45579,0.14555
661.42553,0.14602
660.39528,0.14693
659.36502,0.14768
658.33476,0.14931
657.30450,0.15132
656.27425,0.15322
655.24399,0.15589
654.21373,0.15855
653.18347,0.16089
652.15321,0.16407
651.12296,0.16816
650.09270,0.17236
649.06244,0.17659
648.03218,0.18152
647.00193,0.18695
645.97167,0.19213
644.94141,0.19685
643.91115,0.20148
642.88089,0.20752
641.85064,0.21508
640.82038,0.22230
639.79012,0.22854
638.75986,0.23468
637.72960,0.24211
636.69935,0.25071
635.66909,0.25919
634.63883,0.26689
633.60857,0.27420
632.57832,0.28203
631.54806,0.28971
630.51780,0.29566
629.48754,0.30045
628.45728,0.30598
627.42703,0.31236
626.39677,0.31835
625.36651,0.32256
624.33625,0.32467
623.30599,0.32621
622.27574,0.32758
621.24548,0.32760
620.21522,0.32670
619.18496,0.32612
618.15471,0.32609
617.12445,0.32532
616.09419,0.32258
615.06393,0.31921
614.03367,0.31671
613.00342,0.31402
611.97316,0.31013
610.94290,0.30541
609.91264,0.30063
608.88238,0.29641
607.85213,0.29294
606.82187,0.29008
605.79161,0.28686
604.76135,0.28276
603.73110,0.27895
602.70084,0.27529
601.67058,0.27070
600.64032,0.26625
599.61006,0.26185
598.57981,0.25698
597.54955,0.25307
596.51929,0.24960
595.48903,0.24550
594.45878,0.24254
593.42852,0.24086
592.39826,0.23835
591.36800,0.23410
590.33774,0.22853
589.30749,0.22298
588.27723,0.21844
587.24697,0.21495
586.21671,0.21220
585.18645,0.20915
584.15620,0.20538
583.12594,0.20196
582.09568,0.19896
581.06542,0.19553
580.03517,0.19115
579.00491,0.18603
577.97465,0.18212
576.94439,0.17942
575.91413,0.17612
574.88388,0.17241
573.85362,0.16907
572.82336,0.16588
571.79310,0.16215
570.76284,0.15911
569.73259,0.15735
568.70233,0.15450
567.67207,0.15004
566.64181,0.14585
565.61156,0.14276
564.58130,0.14028
563.55104,0.13846
562.52078,0.13775
561.49052,0.13684
560.46027,0.13369
559.43001,0.12984
558.39975,0.12857
557.36949,0.12859
556.33924,0.12718
555.30898,0.12489
554.27872,0.12260
553.24846,0.12042
552.21820,0.11879
551.18795,0.11750
550.15769,0.11537
549.12743,0.11294
548.09717,0.11172
547.06691,0.11035
546.03666,0.10736
545.00640,0.10433
543.97614,0.10263
542.94588,0.10172
541.91563,0.10055
540.88537,0.09882
539.85511,0.09781
538.82485,0.09679
537.79459,0.09511
536.76434,0.09443
535.73408,0.09389
534.70382,0.09228
533.67356,0.09083
532.64330,0.09067
531.61305,0.09157
530.58279,0.09221
529.55253,0.09151
528.52227,0.09034
527.49202,0.09005
526.46176,0.09031
525.43150,0.09120
524.40124,0.09372
523.37098,0.09733
522.34073,0.10198
521.31047,0.10900
520.28021,0.11797
519.24995,0.12934
518.21969,0.14479
517.18944,0.16382
516.15918,0.18559
515.12892,0.20945
514.09866,0.23177
513.06841,0.24644
512.03815,0.24970
511.00789,0.24132
509.97763,0.22638
508.94737,0.21095
507.91712,0.19598
506.88686,0.18108
505.85660,0.16827
504.82634,0.15785
503.79609,0.15050
502.76583,0.14825
501.73557,0.15022
500.70531,0.15555
499.67505,0.16543
498.64480,0.17973
497.61454,0.19720
496.58428,0.21840
495.55402,0.24595
494.52376,0.28165
493.49351,0.31990
492.46325,0.34532
491.43299,0.34334
490.40273,0.31741
489.37248,0.28365
488.34222,0.25038
487.31196,0.22035
486.28170,0.19636
485.25144,0.17891
484.22119,0.16715
483.19093,0.15985
482.16067,0.15622
481.13041,0.15594
480.10015,0.15860
479.06990,0.16479
478.03964,0.17421
477.00938,0.18604
475.97912,0.20055
474.94887,0.21663
473.91861,0.23112
472.88835,0.24521
471.85809,0.26465
470.82783,0.29027
469.79758,0.31917
468.76732,0.35068
467.73706,0.38345
466.70680,0.40667
465.67654,0.40713
464.64629,0.38523
463.61603,0.35242
462.58577,0.31714
461.55551,0.28058
460.52526,0.24621
459.49500,0.22007
458.46474,0.19949
457.43448,0.17976
456.40422,0.16483
455.37397,0.15481
454.34371,0.14703
453.31345,0.14096
452.28319,0.13340
451.25294,0.12269
450.22268,0.11442
449.19242,0.11014
448.16216,0.10593
447.13190,0.10167
446.10165,0.09807
445.07139,0.09604
444.04113,0.09607
443.01087,0.09457
441.98061,0.09089
440.95036,0.08867
439.92010,0.08592
438.88984,0.08198
437.85958,0.07985
436.82933,0.07858
435.79907,0.07887
434.76881,0.07989
433.73855,0.07788
432.70829,0.07477
431.67804,0.07256
430.64778,0.07038
429.61752,0.06816
428.58726,0.06582
427.55700,0.06340
426.52675,0.06075
425.49649,0.05995
424.46623,0.06216
423.43597,0.06432
422.40572,0.06520
421.37546,0.06693
420.34520,0.07283
419.31494,0.07774
418.28468,0.07024
417.25443,0.06226
416.22417,0.06096
415.19391,0.06195
414.16365,0.06203
413.13339,0.06007
412.10314,0.05917
411.07288,0.06083
410.04262,0.06268
409.01236,0.06596
407.98211,0.06832
406.95185,0.06530
405.92159,0.06311
404.89133,0.06755
403.86107,0.07595
402.83082,0.08103
401.80056,0.08232
400.77030,0.08737
399.74004,0.09633
