4998.81105,0.00034
4997.78079,0.00056
4996.75054,0.00092
4995.72028,0.00085
4994.69002,0.00086
4993.65976,0.00118
4992.62951,0.00153
4991.59925,0.00166
4990.56899,0.00119
4989.53873,0.00028
4988.50847,-0.00054
4987.47822,-0.00093
4986.44796,-0.00079
4985.41770,-0.00037
4984.38744,-0.00024
4983.35718,0.00037
4982.32693,0.00179
4981.29667,0.00233
4980.26641,0.00159
4979.23615,0.00071
4978.20590,0.00024
4977.17564,0.00019
4976.14538,0.00054
4975.11512,0.00090
4974.08486,0.00098
4973.05461,0.00095
4972.02435,0.00092
4970.99409,0.00089
4969.96383,0.00044
4968.93357,-0.00044
4967.90332,-0.00076
4966.87306,-0.00029
4965.84280,0.00030
4964.81254,0.00023
4963.78229,-0.00002
4962.75203,0.00049
4961.72177,0.00115
4960.69151,0.00136
4959.66125,0.00112
4958.63100,0.00085
4957.60074,0.00113
4956.57048,0.00152
4955.54022,0.00165
4954.50997,0.00181
4953.47971,0.00167
4952.44945,0.00084
4951.41919,0.00029
4950.38893,0.00098
4949.35868,0.00204
4948.32842,0.00231
4947.29816,0.00195
4946.26790,0.00163
4945.23764,0.00170
4944.20739,0.00186
4943.17713,0.00150
4942.14687,0.00136
4941.11661,0.00206
4940.08636,0.00253
4939.05610,0.00204
4938.02584,0.00091
4936.99558,0.00066
4935.96532,0.00165
4934.93507,0.00213
4933.90481,0.00158
4932.87455,0.00073
4931.84429,0.00037
4930.81403,0.00058
4929.78378,0.00056
4928.75352,0.00039
4927.72326,0.00106
4926.69300,0.00202
4925.66275,0.00212
4924.63249,0.00156
4923.60223,0.00074
4922.57197,0.00052
4921.54171,0.00118
4920.51146,0.00143
4919.48120,0.00070
4918.45094,0.00009
4917.42068,0.00023
4916.39042,0.00058
4915.36017,0.00061
4914.32991,0.00056
4913.29965,0.00071
4912.26939,0.00118
4911.23914,0.00184
4910.20888,0.00153
4909.17862,0.00117
4908.14836,0.00243
4907.11810,0.00296
4906.08785,0.00193
4905.05759,0.00159
4904.02733,0.00197
4902.99707,0.00215
4901.96682,0.00173
4900.93656,0.00079
4899.90630,0.00006
4898.87604,-0.00022
4897.84578,-0.00009
4896.81553,0.00074
4895.78527,0.00197
4894.75501,0.00232
4893.72475,0.00182
4892.69449,0.00172
4891.66424,0.00185
4890.63398,0.00174
4889.60372,0.00178
4888.57346,0.00174
4887.54321,0.00129
4886.51295,0.00109
4885.48269,0.00110
4884.45243,0.00101
4883.42217,0.00099
4882.39192,0.00109
4881.36166,0.00135
4880.33140,0.00114
4879.30114,0.00061
4878.27088,0.00045
4877.24063,0.00070
4876.21037,0.00159
4875.18011,0.00239
4874.14985,0.00184
4873.11960,0.00077
4872.08934,0.00056
4871.05908,0.00081
4870.02882,0.00093
4868.99856,0.00109
4867.96831,0.00068
4866.93805,-0.00016
4865.90779,-0.00001
4864.87753,0.00085
4863.84727,0.00101
4862.81702,0.00045
4861.78676,0.00067
4860.75650,0.00179
4859.72624,0.00201
4858.69599,0.00131
4857.66573,0.00071
4856.63547,0.00016
4855.60521,-0.00008
4854.57495,0.00061
4853.54470,0.00153
4852.51444,0.00168
4851.48418,0.00102
4850.45392,0.00047
4849.42367,0.00092
4848.39341,0.00184
4847.36315,0.00250
4846.33289,0.00237
4845.30263,0.00138
4844.27238,0.00065
4843.24212,0.00103
4842.21186,0.00192
4841.18160,0.00233
4840.15134,0.00219
4839.12109,0.00222
4838.09083,0.00262
4837.06057,0.00256
4836.03031,0.00190
4835.00006,0.00114
4833.96980,0.00059
4832.93954,0.00044
4831.90928,0.00066
4830.87902,0.00080
4829.84877,0.00057
4828.81851,0.00000
4827.78825,-0.00020
4826.75799,0.00081
4825.72773,0.00199
4824.69748,0.00233
4823.66722,0.00212
4822.63696,0.00177
4821.60670,0.00204
4820.57645,0.00258
4819.54619,0.00195
4818.51593,0.00060
4817.48567,-0.00007
4816.45541,0.00019
4815.42516,0.00091
4814.39490,0.00148
4813.36464,0.00149
4812.33438,0.00075
4811.30412,0.00026
4810.27387,0.00104
4809.24361,0.00196
4808.21335,0.00176
4807.18309,0.00079
4806.15284,0.00014
4805.12258,0.00040
4804.09232,0.00047
4803.06206,0.00006
4802.03180,0.00014
4801.00155,0.00028
4799.97129,-0.00001
4798.94103,-0.00028
4797.91077,-0.00021
4796.88052,0.00020
4795.85026,0.00045
4794.82000,0.00050
4793.78974,0.00089
4792.75948,0.00144
4791.72923,0.00146
4790.69897,0.00093
4789.66871,0.00029
4788.63845,0.00006
4787.60819,0.00022
4786.57794,0.00056
4785.54768,0.00053
4784.51742,-0.00016
4783.48716,-0.00037
4782.45691,0.00043
4781.42665,0.00183
4780.39639,0.00319
4779.36613,0.00349
4778.33587,0.00236
4777.30562,0.00106
4776.27536,0.00112
4775.24510,0.00203
4774.21484,0.00245
4773.18458,0.00217
4772.15433,0.00167
4771.12407,0.00143
4770.09381,0.00081
4769.06355,-0.00032
4768.03330,-0.00072
4767.00304,-0.00032
4765.97278,0.00025
4764.94252,0.00074
4763.91226,0.00079
4762.88201,0.00036
4761.85175,-0.00022
4760.82149,-0.00047
4759.79123,-0.00008
4758.76098,0.00057
4757.73072,0.00098
4756.70046,0.00106
4755.67020,0.00106
4754.63994,0.00115
4753.60969,0.00093
4752.57943,0.00065
4751.54917,0.00095
4750.51891,0.00096
4749.48865,0.00031
4748.45840,-0.00003
4747.42814,-0.00002
4746.39788,0.00015
4745.36762,0.00086
4744.33737,0.00175
4743.30711,0.00220
4742.27685,0.00186
4741.24659,0.00090
4740.21633,0.00026
4739.18608,0.00072
4738.15582,0.00122
4737.12556,0.00049
4736.09530,-0.00016
4735.06504,0.00025
4734.03479,0.00082
4733.00453,0.00063
4731.97427,0.00000
4730.94401,-0.00021
4729.91376,0.00003
4728.88350,0.00059
4727.85324,0.00135
4726.82298,0.00133
4725.79272,0.00045
4724.76247,0.00044
4723.73221,0.00109
4722.70195,0.00098
4721.67169,0.00080
4720.64143,0.00116
4719.61118,0.00154
4718.58092,0.00183
4717.55066,0.00219
4716.52040,0.00255
4715.49015,0.00230
4714.45989,0.00147
4713.42963,0.00094
4712.39937,0.00088
4711.36911,0.00113
4710.33886,0.00099
4709.30860,0.00007
4708.27834,-0.00020
4707.24808,0.00031
4706.21783,0.00061
4705.18757,0.00076
4704.15731,0.00083
4703.12705,0.00092
4702.09679,0.00112
4701.06654,0.00146
4700.03628,0.00162
4699.00602,0.00143
4697.97576,0.00120
4696.94550,0.00087
4695.91525,0.00104
4694.88499,0.00209
4693.85473,0.00255
4692.82447,0.00165
4691.79422,0.00055
4690.76396,0.00030
4689.73370,0.00058
4688.70344,0.00061
4687.67318,0.00067
4686.64293,0.00100
4685.61267,0.00099
4684.58241,0.00111
4683.55215,0.00138
4682.52189,0.00108
4681.49164,0.00129
4680.46138,0.00218
4679.43112,0.00226
4678.40086,0.00180
4677.37061,0.00148
4676.34035,0.00122
4675.31009,0.00124
4674.27983,0.00131
4673.24957,0.00150
4672.21932,0.00203
4671.18906,0.00198
4670.15880,0.00126
4669.12854,0.00064
4668.09828,0.00006
4667.06803,0.00007
4666.03777,0.00085
4665.00751,0.00122
4663.97725,0.00107
4662.94700,0.00092
4661.91674,0.00097
4660.88648,0.00132
4659.85622,0.00112
4658.82596,0.00041
4657.79571,0.00039
4656.76545,0.00114
4655.73519,0.00178
4654.70493,0.00140
4653.67468,0.00008
4652.64442,-0.00089
4651.61416,-0.00115
4650.58390,-0.00102
4649.55364,-0.00031
4648.52339,0.00058
4647.49313,0.00127
4646.46287,0.00177
4645.43261,0.00196
4644.40235,0.00169
4643.37210,0.00088
4642.34184,-0.00004
4641.31158,-0.00042
4640.28132,-0.00069
4639.25107,-0.00140
4638.22081,-0.00142
4637.19055,-0.00034
4636.16029,0.00047
4635.13003,0.00049
4634.09978,0.00033
4633.06952,0.00029
4632.03926,0.00051
4631.00900,0.00059
4629.97874,0.00021
4628.94849,0.00021
4627.91823,0.00051
4626.88797,0.00074
4625.85771,0.00112
4624.82746,0.00150
4623.79720,0.00136
4622.76694,0.00090
4621.73668,0.00093
4620.70642,0.00130
4619.67617,0.00155
4618.64591,0.00108
4617.61565,0.00040
4616.58539,0.00072
4615.55513,0.00126
4614.52488,0.00122
4613.49462,0.00117
4612.46436,0.00119
4611.43410,0.00107
4610.40385,0.00090
4609.37359,0.00064
4608.34333,0.00053
4607.31307,0.00047
4606.28281,0.00046
4605.25256,0.00115
4604.22230,0.00191
4603.19204,0.00184
4602.16178,0.00131
4601.13153,0.00074
4600.10127,0.00052
4599.07101,0.00077
4598.04075,0.00092
4597.01049,0.00110
4595.98024,0.00135
4594.94998,0.00143
4593.91972,0.00146
4592.88946,0.00106
4591.85920,0.00065
4590.82895,0.00068
4589.79869,0.00027
4588.76843,-0.00006
4587.73817,0.00063
4586.70792,0.00132
4585.67766,0.00146
4584.64740,0.00128
4583.61714,0.00063
4582.58688,0.00000
4581.55663,-0.00010
4580.52637,0.00005
4579.49611,-0.00027
4578.46585,-0.00118
4577.43559,-0.00153
4576.40534,-0.00067
4575.37508,0.00015
4574.34482,0.00034
4573.31456,0.00093
4572.28431,0.00171
4571.25405,0.00165
4570.22379,0.00137
4569.19353,0.00158
4568.16327,0.00207
4567.13302,0.00265
4566.10276,0.00289
4565.07250,0.00241
4564.04224,0.00187
4563.01198,0.00197
4561.98173,0.00220
4560.95147,0.00183
4559.92121,0.00143
4558.89095,0.00137
4557.86070,0.00113
4556.83044,0.00087
4555.80018,0.00069
4554.76992,0.00039
4553.73966,0.00032
4552.70941,0.00051
4551.67915,0.00039
4550.64889,0.00013
4549.61863,0.00038
4548.58838,0.00055
4547.55812,0.00042
4546.52786,0.00048
4545.49760,0.00047
4544.46734,0.00075
4543.43709,0.00137
4542.40683,0.00170
4541.37657,0.00163
4540.34631,0.00116
4539.31605,0.00051
4538.28580,0.00044
4537.25554,0.00102
4536.22528,0.00095
4535.19502,-0.00021
4534.16477,-0.00106
4533.13451,-0.00086
4532.10425,-0.00024
4531.07399,0.00050
4530.04373,0.00118
4529.01348,0.00118
4527.98322,0.00061
4526.95296,0.00039
4525.92270,0.00102
4524.89244,0.00163
4523.86219,0.00161
4522.83193,0.00144
4521.80167,0.00159
4520.77141,0.00181
4519.74116,0.00166
4518.71090,0.00133
4517.68064,0.00120
4516.65038,0.00094
4515.62012,0.00030
4514.58987,0.00007
4513.55961,0.00058
4512.52935,0.00074
4511.49909,0.00041
4510.46883,0.00033
4509.43858,0.00058
4508.40832,0.00109
4507.37806,0.00156
4506.34780,0.00163
4505.31755,0.00148
4504.28729,0.00113
4503.25703,0.00070
4502.22677,0.00045
4501.19651,0.00004
4500.16626,-0.00014
4499.13600,0.00067
4498.10574,0.00180
4497.07548,0.00256
4496.04523,0.00239
4495.01497,0.00121
4493.98471,0.00029
4492.95445,0.00023
4491.92419,0.00053
4490.89394,0.00080
4489.86368,0.00067
4488.83342,0.00025
4487.80316,0.00015
4486.77290,0.00054
4485.74265,0.00110
4484.71239,0.00161
4483.68213,0.00179
4482.65187,0.00151
4481.62162,0.00122
4480.59136,0.00124
4479.56110,0.00148
4478.53084,0.00190
4477.50058,0.00196
4476.47033,0.00156
4475.44007,0.00116
4474.40981,0.00104
4473.37955,0.00127
4472.34929,0.00161
4471.31904,0.00174
4470.28878,0.00142
4469.25852,0.00063
4468.22826,0.00035
4467.19801,0.00110
4466.16775,0.00154
4465.13749,0.00171
4464.10723,0.00200
4463.07697,0.00152
4462.04672,0.00112
4461.01646,0.00122
4459.98620,0.00105
4458.95594,0.00104
4457.92568,0.00132
4456.89543,0.00162
4455.86517,0.00190
4454.83491,0.00171
4453.80465,0.00118
4452.77440,0.00065
4451.74414,-0.00007
4450.71388,-0.00042
4449.68362,0.00021
4448.65336,0.00119
4447.62311,0.00167
4446.59285,0.00180
4445.56259,0.00183
4444.53233,0.00155
4443.50208,0.00126
4442.47182,0.00174
4441.44156,0.00255
4440.41130,0.00277
4439.38104,0.00231
4438.35079,0.00175
4437.32053,0.00180
4436.29027,0.00205
4435.26001,0.00187
4434.22975,0.00129
4433.19950,0.00070
4432.16924,0.00057
4431.13898,0.00059
4430.10872,0.00049
4429.07847,0.00037
4428.04821,0.00019
4427.01795,0.00028
4425.98769,0.00072
4424.95743,0.00097
4423.92718,0.00096
4422.89692,0.00131
4421.86666,0.00174
4420.83640,0.00160
4419.80614,0.00158
4418.77589,0.00154
4417.74563,0.00078
4416.71537,0.00002
4415.68511,0.00002
4414.65486,0.00077
4413.62460,0.00182
4412.59434,0.00242
4411.56408,0.00207
4410.53382,0.00112
4409.50357,0.00041
4408.47331,0.00043
4407.44305,0.00078
4406.41279,0.00084
4405.38253,0.00091
4404.35228,0.00102
4403.32202,0.00092
4402.29176,0.00090
4401.26150,0.00082
4400.23125,0.00074
4399.20099,0.00121
4398.17073,0.00146
4397.14047,0.00091
4396.11021,0.00082
4395.07996,0.00148
4394.04970,0.00190
4393.01944,0.00175
4391.98918,0.00138
4390.95893,0.00114
4389.92867,0.00109
4388.89841,0.00120
4387.86815,0.00153
4386.83789,0.00195
4385.80764,0.00196
4384.77738,0.00150
4383.74712,0.00141
4382.71686,0.00167
4381.68660,0.00129
4380.65635,0.00066
4379.62609,0.00093
4378.59583,0.00185
4377.56557,0.00206
4376.53532,0.00152
4375.50506,0.00114
4374.47480,0.00067
4373.44454,0.00048
4372.41428,0.00123
4371.38403,0.00216
4370.35377,0.00242
4369.32351,0.00200
4368.29325,0.00149
4367.26299,0.00139
4366.23274,0.00167
4365.20248,0.00176
4364.17222,0.00113
4363.14196,0.00038
4362.11171,0.00043
4361.08145,0.00119
4360.05119,0.00191
4359.02093,0.00187
4357.99067,0.00152
4356.96042,0.00152
4355.93016,0.00139
4354.89990,0.00102
4353.86964,0.00097
4352.83939,0.00148
4351.80913,0.00211
4350.77887,0.00191
4349.74861,0.00125
4348.71835,0.00124
4347.68810,0.00150
4346.65784,0.00152
4345.62758,0.00184
4344.59732,0.00240
4343.56706,0.00234
4342.53681,0.00186
4341.50655,0.00189
4340.47629,0.00217
4339.44603,0.00210
4338.41578,0.00218
4337.38552,0.00224
4336.35526,0.00173
4335.32500,0.00135
4334.29474,0.00129
4333.26449,0.00124
4332.23423,0.00189
4331.20397,0.00280
4330.17371,0.00287
4329.14345,0.00236
4328.11320,0.00212
4327.08294,0.00220
4326.05268,0.00173
4325.02242,0.00111
4323.99217,0.00140
4322.96191,0.00202
4321.93165,0.00223
4320.90139,0.00199
4319.87113,0.00165
4318.84088,0.00177
4317.81062,0.00210
4316.78036,0.00215
4315.75010,0.00210
4314.71984,0.00201
4313.68959,0.00183
4312.65933,0.00176
4311.62907,0.00178
4310.59881,0.00170
4309.56856,0.00143
4308.53830,0.00116
4307.50804,0.00140
4306.47778,0.00196
4305.44752,0.00223
4304.41727,0.00218
4303.38701,0.00192
4302.35675,0.00174
4301.32649,0.00157
4300.29624,0.00159
4299.26598,0.00198
4298.23572,0.00225
4297.20546,0.00256
4296.17520,0.00294
4295.14495,0.00274
4294.11469,0.00207
4293.08443,0.00166
4292.05417,0.00169
4291.02391,0.00207
4289.99366,0.00232
4288.96340,0.00193
4287.93314,0.00157
4286.90288,0.00162
4285.87263,0.00161
4284.84237,0.00175
4283.81211,0.00182
4282.78185,0.00129
4281.75159,0.00103
4280.72134,0.00168
4279.69108,0.00240
4278.66082,0.00238
4277.63056,0.00172
4276.60030,0.00108
4275.57005,0.00086
4274.53979,0.00119
4273.50953,0.00159
4272.47927,0.00163
4271.44902,0.00183
4270.41876,0.00230
4269.38850,0.00252
4268.35824,0.00233
4267.32798,0.00178
4266.29773,0.00092
4265.26747,0.00024
4264.23721,0.00053
4263.20695,0.00157
4262.17669,0.00202
4261.14644,0.00188
4260.11618,0.00164
4259.08592,0.00100
4258.05566,0.00035
4257.02541,-0.00004
4255.99515,-0.00003
4254.96489,0.00066
4253.93463,0.00142
4252.90437,0.00196
4251.87412,0.00233
4250.84386,0.00231
4249.81360,0.00188
4248.78334,0.00140
4247.75309,0.00139
4246.72283,0.00166
4245.69257,0.00190
4244.66231,0.00218
4243.63205,0.00212
4242.60180,0.00173
4241.57154,0.00163
4240.54128,0.00161
4239.51102,0.00127
4238.48076,0.00104
4237.45051,0.00109
4236.42025,0.00100
4235.38999,0.00066
4234.35973,0.00055
4233.32948,0.00114
4232.29922,0.00193
4231.26896,0.00239
4230.23870,0.00243
4229.20844,0.00200
4228.17819,0.00145
4227.14793,0.00137
4226.11767,0.00159
4225.08741,0.00161
4224.05715,0.00140
4223.02690,0.00119
4221.99664,0.00123
4220.96638,0.00136
4219.93612,0.00133
4218.90587,0.00129
4217.87561,0.00147
4216.84535,0.00193
4215.81509,0.00226
4214.78483,0.00211
4213.75458,0.00175
4212.72432,0.00193
4211.69406,0.00236
4210.66380,0.00205
4209.63354,0.00138
4208.60329,0.00135
4207.57303,0.00175
4206.54277,0.00187
4205.51251,0.00171
4204.48226,0.00174
4203.45200,0.00181
4202.42174,0.00136
4201.39148,0.00081
4200.36122,0.00098
4199.33097,0.00147
4198.30071,0.00155
4197.27045,0.00152
4196.24019,0.00178
4195.20994,0.00200
4194.17968,0.00170
4193.14942,0.00097
4192.11916,0.00062
4191.08890,0.00095
4190.05865,0.00129
4189.02839,0.00141
4187.99813,0.00144
4186.96787,0.00130
4185.93761,0.00136
4184.90736,0.00202
4183.87710,0.00260
4182.84684,0.00231
4181.81658,0.00155
4180.78633,0.00111
4179.75607,0.00122
4178.72581,0.00137
4177.69555,0.00124
4176.66529,0.00102
4175.63504,0.00111
4174.60478,0.00170
4173.57452,0.00226
4172.54426,0.00211
4171.51400,0.00131
4170.48375,0.00083
4169.45349,0.00089
4168.42323,0.00118
4167.39297,0.00200
4166.36272,0.00286
4165.33246,0.00288
4164.30220,0.00256
4163.27194,0.00245
4162.24168,0.00239
4161.21143,0.00229
4160.18117,0.00208
4159.15091,0.00181
4158.12065,0.00145
4157.09039,0.00119
4156.06014,0.00140
4155.02988,0.00169
4153.99962,0.00195
4152.96936,0.00242
4151.93911,0.00258
4150.90885,0.00227
4149.87859,0.00201
4148.84833,0.00206
4147.81807,0.00240
4146.78782,0.00254
4145.75756,0.00222
4144.72730,0.00179
4143.69704,0.00153
4142.66679,0.00162
4141.63653,0.00177
4140.60627,0.00187
4139.57601,0.00223
4138.54575,0.00257
4137.51550,0.00238
4136.48524,0.00208
4135.45498,0.00219
4134.42472,0.00236
4133.39446,0.00239
4132.36421,0.00248
4131.33395,0.00241
4130.30369,0.00230
4129.27343,0.00233
4128.24318,0.00222
4127.21292,0.00194
4126.18266,0.00167
4125.15240,0.00153
4124.12214,0.00143
4123.09189,0.00141
4122.06163,0.00154
4121.03137,0.00156
4120.00111,0.00143
4118.97085,0.00157
4117.94060,0.00206
4116.91034,0.00214
4115.88008,0.00152
4114.84982,0.00097
4113.81957,0.00128
4112.78931,0.00209
4111.75905,0.00224
4110.72879,0.00184
4109.69853,0.00178
4108.66828,0.00185
4107.63802,0.00196
4106.60776,0.00208
4105.57750,0.00164
4104.54724,0.00138
4103.51699,0.00186
4102.48673,0.00233
4101.45647,0.00234
4100.42621,0.00179
4099.39596,0.00086
4098.36570,0.00038
4097.33544,0.00069
4096.30518,0.00148
4095.27492,0.00243
4094.24467,0.00288
4093.21441,0.00279
4092.18415,0.00302
4091.15389,0.00340
4090.12364,0.00308
4089.09338,0.00227
4088.06312,0.00121
4087.03286,0.00053
4086.00260,0.00118
4084.97235,0.00231
4083.94209,0.00254
4082.91183,0.00213
4081.88157,0.00194
4080.85131,0.00218
4079.82106,0.00262
4078.79080,0.00274
4077.76054,0.00226
4076.73028,0.00174
4075.70003,0.00165
4074.66977,0.00182
4073.63951,0.00198
4072.60925,0.00200
4071.57899,0.00200
4070.54874,0.00224
4069.51848,0.00239
4068.48822,0.00227
4067.45796,0.00211
4066.42770,0.00205
4065.39745,0.00234
4064.36719,0.00249
4063.33693,0.00185
4062.30667,0.00137
4061.27642,0.00179
4060.24616,0.00220
4059.21590,0.00215
4058.18564,0.00234
4057.15538,0.00259
4056.12513,0.00242
4055.09487,0.00205
4054.06461,0.00207
4053.03435,0.00258
4052.00409,0.00287
4050.97384,0.00272
4049.94358,0.00246
4048.91332,0.00243
4047.88306,0.00271
4046.85281,0.00304
4045.82255,0.00303
4044.79229,0.00262
4043.76203,0.00233
4042.73177,0.00241
4041.70152,0.00250
4040.67126,0.00256
4039.64100,0.00300
4038.61074,0.00345
4037.58049,0.00321
4036.55023,0.00259
4035.51997,0.00229
4034.48971,0.00254
4033.45945,0.00309
4032.42920,0.00336
4031.39894,0.00327
4030.36868,0.00324
4029.33842,0.00331
4028.30816,0.00333
4027.27791,0.00319
4026.24765,0.00285
4025.21739,0.00260
4024.18713,0.00293
4023.15688,0.00353
4022.12662,0.00364
4021.09636,0.00321
4020.06610,0.00275
4019.03584,0.00267
4018.00559,0.00280
4016.97533,0.00286
4015.94507,0.00296
4014.91481,0.00305
4013.88455,0.00311
4012.85430,0.00320
4011.82404,0.00330
4010.79378,0.00348
4009.76352,0.00369
4008.73327,0.00382
4007.70301,0.00379
4006.67275,0.00349
4005.64249,0.00327
4004.61223,0.00334
4003.58198,0.00325
4002.55172,0.00313
4001.52146,0.00313
4000.49120,0.00277
3999.46095,0.00230
3998.43069,0.00230
3997.40043,0.00267
3996.37017,0.00299
3995.33991,0.00305
3994.30966,0.00313
3993.27940,0.00311
3992.24914,0.00279
3991.21888,0.00278
3990.18862,0.00329
3989.15837,0.00356
3988.12811,0.00313
3987.09785,0.00250
3986.06759,0.00212
3985.03734,0.00207
3984.00708,0.00251
3982.97682,0.00299
3981.94656,0.00302
3980.91630,0.00290
3979.88605,0.00295
3978.85579,0.00295
3977.82553,0.00266
3976.79527,0.00226
3975.76501,0.00216
3974.73476,0.00221
3973.70450,0.00241
3972.67424,0.00293
3971.64398,0.00317
3970.61373,0.00287
3969.58347,0.00242
3968.55321,0.00199
3967.52295,0.00192
3966.49269,0.00230
3965.46244,0.00267
3964.43218,0.00272
3963.40192,0.00255
3962.37166,0.00272
3961.34140,0.00318
3960.31115,0.00320
3959.28089,0.00284
3958.25063,0.00273
3957.22037,0.00266
3956.19012,0.00224
3955.15986,0.00200
3954.12960,0.00220
3953.09934,0.00265
3952.06908,0.00302
3951.03883,0.00302
3950.00857,0.00294
3948.97831,0.00303
3947.94805,0.00288
3946.91780,0.00249
3945.88754,0.00250
3944.85728,0.00265
3943.82702,0.00262
3942.79676,0.00280
3941.76651,0.00297
3940.73625,0.00280
3939.70599,0.00254
3938.67573,0.00240
3937.64547,0.00225
3936.61522,0.00217
3935.58496,0.00226
3934.55470,0.00236
3933.52444,0.00236
3932.49419,0.00230
3931.46393,0.00250
3930.43367,0.00278
3929.40341,0.00251
3928.37315,0.00184
3927.34290,0.00166
3926.31264,0.00224
3925.28238,0.00278
3924.25212,0.00256
3923.22186,0.00216
3922.19161,0.00228
3921.16135,0.00261
3920.13109,0.00293
3919.10083,0.00302
3918.07058,0.00275
3917.04032,0.00246
3916.01006,0.00220
3914.97980,0.00183
3913.94954,0.00184
3912.91929,0.00200
3911.88903,0.00182
3910.85877,0.00164
3909.82851,0.00166
3908.79825,0.00188
3907.76800,0.00222
3906.73774,0.00234
3905.70748,0.00224
3904.67722,0.00214
3903.64697,0.00204
3902.61671,0.00193
3901.58645,0.00181
3900.55619,0.00178
3899.52593,0.00190
3898.49568,0.00199
3897.46542,0.00200
3896.43516,0.00185
3895.40490,0.00164
3894.37465,0.00175
3893.34439,0.00206
3892.31413,0.00200
3891.28387,0.00167
3890.25361,0.00170
3889.22336,0.00177
3888.19310,0.00170
3887.16284,0.00185
3886.13258,0.00196
3885.10232,0.00171
3884.07207,0.00176
3883.04181,0.00207
3882.01155,0.00235
3880.98129,0.00257
3879.95104,0.00261
3878.92078,0.00232
3877.89052,0.00182
3876.86026,0.00153
3875.83000,0.00149
3874.79975,0.00154
3873.76949,0.00176
3872.73923,0.00182
3871.70897,0.00154
3870.67871,0.00146
3869.64846,0.00194
3868.61820,0.00236
3867.58794,0.00230
3866.55768,0.00213
3865.52743,0.00221
3864.49717,0.00237
3863.46691,0.00226
3862.43665,0.00180
3861.40639,0.00124
3860.37614,0.00110
3859.34588,0.00120
3858.31562,0.00129
3857.28536,0.00143
3856.25510,0.00156
3855.22485,0.00153
3854.19459,0.00177
3853.16433,0.00266
3852.13407,0.00309
3851.10382,0.00274
3850.07356,0.00215
3849.04330,0.00176
3848.01304,0.00152
3846.98278,0.00150
3845.95253,0.00165
3844.92227,0.00155
3843.89201,0.00146
3842.86175,0.00152
3841.83150,0.00154
3840.80124,0.00172
3839.77098,0.00196
3838.74072,0.00221
3837.71046,0.00275
3836.68021,0.00290
3835.64995,0.00217
3834.61969,0.00139
3833.58943,0.00134
3832.55917,0.00198
3831.52892,0.00268
3830.49866,0.00268
3829.46840,0.00216
3828.43814,0.00197
3827.40789,0.00228
3826.37763,0.00215
3825.34737,0.00148
3824.31711,0.00130
3823.28685,0.00168
3822.25660,0.00193
3821.22634,0.00204
3820.19608,0.00225
3819.16582,0.00208
3818.13556,0.00172
3817.10531,0.00179
3816.07505,0.00223
3815.04479,0.00212
3814.01453,0.00191
3812.98428,0.00201
3811.95402,0.00214
3810.92376,0.00235
3809.89350,0.00257
3808.86324,0.00285
3807.83299,0.00287
3806.80273,0.00209
3805.77247,0.00158
3804.74221,0.00213
3803.71195,0.00284
3802.68170,0.00279
3801.65144,0.00213
3800.62118,0.00192
3799.59092,0.00221
3798.56067,0.00238
3797.53041,0.00252
3796.50015,0.00301
3795.46989,0.00327
3794.43963,0.00263
3793.40938,0.00191
3792.37912,0.00185
3791.34886,0.00200
3790.31860,0.00208
3789.28835,0.00223
3788.25809,0.00222
3787.22783,0.00204
3786.19757,0.00192
3785.16731,0.00209
3784.13706,0.00256
3783.10680,0.00271
3782.07654,0.00227
3781.04628,0.00184
3780.01602,0.00173
3778.98577,0.00195
3777.95551,0.00259
3776.92525,0.00314
3775.89499,0.00302
3774.86474,0.00265
3773.83448,0.00261
3772.80422,0.00272
3771.77396,0.00268
3770.74370,0.00265
3769.71345,0.00283
3768.68319,0.00306
3767.65293,0.00332
3766.62267,0.00342
3765.59241,0.00313
3764.56216,0.00275
3763.53190,0.00252
3762.50164,0.00246
3761.47138,0.00233
3760.44113,0.00238
3759.41087,0.00318
3758.38061,0.00371
3757.35035,0.00317
3756.32009,0.00260
3755.28984,0.00260
3754.25958,0.00278
3753.22932,0.00320
3752.19906,0.00370
3751.16880,0.00389
3750.13855,0.00395
3749.10829,0.00359
3748.07803,0.00319
3747.04777,0.00318
3746.01752,0.00294
3744.98726,0.00218
3743.95700,0.00201
3742.92674,0.00269
3741.89648,0.00302
3740.86623,0.00292
3739.83597,0.00275
3738.80571,0.00305
3737.77545,0.00361
3736.74520,0.00388
3735.71494,0.00375
3734.68468,0.00365
3733.65442,0.00420
3732.62416,0.00483
3731.59391,0.00461
3730.56365,0.00406
3729.53339,0.00391
3728.50313,0.00412
3727.47287,0.00451
3726.44262,0.00451
3725.41236,0.00380
3724.38210,0.00319
3723.35184,0.00326
3722.32159,0.00392
3721.29133,0.00451
3720.26107,0.00470
3719.23081,0.00475
3718.20055,0.00442
3717.17030,0.00360
3716.14004,0.00312
3715.10978,0.00353
3714.07952,0.00436
3713.04926,0.00493
3712.01901,0.00527
3710.98875,0.00537
3709.95849,0.00507
3708.92823,0.00469
3707.89798,0.00447
3706.86772,0.00461
3705.83746,0.00516
3704.80720,0.00541
3703.77694,0.00490
3702.74669,0.00445
3701.71643,0.00456
3700.68617,0.00463
3699.65591,0.00479
3698.62565,0.00522
3697.59540,0.00541
3696.56514,0.00527
3695.53488,0.00535
3694.50462,0.00593
3693.47437,0.00666
3692.44411,0.00712
3691.41385,0.00714
3690.38359,0.00715
3689.35333,0.00747
3688.32308,0.00793
3687.29282,0.00843
3686.26256,0.00861
3685.23230,0.00853
3684.20205,0.00843
3683.17179,0.00851
3682.14153,0.00876
3681.11127,0.00858
3680.08101,0.00794
3679.05076,0.00784
3678.02050,0.00879
3676.99024,0.01025
3675.95998,0.01176
3674.92972,0.01202
3673.89947,0.01116
3672.86921,0.01090
3671.83895,0.01157
3670.80869,0.01282
3669.77844,0.01367
3668.74818,0.01369
3667.71792,0.01317
3666.68766,0.01294
3665.65740,0.01349
3664.62715,0.01447
3663.59689,0.01535
3662.56663,0.01589
3661.53637,0.01617
3660.50611,0.01635
3659.47586,0.01650
3658.44560,0.01646
3657.41534,0.01641
3656.38508,0.01702
3655.35483,0.01822
3654.32457,0.01893
3653.29431,0.01917
3652.26405,0.01970
3651.23379,0.02049
3650.20354,0.02138
3649.17328,0.02219
3648.14302,0.02259
3647.11276,0.02316
3646.08250,0.02375
3645.05225,0.02393
3644.02199,0.02414
3642.99173,0.02461
3641.96147,0.02515
3640.93122,0.02562
3639.90096,0.02572
3638.87070,0.02587
3637.84044,0.02680
3636.81018,0.02778
3635.77993,0.02825
3634.74967,0.02870
3633.71941,0.02909
3632.68915,0.02951
3631.65890,0.03021
3630.62864,0.03118
3629.59838,0.03276
3628.56812,0.03395
3627.53786,0.03398
3626.50761,0.03430
3625.47735,0.03500
3624.44709,0.03547
3623.41683,0.03564
3622.38657,0.03578
3621.35632,0.03600
3620.32606,0.03654
3619.29580,0.03748
3618.26554,0.03832
3617.23529,0.03880
3616.20503,0.03926
3615.17477,0.04017
3614.14451,0.04148
3613.11425,0.04264
3612.08400,0.04338
3611.05374,0.04421
3610.02348,0.04530
3608.99322,0.04603
3607.96296,0.04623
3606.93271,0.04666
3605.90245,0.04742
3604.87219,0.04821
3603.84193,0.04892
3602.81168,0.04949
3601.78142,0.05001
3600.75116,0.05067
3599.72090,0.05154
3598.69064,0.05237
3597.66039,0.05318
3596.63013,0.05410
3595.59987,0.05478
3594.56961,0.05519
3593.53936,0.05566
3592.50910,0.05652
3591.47884,0.05765
3590.44858,0.05876
3589.41832,0.05985
3588.38807,0.06089
3587.35781,0.06153
3586.32755,0.06176
3585.29729,0.06233
3584.26703,0.06338
3583.23678,0.06422
3582.20652,0.06468
3581.17626,0.06539
3580.14600,0.06640
3579.11575,0.06744
3578.08549,0.06862
3577.05523,0.06968
3576.02497,0.07031
3574.99471,0.07111
3573.96446,0.07242
3572.93420,0.07357
3571.90394,0.07418
3570.87368,0.07474
3569.84342,0.07570
3568.81317,0.07702
3567.78291,0.07824
3566.75265,0.07914
3565.72239,0.08011
3564.69214,0.08106
3563.66188,0.08185
3562.63162,0.08284
3561.60136,0.08425
3560.57110,0.08570
3559.54085,0.08654
3558.51059,0.08672
3557.48033,0.08713
3556.45007,0.08849
3555.41981,0.09032
3554.38956,0.09157
3553.35930,0.09201
3552.32904,0.09237
3551.29878,0.09312
3550.26853,0.09407
3549.23827,0.09520
3548.20801,0.09652
3547.17775,0.09763
3546.14749,0.09840
3545.11724,0.09910
3544.08698,0.09992
3543.05672,0.10071
3542.02646,0.10117
3540.99621,0.10173
3539.96595,0.10295
3538.93569,0.10446
3537.90543,0.10537
3536.87517,0.10588
3535.84492,0.10665
3534.81466,0.10754
3533.78440,0.10830
3532.75414,0.10922
3531.72388,0.11051
3530.69363,0.11184
3529.66337,0.11262
3528.63311,0.11311
3527.60285,0.11403
3526.57260,0.11509
3525.54234,0.11547
3524.51208,0.11573
3523.48182,0.11689
3522.45156,0.11849
3521.42131,0.11979
3520.39105,0.12105
3519.36079,0.12199
3518.33053,0.12218
3517.30027,0.12223
3516.27002,0.12309
3515.23976,0.12443
3514.20950,0.12515
3513.17924,0.12544
3512.14899,0.12617
3511.11873,0.12725
3510.08847,0.12825
3509.05821,0.12934
3508.02795,0.13052
3506.99770,0.13147
3505.96744,0.13233
3504.93718,0.13318
3503.90692,0.13369
3502.87666,0.13406
3501.84641,0.13495
3500.81615,0.13598
3499.78589,0.13655
3498.75563,0.13678
3497.72538,0.13691
3496.69512,0.13727
3495.66486,0.13809
3494.63460,0.13929
3493.60434,0.14045
3492.57409,0.14110
3491.54383,0.14153
3490.51357,0.14216
3489.48331,0.14279
3488.45306,0.14322
3487.42280,0.14365
3486.39254,0.14420
3485.36228,0.14512
3484.33202,0.14636
3483.30177,0.14716
3482.27151,0.14738
3481.24125,0.14795
3480.21099,0.14912
3479.18073,0.14991
3478.15048,0.14995
3477.12022,0.14987
3476.08996,0.15031
3475.05970,0.15148
3474.02945,0.15285
3472.99919,0.15379
3471.96893,0.15428
3470.93867,0.15457
3469.90841,0.15488
3468.87816,0.15561
3467.84790,0.15636
3466.81764,0.15666
3465.78738,0.15735
3464.75712,0.15872
3463.72687,0.15955
3462.69661,0.15961
3461.66635,0.15974
3460.63609,0.16036
3459.60584,0.16124
3458.57558,0.16181
3457.54532,0.16241
3456.51506,0.16334
3455.48480,0.16396
3454.45455,0.16429
3453.42429,0.16486
3452.39403,0.16546
3451.36377,0.16592
3450.33351,0.16656
3449.30326,0.16699
3448.27300,0.16694
3447.24274,0.16725
3446.21248,0.16834
3445.18223,0.16917
3444.15197,0.16940
3443.12171,0.16983
3442.09145,0.17068
3441.06119,0.17163
3440.03094,0.17249
3439.00068,0.17330
3437.97042,0.17405
3436.94016,0.17464
3435.90991,0.17509
3434.87965,0.17547
3433.84939,0.17571
3432.81913,0.17602
3431.78887,0.17667
3430.75862,0.17734
3429.72836,0.17778
3428.69810,0.17832
3427.66784,0.17941
3426.63758,0.18054
3425.60733,0.18124
3424.57707,0.18170
3423.54681,0.18173
3422.51655,0.18141
3421.48630,0.18162
3420.45604,0.18241
3419.42578,0.18303
3418.39552,0.18360
3417.36526,0.18449
3416.33501,0.18527
3415.30475,0.18533
3414.27449,0.18494
3413.24423,0.18515
3412.21397,0.18586
3411.18372,0.18639
3410.15346,0.18664
3409.12320,0.18684
3408.09294,0.18737
3407.06269,0.18795
3406.03243,0.18816
3405.00217,0.18855
3403.97191,0.18895
3402.94165,0.18902
3401.91140,0.18906
3400.88114,0.18881
3399.85088,0.18880
3398.82062,0.18965
3397.79036,0.19034
3396.76011,0.19028
3395.72985,0.19016
3394.69959,0.19059
3393.66933,0.19137
3392.63908,0.19179
3391.60882,0.19173
3390.57856,0.19144
3389.54830,0.19106
3388.51804,0.19130
3387.48779,0.19229
3386.45753,0.19282
3385.42727,0.19253
3384.39701,0.19249
3383.36676,0.19301
3382.33650,0.19338
3381.30624,0.19314
3380.27598,0.19266
3379.24572,0.19246
3378.21547,0.19241
3377.18521,0.19216
3376.15495,0.19204
3375.12469,0.19275
3374.09443,0.19343
3373.06418,0.19285
3372.03392,0.19197
3371.00366,0.19187
3369.97340,0.19198
3368.94315,0.19188
3367.91289,0.19156
3366.88263,0.19129
3365.85237,0.19161
3364.82211,0.19196
3363.79186,0.19175
3362.76160,0.19154
3361.73134,0.19135
3360.70108,0.19114
3359.67082,0.19110
3358.64057,0.19087
3357.61031,0.19070
3356.58005,0.19100
3355.54979,0.19116
3354.51954,0.19084
3353.48928,0.19050
3352.45902,0.19028
3351.42876,0.19027
3350.39850,0.19054
3349.36825,0.19071
3348.33799,0.19063
3347.30773,0.19049
3346.27747,0.19013
3345.24721,0.18945
3344.21696,0.18892
3343.18670,0.18867
3342.15644,0.18841
3341.12618,0.18812
3340.09593,0.18778
3339.06567,0.18759
3338.03541,0.18774
3337.00515,0.18787
3335.97489,0.18739
3334.94464,0.18637
3333.91438,0.18557
3332.88412,0.18557
3331.85386,0.18588
3330.82361,0.18573
3329.79335,0.18558
3328.76309,0.18587
3327.73283,0.18595
3326.70257,0.18547
3325.67232,0.18492
3324.64206,0.18471
3323.61180,0.18474
3322.58154,0.18482
3321.55128,0.18492
3320.52103,0.18491
3319.49077,0.18484
3318.46051,0.18493
3317.43025,0.18492
3316.40000,0.18458
3315.36974,0.18413
3314.33948,0.18370
3313.30922,0.18353
3312.27896,0.18345
3311.24871,0.18307
3310.21845,0.18294
3309.18819,0.18359
3308.15793,0.18410
3307.12767,0.18328
3306.09742,0.18210
3305.06716,0.18183
3304.03690,0.18169
3303.00664,0.18141
3301.97639,0.18159
3300.94613,0.18188
3299.91587,0.18193
3298.88561,0.18185
3297.85535,0.18185
3296.82510,0.18184
3295.79484,0.18167
3294.76458,0.18168
3293.73432,0.18192
3292.70406,0.18218
3291.67381,0.18232
3290.64355,0.18224
3289.61329,0.18172
3288.58303,0.18095
3287.55278,0.18053
3286.52252,0.18045
3285.49226,0.18044
3284.46200,0.18036
3283.43174,0.18017
3282.40149,0.18005
3281.37123,0.18029
3280.34097,0.18037
3279.31071,0.17994
3278.28046,0.17992
3277.25020,0.18036
3276.21994,0.18039
3275.18968,0.18007
3274.15942,0.18004
3273.12917,0.18039
3272.09891,0.18062
3271.06865,0.18042
3270.03839,0.17975
3269.00813,0.17914
3267.97788,0.17925
3266.94762,0.17978
3265.91736,0.18020
3264.88710,0.18032
3263.85685,0.18000
3262.82659,0.17954
3261.79633,0.17925
3260.76607,0.17911
3259.73581,0.17875
3258.70556,0.17800
3257.67530,0.17770
3256.64504,0.17782
3255.61478,0.17759
3254.58452,0.17735
3253.55427,0.17725
3252.52401,0.17689
3251.49375,0.17682
3250.46349,0.17719
3249.43324,0.17701
3248.40298,0.17636
3247.37272,0.17621
3246.34246,0.17620
3245.31220,0.17587
3244.28195,0.17543
3243.25169,0.17508
3242.22143,0.17515
3241.19117,0.17536
3240.16092,0.17492
3239.13066,0.17416
3238.10040,0.17365
3237.07014,0.17311
3236.03988,0.17261
3235.00963,0.17225
3233.97937,0.17149
3232.94911,0.17067
3231.91885,0.17049
3230.88859,0.17044
3229.85834,0.17004
3228.82808,0.16983
3227.79782,0.17003
3226.76756,0.17004
3225.73731,0.16926
3224.70705,0.16834
3223.67679,0.16811
3222.64653,0.16816
3221.61627,0.16808
3220.58602,0.16766
3219.55576,0.16700
3218.52550,0.16670
3217.49524,0.16649
3216.46498,0.16597
3215.43473,0.16544
3214.40447,0.16476
3213.37421,0.16393
3212.34395,0.16369
3211.31370,0.16395
3210.28344,0.16364
3209.25318,0.16254
3208.22292,0.16134
3207.19266,0.16071
3206.16241,0.16052
3205.13215,0.16024
3204.10189,0.15950
3203.07163,0.15838
3202.04137,0.15762
3201.01112,0.15748
3199.98086,0.15774
3198.95060,0.15808
3197.92034,0.15774
3196.89009,0.15670
3195.85983,0.15565
3194.82957,0.15504
3193.79931,0.15471
3192.76905,0.15426
3191.73880,0.15369
3190.70854,0.15319
3189.67828,0.15293
3188.64802,0.15273
3187.61777,0.15223
3186.58751,0.15144
3185.55725,0.15036
3184.52699,0.14947
3183.49673,0.14924
3182.46648,0.14916
3181.43622,0.14865
3180.40596,0.14774
3179.37570,0.14692
3178.34544,0.14641
3177.31519,0.14601
3176.28493,0.14573
3175.25467,0.14543
3174.22441,0.14478
3173.19416,0.14384
3172.16390,0.14287
3171.13364,0.14235
3170.10338,0.14265
3169.07312,0.14274
3168.04287,0.14186
3167.01261,0.14093
3165.98235,0.14045
3164.95209,0.14007
3163.92183,0.13971
3162.89158,0.13933
3161.86132,0.13864
3160.83106,0.13763
3159.80080,0.13670
3158.77055,0.13593
3157.74029,0.13531
3156.71003,0.13479
3155.67977,0.13429
3154.64951,0.13386
3153.61926,0.13359
3152.58900,0.13333
3151.55874,0.13278
3150.52848,0.13210
3149.49822,0.13158
3148.46797,0.13119
3147.43771,0.13110
3146.40745,0.13088
3145.37719,0.13024
3144.34694,0.12959
3143.31668,0.12887
3142.28642,0.12830
3141.25616,0.12803
3140.22590,0.12738
3139.19565,0.12643
3138.16539,0.12577
3137.13513,0.12528
3136.10487,0.12472
3135.07462,0.12426
3134.04436,0.12410
3133.01410,0.12419
3131.98384,0.12418
3130.95358,0.12368
3129.92333,0.12283
3128.89307,0.12224
3127.86281,0.12188
3126.83255,0.12119
3125.80229,0.12034
3124.77204,0.11987
3123.74178,0.11976
3122.71152,0.11956
3121.68126,0.11894
3120.65101,0.11813
3119.62075,0.11740
3118.59049,0.11676
3117.56023,0.11629
3116.52997,0.11584
3115.49972,0.11522
3114.46946,0.11479
3113.43920,0.11467
3112.40894,0.11459
3111.37868,0.11432
3110.34843,0.11390
3109.31817,0.11347
3108.28791,0.11306
3107.25765,0.11272
3106.22740,0.11228
3105.19714,0.11163
3104.16688,0.11096
3103.13662,0.11027
3102.10636,0.10953
3101.07611,0.10899
3100.04585,0.10886
3099.01559,0.10898
3097.98533,0.10870
3096.95507,0.10785
3095.92482,0.10701
3094.89456,0.10665
3093.86430,0.10666
3092.83404,0.10686
3091.80379,0.10701
3090.77353,0.10642
3089.74327,0.10513
3088.71301,0.10430
3087.68275,0.10430
3086.65250,0.10436
3085.62224,0.10383
3084.59198,0.10298
3083.56172,0.10236
3082.53147,0.10192
3081.50121,0.10139
3080.47095,0.10086
3079.44069,0.10052
3078.41043,0.10017
3077.38018,0.09962
3076.34992,0.09913
3075.31966,0.09866
3074.28940,0.09799
3073.25914,0.09751
3072.22889,0.09768
3071.19863,0.09811
3070.16837,0.09813
3069.13811,0.09753
3068.10786,0.09656
3067.07760,0.09564
3066.04734,0.09517
3065.01708,0.09515
3063.98682,0.09513
3062.95657,0.09483
3061.92631,0.09434
3060.89605,0.09384
3059.86579,0.09350
3058.83553,0.09333
3057.80528,0.09319
3056.77502,0.09298
3055.74476,0.09256
3054.71450,0.09214
3053.68425,0.09216
3052.65399,0.09224
3051.62373,0.09191
3050.59347,0.09133
3049.56321,0.09062
3048.53296,0.09002
3047.50270,0.08980
3046.47244,0.08950
3045.44218,0.08899
3044.41192,0.08886
3043.38167,0.08888
3042.35141,0.08845
3041.32115,0.08790
3040.29089,0.08761
3039.26064,0.08747
3038.23038,0.08744
3037.20012,0.08752
3036.16986,0.08731
3035.13960,0.08674
3034.10935,0.08626
3033.07909,0.08589
3032.04883,0.08546
3031.01857,0.08524
3029.98832,0.08536
3028.95806,0.08543
3027.92780,0.08494
3026.89754,0.08403
3025.86728,0.08344
3024.83703,0.08318
3023.80677,0.08290
3022.77651,0.08265
3021.74625,0.08217
3020.71599,0.08154
3019.68574,0.08115
3018.65548,0.08091
3017.62522,0.08073
3016.59496,0.08045
3015.56471,0.07989
3014.53445,0.07919
3013.50419,0.07851
3012.47393,0.07800
3011.44367,0.07764
3010.41342,0.07723
3009.38316,0.07687
3008.35290,0.07669
3007.32264,0.07662
3006.29238,0.07649
3005.26213,0.07619
3004.23187,0.07586
3003.20161,0.07540
3002.17135,0.07494
3001.14110,0.07466
3000.11084,0.07437
2999.08058,0.07428
2998.05032,0.07426
2997.02006,0.07380
2995.98981,0.07309
2994.95955,0.07263
2993.92929,0.07269
2992.89903,0.07293
2991.86877,0.07299
2990.83852,0.07301
2989.80826,0.07292
2988.77800,0.07263
2987.74774,0.07247
2986.71749,0.07257
2985.68723,0.07268
2984.65697,0.07274
2983.62671,0.07300
2982.59645,0.07357
2981.56620,0.07400
2980.53594,0.07400
2979.50568,0.07388
2978.47542,0.07385
2977.44517,0.07427
2976.41491,0.07539
2975.38465,0.07653
2974.35439,0.07735
2973.32413,0.07802
2972.29388,0.07857
2971.26362,0.07915
2970.23336,0.08008
2969.20310,0.08139
2968.17284,0.08268
2967.14259,0.08393
2966.11233,0.08490
2965.08207,0.08530
2964.05181,0.08562
2963.02156,0.08642
2961.99130,0.08768
2960.96104,0.08902
2959.93078,0.08992
2958.90052,0.09026
2957.87027,0.09044
2956.84001,0.09052
2955.80975,0.09085
2954.77949,0.09180
2953.74923,0.09285
2952.71898,0.09352
2951.68872,0.09375
2950.65846,0.09377
2949.62820,0.09392
2948.59795,0.09422
2947.56769,0.09431
2946.53743,0.09418
2945.50717,0.09419
2944.47691,0.09454
2943.44666,0.09497
2942.41640,0.09512
2941.38614,0.09525
2940.35588,0.09564
2939.32562,0.09609
2938.29537,0.09639
2937.26511,0.09650
2936.23485,0.09665
2935.20459,0.09709
2934.17434,0.09751
2933.14408,0.09763
2932.11382,0.09763
2931.08356,0.09772
2930.05330,0.09810
2929.02305,0.09865
2927.99279,0.09911
2926.96253,0.09962
2925.93227,0.10014
2924.90202,0.10064
2923.87176,0.10117
2922.84150,0.10161
2921.81124,0.10209
2920.78098,0.10267
2919.75073,0.10333
2918.72047,0.10390
2917.69021,0.10394
2916.65995,0.10374
2915.62969,0.10403
2914.59944,0.10455
2913.56918,0.10466
2912.53892,0.10455
2911.50866,0.10465
2910.47841,0.10492
2909.44815,0.10508
2908.41789,0.10524
2907.38763,0.10551
2906.35737,0.10544
2905.32712,0.10485
2904.29686,0.10431
2903.26660,0.10419
2902.23634,0.10433
2901.20608,0.10453
2900.17583,0.10463
2899.14557,0.10475
2898.11531,0.10507
2897.08505,0.10524
2896.05480,0.10491
2895.02454,0.10459
2893.99428,0.10466
2892.96402,0.10477
2891.93376,0.10478
2890.90351,0.10494
2889.87325,0.10545
2888.84299,0.10606
2887.81273,0.10640
2886.78247,0.10659
2885.75222,0.10701
2884.72196,0.10772
2883.69170,0.10863
2882.66144,0.10947
2881.63119,0.11013
2880.60093,0.11056
2879.57067,0.11054
2878.54041,0.11022
2877.51015,0.11012
2876.47990,0.11045
2875.44964,0.11097
2874.41938,0.11113
2873.38912,0.11093
2872.35887,0.11062
2871.32861,0.11013
2870.29835,0.10948
2869.26809,0.10860
2868.23783,0.10750
2867.20758,0.10648
2866.17732,0.10561
2865.14706,0.10444
2864.11680,0.10280
2863.08654,0.10110
2862.05629,0.09941
2861.02603,0.09753
2859.99577,0.09550
2858.96551,0.09359
2857.93526,0.09187
2856.90500,0.08987
2855.87474,0.08761
2854.84448,0.08579
2853.81422,0.08428
2852.78397,0.08246
2851.75371,0.08052
2850.72345,0.07887
2849.69319,0.07740
2848.66293,0.07608
2847.63268,0.07470
2846.60242,0.07293
2845.57216,0.07097
2844.54190,0.06914
2843.51165,0.06760
2842.48139,0.06634
2841.45113,0.06517
2840.42087,0.06404
2839.39061,0.06320
2838.36036,0.06261
2837.33010,0.06189
2836.29984,0.06092
2835.26958,0.05978
2834.23933,0.05863
2833.20907,0.05767
2832.17881,0.05686
2831.14855,0.05610
2830.11829,0.05541
2829.08804,0.05476
2828.05778,0.05411
2827.02752,0.05362
2825.99726,0.05327
2824.96700,0.05271
2823.93675,0.05196
2822.90649,0.05151
2821.87623,0.05133
2820.84597,0.05089
2819.81572,0.05003
2818.78546,0.04917
2817.75520,0.04865
2816.72494,0.04820
2815.69468,0.04778
2814.66443,0.04748
2813.63417,0.04702
2812.60391,0.04630
2811.57365,0.04578
2810.54339,0.04570
2809.51314,0.04553
2808.48288,0.04493
2807.45262,0.04430
2806.42236,0.04389
2805.39211,0.04345
2804.36185,0.04291
2803.33159,0.04242
2802.30133,0.04185
2801.27107,0.04127
2800.24082,0.04077
2799.21056,0.04009
2798.18030,0.03941
2797.15004,0.03912
2796.11978,0.03892
2795.08953,0.03858
2794.05927,0.03808
2793.02901,0.03741
2791.99875,0.03685
2790.96850,0.03652
2789.93824,0.03640
2788.90798,0.03635
2787.87772,0.03613
2786.84746,0.03564
2785.81721,0.03511
2784.78695,0.03476
2783.75669,0.03460
2782.72643,0.03460
2781.69618,0.03460
2780.66592,0.03445
2779.63566,0.03414
2778.60540,0.03375
2777.57514,0.03320
2776.54489,0.03258
2775.51463,0.03237
2774.48437,0.03249
2773.45411,0.03259
2772.42385,0.03245
2771.39360,0.03203
2770.36334,0.03148
2769.33308,0.03090
2768.30282,0.03033
2767.27257,0.02992
2766.24231,0.02980
2765.21205,0.02989
2764.18179,0.02987
2763.15153,0.02952
2762.12128,0.02918
2761.09102,0.02927
2760.06076,0.02949
2759.03050,0.02938
2758.00024,0.02899
2756.96999,0.02851
2755.93973,0.02815
2754.90947,0.02815
2753.87921,0.02827
2752.84896,0.02815
2751.81870,0.02785
2750.78844,0.02776
2749.75818,0.02793
2748.72792,0.02808
2747.69767,0.02802
2746.66741,0.02781
2745.63715,0.02757
2744.60689,0.02726
2743.57663,0.02699
2742.54638,0.02693
2741.51612,0.02689
2740.48586,0.02669
2739.45560,0.02647
2738.42535,0.02619
2737.39509,0.02585
2736.36483,0.02556
2735.33457,0.02529
2734.30431,0.02512
2733.27406,0.02510
2732.24380,0.02496
2731.21354,0.02470
2730.18328,0.02474
2729.15303,0.02500
2728.12277,0.02507
2727.09251,0.02491
2726.06225,0.02475
2725.03199,0.02466
2724.00174,0.02443
2722.97148,0.02403
2721.94122,0.02379
2720.91096,0.02373
2719.88070,0.02363
2718.85045,0.02341
2717.82019,0.02310
2716.78993,0.02272
2715.75967,0.02245
2714.72942,0.02218
2713.69916,0.02181
2712.66890,0.02171
2711.63864,0.02194
2710.60838,0.02203
2709.57813,0.02183
2708.54787,0.02174
2707.51761,0.02172
2706.48735,0.02150
2705.45709,0.02130
2704.42684,0.02115
2703.39658,0.02111
2702.36632,0.02110
2701.33606,0.02080
2700.30581,0.02035
2699.27555,0.02010
2698.24529,0.02009
2697.21503,0.02009
2696.18477,0.01996
2695.15452,0.01970
2694.12426,0.01939
2693.09400,0.01924
2692.06374,0.01912
2691.03348,0.01898
2690.00323,0.01899
2688.97297,0.01903
2687.94271,0.01884
2686.91245,0.01854
2685.88220,0.01820
2684.85194,0.01779
2683.82168,0.01741
2682.79142,0.01734
2681.76116,0.01760
2680.73091,0.01775
2679.70065,0.01741
2678.67039,0.01691
2677.64013,0.01670
2676.60988,0.01666
2675.57962,0.01653
2674.54936,0.01647
2673.51910,0.01651
2672.48884,0.01637
2671.45859,0.01623
2670.42833,0.01637
2669.39807,0.01641
2668.36781,0.01622
2667.33755,0.01600
2666.30730,0.01586
2665.27704,0.01581
2664.24678,0.01571
2663.21652,0.01542
2662.18627,0.01526
2661.15601,0.01523
2660.12575,0.01495
2659.09549,0.01477
2658.06523,0.01498
2657.03498,0.01519
2656.00472,0.01511
2654.97446,0.01464
2653.94420,0.01397
2652.91394,0.01366
2651.88369,0.01386
2650.85343,0.01406
2649.82317,0.01416
2648.79291,0.01433
2647.76266,0.01435
2646.73240,0.01402
2645.70214,0.01372
2644.67188,0.01374
2643.64162,0.01375
2642.61137,0.01361
2641.58111,0.01372
2640.55085,0.01396
2639.52059,0.01377
2638.49033,0.01328
2637.46008,0.01309
2636.42982,0.01321
2635.39956,0.01333
2634.36930,0.01323
2633.33905,0.01295
2632.30879,0.01283
2631.27853,0.01293
2630.24827,0.01294
2629.21801,0.01270
2628.18776,0.01234
2627.15750,0.01207
2626.12724,0.01201
2625.09698,0.01202
2624.06673,0.01200
2623.03647,0.01200
2622.00621,0.01207
2620.97595,0.01224
2619.94569,0.01241
2618.91544,0.01252
2617.88518,0.01234
2616.85492,0.01170
2615.82466,0.01118
2614.79440,0.01101
2613.76415,0.01080
2612.73389,0.01070
2611.70363,0.01125
2610.67337,0.01196
2609.64312,0.01195
2608.61286,0.01163
2607.58260,0.01172
2606.55234,0.01189
2605.52208,0.01176
2604.49183,0.01143
2603.46157,0.01129
2602.43131,0.01152
2601.40105,0.01160
2600.37079,0.01133
2599.34054,0.01123
2598.31028,0.01147
2597.28002,0.01159
2596.24976,0.01126
2595.21951,0.01084
2594.18925,0.01079
2593.15899,0.01113
2592.12873,0.01125
2591.09847,0.01080
2590.06822,0.01013
2589.03796,0.00964
2588.00770,0.00964
2586.97744,0.01003
2585.94718,0.01056
2584.91693,0.01093
2583.88667,0.01094
2582.85641,0.01078
2581.82615,0.01052
2580.79590,0.01041
2579.76564,0.01058
2578.73538,0.01044
2577.70512,0.00984
2576.67486,0.00974
2575.64461,0.01039
2574.61435,0.01057
2573.58409,0.01000
2572.55383,0.00950
2571.52358,0.00932
2570.49332,0.00947
2569.46306,0.00994
2568.43280,0.01014
2567.40254,0.01006
2566.37229,0.01034
2565.34203,0.01060
2564.31177,0.01034
2563.28151,0.00971
2562.25125,0.00923
2561.22100,0.00923
2560.19074,0.00942
2559.16048,0.00943
2558.13022,0.00925
2557.09997,0.00913
2556.06971,0.00922
2555.03945,0.00936
2554.00919,0.00937
2552.97893,0.00948
2551.94868,0.00980
2550.91842,0.01021
2549.88816,0.01030
2548.85790,0.01009
2547.82764,0.00974
2546.79739,0.00928
2545.76713,0.00939
2544.73687,0.01030
2543.70661,0.01100
2542.67636,0.01069
2541.64610,0.00986
2540.61584,0.00944
2539.58558,0.00966
2538.55532,0.00989
2537.52507,0.00972
2536.49481,0.00944
2535.46455,0.00917
2534.43429,0.00894
2533.40403,0.00898
2532.37378,0.00922
2531.34352,0.00925
2530.31326,0.00924
2529.28300,0.00946
2528.25275,0.00953
2527.22249,0.00963
2526.19223,0.01003
2525.16197,0.01041
2524.13171,0.01046
2523.10146,0.01011
2522.07120,0.00956
2521.04094,0.00909
2520.01068,0.00896
2518.98043,0.00913
2517.95017,0.00923
2516.91991,0.00937
2515.88965,0.00955
2514.85939,0.00976
2513.82914,0.00998
2512.79888,0.00968
2511.76862,0.00908
2510.73836,0.00911
2509.70810,0.00943
2508.67785,0.00929
2507.64759,0.00932
2506.61733,0.00970
2505.58707,0.00968
2504.55682,0.00969
2503.52656,0.01003
2502.49630,0.00977
2501.46604,0.00882
2500.43578,0.00830
2499.40553,0.00865
2498.37527,0.00917
2497.34501,0.00935
2496.31475,0.00951
2495.28449,0.00992
2494.25424,0.01018
2493.22398,0.01009
2492.19372,0.00978
2491.16346,0.00916
2490.13321,0.00887
2489.10295,0.00926
2488.07269,0.00940
2487.04243,0.00899
2486.01217,0.00880
2484.98192,0.00892
2483.95166,0.00899
2482.92140,0.00926
2481.89114,0.00972
2480.86088,0.00972
2479.83063,0.00924
2478.80037,0.00914
2477.77011,0.00966
2476.73985,0.01001
2475.70960,0.00969
2474.67934,0.00907
2473.64908,0.00892
2472.61882,0.00937
2471.58856,0.00973
2470.55831,0.00949
2469.52805,0.00891
2468.49779,0.00881
2467.46753,0.00914
2466.43728,0.00905
2465.40702,0.00853
2464.37676,0.00812
2463.34650,0.00785
2462.31624,0.00779
2461.28599,0.00811
2460.25573,0.00853
2459.22547,0.00868
2458.19521,0.00894
2457.16495,0.00954
2456.13470,0.01005
2455.10444,0.01009
2454.07418,0.00991
2453.04392,0.00978
2452.01367,0.00973
2450.98341,0.00986
2449.95315,0.00995
2448.92289,0.00979
2447.89263,0.00953
2446.86238,0.00937
2445.83212,0.00910
2444.80186,0.00865
2443.77160,0.00840
2442.74134,0.00847
2441.71109,0.00877
2440.68083,0.00933
2439.65057,0.00982
2438.62031,0.00975
2437.59006,0.00954
2436.55980,0.00964
2435.52954,0.00946
2434.49928,0.00922
2433.46902,0.00941
2432.43877,0.00945
2431.40851,0.00927
2430.37825,0.00927
2429.34799,0.00948
2428.31774,0.00993
2427.28748,0.01044
2426.25722,0.01041
2425.22696,0.00982
2424.19670,0.00947
2423.16645,0.00963
2422.13619,0.00987
2421.10593,0.00995
2420.07567,0.01003
2419.04541,0.01010
2418.01516,0.01015
2416.98490,0.01043
2415.95464,0.01064
2414.92438,0.01033
2413.89413,0.01002
2412.86387,0.00984
2411.83361,0.00938
2410.80335,0.00890
2409.77309,0.00902
2408.74284,0.00976
2407.71258,0.01035
2406.68232,0.01046
2405.65206,0.01035
2404.62180,0.01013
2403.59155,0.01006
2402.56129,0.00994
2401.53103,0.00969
2400.50077,0.00984
2399.47052,0.01022
2398.44026,0.01050
2397.41000,0.01079
2396.37974,0.01093
2395.34948,0.01070
2394.31923,0.01039
2393.28897,0.01048
2392.25871,0.01080
2391.22845,0.01111
2390.19819,0.01140
2389.16794,0.01142
2388.13768,0.01099
2387.10742,0.01038
2386.07716,0.01015
2385.04691,0.01056
2384.01665,0.01098
2382.98639,0.01119
2381.95613,0.01143
2380.92587,0.01149
2379.89562,0.01147
2378.86536,0.01146
2377.83510,0.01143
2376.80484,0.01158
2375.77459,0.01201
2374.74433,0.01234
2373.71407,0.01221
2372.68381,0.01235
2371.65355,0.01321
2370.62330,0.01388
2369.59304,0.01430
2368.56278,0.01452
2367.53252,0.01413
2366.50226,0.01378
2365.47201,0.01367
2364.44175,0.01324
2363.41149,0.01272
2362.38123,0.01252
2361.35098,0.01236
2360.32072,0.01211
2359.29046,0.01272
2358.26020,0.01434
2357.22994,0.01502
2356.19969,0.01402
2355.16943,0.01337
2354.13917,0.01365
2353.10891,0.01341
2352.07865,0.01298
2351.04840,0.01329
2350.01814,0.01376
2348.98788,0.01398
2347.95762,0.01404
2346.92737,0.01383
2345.89711,0.01394
2344.86685,0.01477
2343.83659,0.01533
2342.80633,0.01487
2341.77608,0.01427
2340.74582,0.01455
2339.71556,0.01544
2338.68530,0.01563
2337.65504,0.01467
2336.62479,0.01379
2335.59453,0.01385
2334.56427,0.01445
2333.53401,0.01507
2332.50376,0.01515
2331.47350,0.01456
2330.44324,0.01408
2329.41298,0.01421
2328.38272,0.01475
2327.35247,0.01499
2326.32221,0.01452
2325.29195,0.01419
2324.26169,0.01432
2323.23144,0.01432
2322.20118,0.01387
2321.17092,0.01331
2320.14066,0.01353
2319.11040,0.01434
2318.08015,0.01499
2317.04989,0.01530
2316.01963,0.01498
2314.98937,0.01422
2313.95911,0.01382
2312.92886,0.01399
2311.89860,0.01426
2310.86834,0.01449
2309.83808,0.01474
2308.80783,0.01438
2307.77757,0.01346
2306.74731,0.01304
2305.71705,0.01326
2304.68679,0.01351
2303.65654,0.01361
2302.62628,0.01355
2301.59602,0.01323
2300.56576,0.01306
2299.53550,0.01327
2298.50525,0.01346
2297.47499,0.01355
2296.44473,0.01373
2295.41447,0.01383
2294.38422,0.01362
2293.35396,0.01358
2292.32370,0.01388
2291.29344,0.01375
2290.26318,0.01354
2289.23293,0.01402
2288.20267,0.01449
2287.17241,0.01436
2286.14215,0.01365
2285.11189,0.01255
2284.08164,0.01199
2283.05138,0.01239
2282.02112,0.01282
2280.99086,0.01273
2279.96061,0.01249
2278.93035,0.01268
2277.90009,0.01352
2276.86983,0.01393
2275.83957,0.01351
2274.80932,0.01338
2273.77906,0.01379
2272.74880,0.01392
2271.71854,0.01360
2270.68829,0.01323
2269.65803,0.01304
2268.62777,0.01301
2267.59751,0.01287
2266.56725,0.01242
2265.53700,0.01203
2264.50674,0.01240
2263.47648,0.01329
2262.44622,0.01363
2261.41596,0.01299
2260.38571,0.01216
2259.35545,0.01220
2258.32519,0.01296
2257.29493,0.01348
2256.26468,0.01374
2255.23442,0.01459
2254.20416,0.01572
2253.17390,0.01580
2252.14364,0.01454
2251.11339,0.01291
2250.08313,0.01256
2249.05287,0.01380
2248.02261,0.01482
2246.99235,0.01479
2245.96210,0.01451
2244.93184,0.01428
2243.90158,0.01396
2242.87132,0.01386
2241.84107,0.01398
2240.81081,0.01423
2239.78055,0.01453
2238.75029,0.01428
2237.72003,0.01355
2236.68978,0.01271
2235.65952,0.01203
2234.62926,0.01206
2233.59900,0.01272
2232.56874,0.01332
2231.53849,0.01350
2230.50823,0.01370
2229.47797,0.01386
2228.44771,0.01364
2227.41746,0.01361
2226.38720,0.01377
2225.35694,0.01354
2224.32668,0.01352
2223.29642,0.01410
2222.26617,0.01405
2221.23591,0.01337
2220.20565,0.01386
2219.17539,0.01553
2218.14514,0.01643
2217.11488,0.01624
2216.08462,0.01598
2215.05436,0.01524
2214.02410,0.01378
2212.99385,0.01293
2211.96359,0.01400
2210.93333,0.01559
2209.90307,0.01539
2208.87281,0.01421
2207.84256,0.01391
2206.81230,0.01387
2205.78204,0.01371
2204.75178,0.01431
2203.72153,0.01419
2202.69127,0.01259
2201.66101,0.01102
2200.63075,0.01079
2199.60049,0.01194
2198.57024,0.01320
2197.53998,0.01345
2196.50972,0.01298
2195.47946,0.01325
2194.44920,0.01408
2193.41895,0.01475
2192.38869,0.01496
2191.35843,0.01412
2190.32817,0.01358
2189.29792,0.01450
2188.26766,0.01475
2187.23740,0.01310
2186.20714,0.01219
2185.17688,0.01343
2184.14663,0.01463
2183.11637,0.01407
2182.08611,0.01370
2181.05585,0.01470
2180.02559,0.01409
2178.99534,0.01194
2177.96508,0.01234
2176.93482,0.01442
2175.90456,0.01466
2174.87431,0.01376
2173.84405,0.01268
2172.81379,0.01153
2171.78353,0.01055
2170.75327,0.01028
2169.72302,0.01207
2168.69276,0.01335
2167.66250,0.01204
2166.63224,0.01200
2165.60199,0.01393
2164.57173,0.01479
2163.54147,0.01354
2162.51121,0.01041
2161.48095,0.00809
2160.45070,0.00902
2159.42044,0.01237
2158.39018,0.01475
2157.35992,0.01509
2156.32966,0.01507
2155.29941,0.01393
2154.26915,0.01296
2153.23889,0.01387
2152.20863,0.01433
2151.17838,0.01402
2150.14812,0.01442
2149.11786,0.01412
2148.08760,0.01344
2147.05734,0.01409
2146.02709,0.01449
2144.99683,0.01420
2143.96657,0.01454
2142.93631,0.01526
2141.90605,0.01600
2140.87580,0.01620
2139.84554,0.01594
2138.81528,0.01639
2137.78502,0.01693
2136.75477,0.01612
2135.72451,0.01452
2134.69425,0.01371
2133.66399,0.01401
2132.63373,0.01443
2131.60348,0.01441
2130.57322,0.01491
2129.54296,0.01615
2128.51270,0.01634
2127.48244,0.01529
2126.45219,0.01474
2125.42193,0.01530
2124.39167,0.01639
2123.36141,0.01688
2122.33116,0.01608
2121.30090,0.01490
2120.27064,0.01460
2119.24038,0.01487
2118.21012,0.01504
2117.17987,0.01509
2116.14961,0.01485
2115.11935,0.01469
2114.08909,0.01498
2113.05884,0.01478
2112.02858,0.01424
2110.99832,0.01464
2109.96806,0.01572
2108.93780,0.01660
2107.90755,0.01672
2106.87729,0.01590
2105.84703,0.01491
2104.81677,0.01489
2103.78651,0.01525
2102.75626,0.01518
2101.72600,0.01534
2100.69574,0.01537
2099.66548,0.01455
2098.63523,0.01391
2097.60497,0.01423
2096.57471,0.01539
2095.54445,0.01654
2094.51419,0.01603
2093.48394,0.01423
2092.45368,0.01290
2091.42342,0.01271
2090.39316,0.01355
2089.36290,0.01375
2088.33265,0.01274
2087.30239,0.01265
2086.27213,0.01380
2085.24187,0.01494
2084.21162,0.01547
2083.18136,0.01492
2082.15110,0.01371
2081.12084,0.01233
2080.09058,0.01161
2079.06033,0.01262
2078.03007,0.01383
2076.99981,0.01387
2075.96955,0.01356
2074.93930,0.01316
2073.90904,0.01243
2072.87878,0.01200
2071.84852,0.01217
2070.81826,0.01205
2069.78801,0.01100
2068.75775,0.00976
2067.72749,0.00997
2066.69723,0.01175
2065.66697,0.01264
2064.63672,0.01215
2063.60646,0.01231
2062.57620,0.01303
2061.54594,0.01284
2060.51569,0.01221
2059.48543,0.01263
2058.45517,0.01352
2057.42491,0.01384
2056.39465,0.01364
2055.36440,0.01249
2054.33414,0.01055
2053.30388,0.00948
2052.27362,0.00983
2051.24336,0.01038
2050.21311,0.01036
2049.18285,0.01014
2048.15259,0.01057
2047.12233,0.01154
2046.09208,0.01202
2045.06182,0.01136
2044.03156,0.01028
2043.00130,0.01009
2041.97104,0.01043
2040.94079,0.00988
2039.91053,0.00871
2038.88027,0.00851
2037.85001,0.00939
2036.81975,0.01005
2035.78950,0.01026
2034.75924,0.01076
2033.72898,0.01130
2032.69872,0.01094
2031.66847,0.00962
2030.63821,0.00876
2029.60795,0.00962
2028.57769,0.01037
2027.54743,0.00949
2026.51718,0.00893
2025.48692,0.00958
2024.45666,0.01038
2023.42640,0.01154
2022.39615,0.01253
2021.36589,0.01124
2020.33563,0.00849
2019.30537,0.00745
2018.27511,0.00883
2017.24486,0.01096
2016.21460,0.01207
2015.18434,0.01176
2014.15408,0.00996
2013.12382,0.00735
2012.09357,0.00697
2011.06331,0.00919
2010.03305,0.01080
2009.00279,0.01061
2007.97254,0.00999
2006.94228,0.01047
2005.91202,0.01180
2004.88176,0.01149
2003.85150,0.00953
2002.82125,0.00867
2001.79099,0.00895
2000.76073,0.00849
1999.73047,0.00808
1998.70021,0.00938
1997.66996,0.01119
1996.63970,0.01228
1995.60944,0.01289
1994.57918,0.01259
1993.54893,0.01134
1992.51867,0.00990
1991.48841,0.00935
1990.45815,0.00957
1989.42789,0.00931
1988.39764,0.01004
1987.36738,0.01234
1986.33712,0.01296
1985.30686,0.01139
1984.27660,0.01031
1983.24635,0.01015
1982.21609,0.00927
1981.18583,0.00803
1980.15557,0.00802
1979.12532,0.00899
1978.09506,0.00975
1977.06480,0.00943
1976.03454,0.00867
1975.00428,0.00866
1973.97403,0.00904
1972.94377,0.00966
1971.91351,0.01080
1970.88325,0.01170
1969.85300,0.01201
1968.82274,0.01257
1967.79248,0.01336
1966.76222,0.01265
1965.73196,0.01088
1964.70171,0.01018
1963.67145,0.01056
1962.64119,0.01132
1961.61093,0.01128
1960.58067,0.00993
1959.55042,0.00910
1958.52016,0.00943
1957.48990,0.01026
1956.45964,0.01160
1955.42939,0.01272
1954.39913,0.01274
1953.36887,0.01244
1952.33861,0.01320
1951.30835,0.01425
1950.27810,0.01364
1949.24784,0.01182
1948.21758,0.01085
1947.18732,0.01088
1946.15706,0.01037
1945.12681,0.00868
1944.09655,0.00752
1943.06629,0.00826
1942.03603,0.00951
1941.00578,0.00986
1939.97552,0.00985
1938.94526,0.01054
1937.91500,0.01196
1936.88474,0.01255
1935.85449,0.01174
1934.82423,0.01098
1933.79397,0.01051
1932.76371,0.01012
1931.73345,0.01026
1930.70320,0.01068
1929.67294,0.01115
1928.64268,0.01171
1927.61242,0.01224
1926.58217,0.01221
1925.55191,0.01166
1924.52165,0.01075
1923.49139,0.00963
1922.46113,0.00944
1921.43088,0.00985
1920.40062,0.00997
1919.37036,0.00984
1918.34010,0.00977
1917.30985,0.00976
1916.27959,0.00930
1915.24933,0.00869
1914.21907,0.00852
1913.18881,0.00871
1912.15856,0.00874
1911.12830,0.00863
1910.09804,0.00865
1909.06778,0.00889
1908.03752,0.00969
1907.00727,0.01075
1905.97701,0.01117
1904.94675,0.01070
1903.91649,0.00984
1902.88624,0.00938
1901.85598,0.00929
1900.82572,0.00896
1899.79546,0.00871
1898.76520,0.00907
1897.73495,0.00980
1896.70469,0.01030
1895.67443,0.01050
1894.64417,0.01064
1893.61391,0.01068
1892.58366,0.01061
1891.55340,0.01004
1890.52314,0.00912
1889.49288,0.00882
1888.46263,0.00933
1887.43237,0.00993
1886.40211,0.01015
1885.37185,0.01027
1884.34159,0.01055
1883.31134,0.01049
1882.28108,0.00989
1881.25082,0.00933
1880.22056,0.00944
1879.19030,0.01011
1878.16005,0.01077
1877.12979,0.01109
1876.09953,0.01083
1875.06927,0.01007
1874.03902,0.00966
1873.00876,0.01001
1871.97850,0.01050
1870.94824,0.01044
1869.91798,0.01015
1868.88773,0.01012
1867.85747,0.01000
1866.82721,0.00993
1865.79695,0.01004
1864.76670,0.00997
1863.73644,0.00975
1862.70618,0.00962
1861.67592,0.00958
1860.64566,0.00961
1859.61541,0.00955
1858.58515,0.00950
1857.55489,0.00977
1856.52463,0.00989
1855.49437,0.00974
1854.46412,0.00979
1853.43386,0.00999
1852.40360,0.01022
1851.37334,0.01042
1850.34309,0.01042
1849.31283,0.01023
1848.28257,0.01000
1847.25231,0.00984
1846.22205,0.00998
1845.19180,0.01041
1844.16154,0.01044
1843.13128,0.01005
1842.10102,0.01001
1841.07076,0.01030
1840.04051,0.01044
1839.01025,0.01010
1837.97999,0.00978
1836.94973,0.01017
1835.91948,0.01078
1834.88922,0.01088
1833.85896,0.01059
1832.82870,0.01028
1831.79844,0.00994
1830.76819,0.00971
1829.73793,0.00995
1828.70767,0.01030
1827.67741,0.01030
1826.64715,0.01017
1825.61690,0.01016
1824.58664,0.01014
1823.55638,0.01019
1822.52612,0.01038
1821.49587,0.01019
1820.46561,0.00978
1819.43535,0.00987
1818.40509,0.01020
1817.37483,0.01024
1816.34458,0.01017
1815.31432,0.01035
1814.28406,0.01072
1813.25380,0.01068
1812.22355,0.01040
1811.19329,0.01059
1810.16303,0.01078
1809.13277,0.01061
1808.10251,0.01059
1807.07226,0.01088
1806.04200,0.01115
1805.01174,0.01122
1803.98148,0.01138
1802.95122,0.01181
1801.92097,0.01208
1800.89071,0.01206
1799.86045,0.01196
1798.83019,0.01175
1797.79994,0.01178
1796.76968,0.01226
1795.73942,0.01268
1794.70916,0.01275
1793.67890,0.01279
1792.64865,0.01277
1791.61839,0.01264
1790.58813,0.01276
1789.55787,0.01316
1788.52761,0.01347
1787.49736,0.01335
1786.46710,0.01328
1785.43684,0.01356
1784.40658,0.01361
1783.37633,0.01328
1782.34607,0.01303
1781.31581,0.01318
1780.28555,0.01350
1779.25529,0.01356
1778.22504,0.01354
1777.19478,0.01366
1776.16452,0.01388
1775.13426,0.01414
1774.10400,0.01446
1773.07375,0.01506
1772.04349,0.01557
1771.01323,0.01538
1769.98297,0.01509
1768.95272,0.01509
1767.92246,0.01542
1766.89220,0.01573
1765.86194,0.01566
1764.83168,0.01552
1763.80143,0.01557
1762.77117,0.01583
1761.74091,0.01630
1760.71065,0.01665
1759.68040,0.01669
1758.65014,0.01677
1757.61988,0.01720
1756.58962,0.01770
1755.55936,0.01776
1754.52911,0.01765
1753.49885,0.01767
1752.46859,0.01771
1751.43833,0.01789
1750.40807,0.01831
1749.37782,0.01864
1748.34756,0.01871
1747.31730,0.01875
1746.28704,0.01906
1745.25679,0.01946
1744.22653,0.01980
1743.19627,0.02019
1742.16601,0.02060
1741.13575,0.02101
1740.10550,0.02143
1739.07524,0.02162
1738.04498,0.02162
1737.01472,0.02173
1735.98446,0.02205
1734.95421,0.02256
1733.92395,0.02284
1732.89369,0.02287
1731.86343,0.02324
1730.83318,0.02384
1729.80292,0.02436
1728.77266,0.02460
1727.74240,0.02477
1726.71214,0.02524
1725.68189,0.02599
1724.65163,0.02690
1723.62137,0.02774
1722.59111,0.02816
1721.56085,0.02850
1720.53060,0.02908
1719.50034,0.02979
1718.47008,0.03043
1717.43982,0.03075
1716.40957,0.03123
1715.37931,0.03201
1714.34905,0.03262
1713.31879,0.03324
1712.28853,0.03403
1711.25828,0.03478
1710.22802,0.03542
1709.19776,0.03604
1708.16750,0.03696
1707.13725,0.03830
1706.10699,0.03968
1705.07673,0.04064
1704.04647,0.04130
1703.01621,0.04179
1701.98596,0.04235
1700.95570,0.04371
1699.92544,0.04599
1698.89518,0.04665
1697.86492,0.04674
1696.83467,0.04756
1695.80441,0.04913
1694.77415,0.05045
1693.74389,0.05167
1692.71364,0.05297
1691.68338,0.05409
1690.65312,0.05520
1689.62286,0.05647
1688.59260,0.05774
1687.56235,0.05908
1686.53209,0.06064
1685.50183,0.06243
1684.47157,0.06405
1683.44131,0.06462
1682.41106,0.06516
1681.38080,0.06642
1680.35054,0.06823
1679.32028,0.07013
1678.29003,0.07160
1677.25977,0.07288
1676.22951,0.07438
1675.19925,0.07588
1674.16899,0.07702
1673.13874,0.07810
1672.10848,0.07921
1671.07822,0.08061
1670.04796,0.08241
1669.01771,0.08413
1667.98745,0.08550
1666.95719,0.08677
1665.92693,0.08797
1664.89667,0.08924
1663.86642,0.09066
1662.83616,0.09181
1661.80590,0.09263
1660.77564,0.09358
1659.74538,0.09468
1658.71513,0.09585
1657.68487,0.09701
1656.65461,0.09799
1655.62435,0.09890
1654.59410,0.09992
1653.56384,0.10059
1652.53358,0.09997
1651.50332,0.09988
1650.47306,0.10049
1649.44281,0.10124
1648.41255,0.10204
1647.38229,0.10240
1646.35203,0.10185
1645.32177,0.10105
1644.29152,0.10090
1643.26126,0.10087
1642.23100,0.10044
1641.20074,0.09971
1640.17049,0.09898
1639.14023,0.09839
1638.10997,0.09783
1637.07971,0.09712
1636.04945,0.09617
1635.01920,0.09448
1633.98894,0.09302
1632.95868,0.09218
1631.92842,0.09124
1630.89816,0.09012
1629.86791,0.08887
1628.83765,0.08754
1627.80739,0.08581
1626.77713,0.08399
1625.74688,0.08270
1624.71662,0.08160
1623.68636,0.07996
1622.65610,0.07773
1621.62584,0.07596
1620.59559,0.07445
1619.56533,0.07290
1618.53507,0.07165
1617.50481,0.07045
1616.47456,0.06839
1615.44430,0.06665
1614.41404,0.06559
1613.38378,0.06434
1612.35352,0.06296
1611.32327,0.06171
1610.29301,0.06047
1609.26275,0.05917
1608.23249,0.05808
1607.20223,0.05706
1606.17198,0.05597
1605.14172,0.05497
1604.11146,0.05406
1603.08120,0.05312
1602.05095,0.05230
1601.02069,0.05153
1599.99043,0.05071
1598.96017,0.04997
1597.92991,0.04923
1596.89966,0.04847
1595.86940,0.04778
1594.83914,0.04723
1593.80888,0.04678
1592.77862,0.04633
1591.74837,0.04581
1590.71811,0.04527
1589.68785,0.04476
1588.65759,0.04429
1587.62734,0.04375
1586.59708,0.04321
1585.56682,0.04277
1584.53656,0.04226
1583.50630,0.04188
1582.47605,0.04161
1581.44579,0.04118
1580.41553,0.04059
1579.38527,0.04005
1578.35501,0.03971
1577.32476,0.03957
1576.29450,0.03908
1575.26424,0.03821
1574.23398,0.03788
1573.20373,0.03779
1572.17347,0.03754
1571.14321,0.03719
1570.11295,0.03681
1569.08269,0.03637
1568.05244,0.03606
1567.02218,0.03600
1565.99192,0.03602
1564.96166,0.03566
1563.93141,0.03511
1562.90115,0.03497
1561.87089,0.03493
1560.84063,0.03478
1559.81037,0.03475
1558.78012,0.03445
1557.74986,0.03372
1556.71960,0.03363
1555.68934,0.03371
1554.65908,0.03349
1553.62883,0.03305
1552.59857,0.03289
1551.56831,0.03318
1550.53805,0.03339
1549.50780,0.03284
1548.47754,0.03228
1547.44728,0.03241
1546.41702,0.03279
1545.38676,0.03283
1544.35651,0.03245
1543.32625,0.03220
1542.29599,0.03206
1541.26573,0.03201
1540.23547,0.03206
1539.20522,0.03170
1538.17496,0.03118
1537.14470,0.03108
1536.11444,0.03113
1535.08419,0.03111
1534.05393,0.03123
1533.02367,0.03147
1531.99341,0.03148
1530.96315,0.03124
1529.93290,0.03094
1528.90264,0.03083
1527.87238,0.03090
1526.84212,0.03100
1525.81186,0.03100
1524.78161,0.03086
1523.75135,0.03091
1522.72109,0.03115
1521.69083,0.03138
1520.66058,0.03146
1519.63032,0.03135
1518.60006,0.03148
1517.56980,0.03165
1516.53954,0.03136
1515.50929,0.03100
1514.47903,0.03082
1513.44877,0.03071
1512.41851,0.03078
1511.38826,0.03111
1510.35800,0.03149
1509.32774,0.03175
1508.29748,0.03199
1507.26722,0.03222
1506.23697,0.03230
1505.20671,0.03226
1504.17645,0.03221
1503.14619,0.03223
1502.11593,0.03235
1501.08568,0.03264
1500.05542,0.03302
1499.02516,0.03336
1497.99490,0.03381
1496.96465,0.03448
1495.93439,0.03534
1494.90413,0.03629
1493.87387,0.03744
1492.84361,0.03873
1491.81336,0.04016
1490.78310,0.04221
1489.75284,0.04504
1488.72258,0.04786
1487.69232,0.05091
1486.66207,0.05504
1485.63181,0.05999
1484.60155,0.06576
1483.57129,0.07242
1482.54104,0.07884
1481.51078,0.08308
1480.48052,0.08377
1479.45026,0.08172
1478.42000,0.07908
1477.38975,0.07712
1476.35949,0.07581
1475.32923,0.07568
1474.29897,0.07712
1473.26871,0.07969
1472.23846,0.08304
1471.20820,0.08646
1470.17794,0.08935
1469.14768,0.09226
1468.11743,0.09526
1467.08717,0.09793
1466.05691,0.09976
1465.02665,0.10021
1463.99639,0.09955
1462.96614,0.09873
1461.93588,0.09784
1460.90562,0.09658
1459.87536,0.09502
1458.84511,0.09351
1457.81485,0.09230
1456.78459,0.09046
1455.75433,0.08858
1454.72407,0.08762
1453.69382,0.08682
1452.66356,0.08554
1451.63330,0.08383
1450.60304,0.08215
1449.57278,0.08068
1448.54253,0.07903
1447.51227,0.07682
1446.48201,0.07483
1445.45175,0.07325
1444.42150,0.07163
1443.39124,0.06990
1442.36098,0.06822
1441.33072,0.06662
1440.30046,0.06496
1439.27021,0.06310
1438.23995,0.06127
1437.20969,0.05922
1436.17943,0.05647
1435.14917,0.05441
1434.11892,0.05311
1433.08866,0.05187
1432.05840,0.05051
1431.02814,0.04913
1429.99789,0.04789
1428.96763,0.04699
1427.93737,0.04650
1426.90711,0.04610
1425.87685,0.04556
1424.84660,0.04504
1423.81634,0.04451
1422.78608,0.04375
1421.75582,0.04315
1420.72556,0.04293
1419.69531,0.04278
1418.66505,0.04250
1417.63479,0.04230
1416.60453,0.04225
1415.57428,0.04234
1414.54402,0.04252
1413.51376,0.04260
1412.48350,0.04255
1411.45324,0.04254
1410.42299,0.04294
1409.39273,0.04374
1408.36247,0.04462
1407.33221,0.04552
1406.30196,0.04652
1405.27170,0.04778
1404.24144,0.04925
1403.21118,0.05057
1402.18092,0.05135
1401.15067,0.05137
1400.12041,0.05081
1399.09015,0.04973
1398.05989,0.04832
1397.02963,0.04707
1395.99938,0.04592
1394.96912,0.04475
1393.93886,0.04378
1392.90860,0.04318
1391.87835,0.04279
1390.84809,0.04251
1389.81783,0.04228
1388.78757,0.04209
1387.75731,0.04190
1386.72706,0.04171
1385.69680,0.04181
1384.66654,0.04214
1383.63628,0.04234
1382.60602,0.04239
1381.57577,0.04254
1380.54551,0.04281
1379.51525,0.04309
1378.48499,0.04343
1377.45474,0.04365
1376.42448,0.04376
1375.39422,0.04410
1374.36396,0.04477
1373.33370,0.04553
1372.30345,0.04620
1371.27319,0.04670
1370.24293,0.04725
1369.21267,0.04808
1368.18241,0.04896
1367.15216,0.04970
1366.12190,0.05056
1365.09164,0.05176
1364.06138,0.05331
1363.03113,0.05507
1362.00087,0.05684
1360.97061,0.05874
1359.94035,0.06088
1358.91009,0.06327
1357.87984,0.06585
1356.84958,0.06841
1355.81932,0.07099
1354.78906,0.07364
1353.75881,0.07642
1352.72855,0.07941
1351.69829,0.08226
1350.66803,0.08445
1349.63777,0.08566
1348.60752,0.08565
1347.57726,0.08413
1346.54700,0.08061
1345.51674,0.07511
1344.48648,0.06866
1343.45623,0.06259
1342.42597,0.05774
1341.39571,0.05421
1340.36545,0.05163
1339.33520,0.04982
1338.30494,0.04877
1337.27468,0.04842
1336.24442,0.04831
1335.21416,0.04808
1334.18391,0.04791
1333.15365,0.04807
1332.12339,0.04853
1331.09313,0.04898
1330.06287,0.04923
1329.03262,0.04935
1328.00236,0.04941
1326.97210,0.04932
1325.94184,0.04887
1324.91159,0.04816
1323.88133,0.04750
1322.85107,0.04690
1321.82081,0.04620
1320.79055,0.04568
1319.76030,0.04564
1318.73004,0.04583
1317.69978,0.04597
1316.66952,0.04638
1315.63927,0.04713
1314.60901,0.04797
1313.57875,0.04895
1312.54849,0.05017
1311.51823,0.05156
1310.48798,0.05310
1309.45772,0.05468
1308.42746,0.05623
1307.39720,0.05773
1306.36694,0.05913
1305.33669,0.06035
1304.30643,0.06144
1303.27617,0.06238
1302.24591,0.06309
1301.21566,0.06352
1300.18540,0.06362
1299.15514,0.06362
1298.12488,0.06379
1297.09462,0.06405
1296.06437,0.06411
1295.03411,0.06403
1294.00385,0.06388
1292.97359,0.06356
1291.94333,0.06315
1290.91308,0.06292
1289.88282,0.06301
1288.85256,0.06304
1287.82230,0.06263
1286.79205,0.06199
1285.76179,0.06139
1284.73153,0.06088
1283.70127,0.06035
1282.67101,0.05957
1281.64076,0.05865
1280.61050,0.05790
1279.58024,0.05733
1278.54998,0.05679
1277.51972,0.05595
1276.48947,0.05492
1275.45921,0.05423
1274.42895,0.05384
1273.39869,0.05335
1272.36844,0.05284
1271.33818,0.05248
1270.30792,0.05227
1269.27766,0.05227
1268.24740,0.05244
1267.21715,0.05275
1266.18689,0.05337
1265.15663,0.05431
1264.12637,0.05527
1263.09612,0.05624
1262.06586,0.05759
1261.03560,0.05932
1260.00534,0.06122
1258.97508,0.06302
1257.94483,0.06444
1256.91457,0.06592
1255.88431,0.06781
1254.85405,0.06966
1253.82379,0.07134
1252.79354,0.07299
1251.76328,0.07426
1250.73302,0.07519
1249.70276,0.07622
1248.67251,0.07738
1247.64225,0.07844
1246.61199,0.07940
1245.58173,0.08040
1244.55147,0.08150
1243.52122,0.08264
1242.49096,0.08369
1241.46070,0.08461
1240.43044,0.08546
1239.40018,0.08590
1238.36993,0.08565
1237.33967,0.08447
1236.30941,0.08216
1235.27915,0.07905
1234.24890,0.07566
1233.21864,0.07220
1232.18838,0.06859
1231.15812,0.06488
1230.12786,0.06134
1229.09761,0.05841
1228.06735,0.05630
1227.03709,0.05451
1226.00683,0.05271
1224.97657,0.05118
1223.94632,0.04979
1222.91606,0.04830
1221.88580,0.04697
1220.85554,0.04595
1219.82529,0.04512
1218.79503,0.04444
1217.76477,0.04382
1216.73451,0.04296
1215.70425,0.04207
1214.67400,0.04157
1213.64374,0.04125
1212.61348,0.04098
1211.58322,0.04075
1210.55297,0.04043
1209.52271,0.04000
1208.49245,0.03954
1207.46219,0.03944
1206.43193,0.03950
1205.40168,0.03931
1204.37142,0.03907
1203.34116,0.03889
1202.31090,0.03863
1201.28064,0.03837
1200.25039,0.03823
1199.22013,0.03816
1198.18987,0.03824
1197.15961,0.03834
1196.12936,0.03822
1195.09910,0.03794
1194.06884,0.03776
1193.03858,0.03772
1192.00832,0.03772
1190.97807,0.03787
1189.94781,0.03812
1188.91755,0.03839
1187.88729,0.03871
1186.85703,0.03898
1185.82678,0.03913
1184.79652,0.03920
1183.76626,0.03929
1182.73600,0.03953
1181.70575,0.03983
1180.67549,0.04009
1179.64523,0.04036
1178.61497,0.04065
1177.58471,0.04100
1176.55446,0.04155
1175.52420,0.04219
1174.49394,0.04271
1173.46368,0.04326
1172.43342,0.04403
1171.40317,0.04477
1170.37291,0.04559
1169.34265,0.04677
1168.31239,0.04799
1167.28214,0.04910
1166.25188,0.05045
1165.22162,0.05215
1164.19136,0.05417
1163.16110,0.05650
1162.13085,0.05911
1161.10059,0.06185
1160.07033,0.06464
1159.04007,0.06765
1158.00982,0.07102
1156.97956,0.07495
1155.94930,0.07940
1154.91904,0.08390
1153.88878,0.08837
1152.85853,0.09313
1151.82827,0.09821
1150.79801,0.10325
1149.76775,0.10811
1148.73749,0.11298
1147.70724,0.11783
1146.67698,0.12264
1145.64672,0.12732
1144.61646,0.13158
1143.58621,0.13543
1142.55595,0.13902
1141.52569,0.14232
1140.49543,0.14540
1139.46517,0.14844
1138.43492,0.15124
1137.40466,0.15392
1136.37440,0.15662
1135.34414,0.15891
1134.31388,0.16081
1133.28363,0.16264
1132.25337,0.16451
1131.22311,0.16650
1130.19285,0.16865
1129.16260,0.17102
1128.13234,0.17341
1127.10208,0.17592
1126.07182,0.17880
1125.04156,0.18178
1124.01131,0.18488
1122.98105,0.18833
1121.95079,0.19167
1120.92053,0.19463
1119.89027,0.19782
1118.86002,0.20118
1117.82976,0.20401
1116.79950,0.20668
1115.76924,0.20978
1114.73899,0.21283
1113.70873,0.21567
1112.67847,0.21872
1111.64821,0.22178
1110.61795,0.22461
1109.58770,0.22764
1108.55744,0.23101
1107.52718,0.23440
1106.49692,0.23781
1105.46667,0.24132
1104.43641,0.24475
1103.40615,0.24782
1102.37589,0.25077
1101.34563,0.25398
1100.31538,0.25751
1099.28512,0.26096
1098.25486,0.26374
1097.22460,0.26595
1096.19434,0.26791
1095.16409,0.26961
1094.13383,0.27092
1093.10357,0.27190
1092.07331,0.27261
1091.04306,0.27321
1090.01280,0.27384
1088.98254,0.27422
1087.95228,0.27404
1086.92202,0.27312
1085.89177,0.27184
1084.86151,0.27079
1083.83125,0.26981
1082.80099,0.26843
1081.77073,0.26670
1080.74048,0.26479
1079.71022,0.26269
1078.67996,0.26046
1077.64970,0.25818
1076.61945,0.25600
1075.58919,0.25403
1074.55893,0.25204
1073.52867,0.25001
1072.49841,0.24774
1071.46816,0.24505
1070.43790,0.24255
1069.40764,0.24010
1068.37738,0.23698
1067.34712,0.23357
1066.31687,0.23016
1065.28661,0.22621
1064.25635,0.22146
1063.22609,0.21620
1062.19584,0.21095
1061.16558,0.20587
1060.13532,0.20035
1059.10506,0.19435
1058.07480,0.18846
1057.04455,0.18259
1056.01429,0.17663
1054.98403,0.17056
1053.95377,0.16474
1052.92352,0.15953
1051.89326,0.15454
1050.86300,0.14987
1049.83274,0.14585
1048.80248,0.14249
1047.77223,0.13988
1046.74197,0.13766
1045.71171,0.13544
1044.68145,0.13375
1043.65119,0.13303
1042.62094,0.13275
1041.59068,0.13235
1040.56042,0.13188
1039.53016,0.13146
1038.49991,0.13111
1037.46965,0.13067
1036.43939,0.13008
1035.40913,0.12956
1034.37887,0.12882
1033.34862,0.12757
1032.31836,0.12616
1031.28810,0.12458
1030.25784,0.12270
1029.22758,0.12084
1028.19733,0.11870
1027.16707,0.11604
1026.13681,0.11342
1025.10655,0.11095
1024.07630,0.10838
1023.04604,0.10578
1022.01578,0.10305
1020.98552,0.10026
1019.95526,0.09774
1018.92501,0.09539
1017.89475,0.09282
1016.86449,0.09008
1015.83423,0.08772
1014.80397,0.08576
1013.77372,0.08386
1012.74346,0.08202
1011.71320,0.08042
1010.68294,0.07936
1009.65269,0.07870
1008.62243,0.07797
1007.59217,0.07721
1006.56191,0.07647
1005.53165,0.07569
1004.50140,0.07516
1003.47114,0.07493
1002.44088,0.07478
1001.41062,0.07472
1000.38037,0.07467
999.35011,0.07461
998.31985,0.07465
997.28959,0.07472
996.25933,0.07461
995.22908,0.07432
994.19882,0.07412
993.16856,0.07421
992.13830,0.07443
991.10804,0.07440
990.07779,0.07409
989.04753,0.07364
988.01727,0.07321
986.98701,0.07293
985.95676,0.07260
984.92650,0.07218
983.89624,0.07175
982.86598,0.07137
981.83572,0.07116
980.80547,0.07099
979.77521,0.07063
978.74495,0.07027
977.71469,0.07024
976.68443,0.07047
975.65418,0.07067
974.62392,0.07071
973.59366,0.07086
972.56340,0.07135
971.53315,0.07226
970.50289,0.07362
969.47263,0.07516
968.44237,0.07679
967.41211,0.07870
966.38186,0.08092
965.35160,0.08373
964.32134,0.08725
963.29108,0.09113
962.26082,0.09527
961.23057,0.10034
960.20031,0.10654
959.17005,0.11340
958.13979,0.12085
957.10954,0.12910
956.07928,0.13838
955.04902,0.14854
954.01876,0.15898
952.98850,0.16927
951.95825,0.17896
950.92799,0.18762
949.89773,0.19490
948.86747,0.20078
947.83722,0.20510
946.80696,0.20718
945.77670,0.20666
944.74644,0.20357
943.71618,0.19811
942.68593,0.19089
941.65567,0.18287
940.62541,0.17481
939.59515,0.16740
938.56489,0.16117
937.53464,0.15591
936.50438,0.15115
935.47412,0.14666
934.44386,0.14258
933.41361,0.13897
932.38335,0.13575
931.35309,0.13280
930.32283,0.13022
929.29257,0.12804
928.26232,0.12594
927.23206,0.12394
926.20180,0.12217
925.17154,0.12047
924.14128,0.11885
923.11103,0.11775
922.08077,0.11702
921.05051,0.11622
920.02025,0.11530
918.99000,0.11425
917.95974,0.11326
916.92948,0.11248
915.89922,0.11200
914.86896,0.11149
913.83871,0.11056
912.80845,0.10937
911.77819,0.10821
910.74793,0.10717
909.71768,0.10629
908.68742,0.10561
907.65716,0.10502
906.62690,0.10455
905.59664,0.10418
904.56639,0.10351
903.53613,0.10294
902.50587,0.10307
901.47561,0.10347
900.44535,0.10366
899.41510,0.10383
898.38484,0.10419
897.35458,0.10467
896.32432,0.10533
895.29407,0.10639
894.26381,0.10796
893.23355,0.10982
892.20329,0.11139
891.17303,0.11267
890.14278,0.11439
889.11252,0.11664
888.08226,0.11852
887.05200,0.11961
886.02174,0.12028
884.99149,0.12089
883.96123,0.12157
882.93097,0.12207
881.90071,0.12230
880.87046,0.12238
879.84020,0.12239
878.80994,0.12232
877.77968,0.12215
876.74942,0.12214
875.71917,0.12229
874.68891,0.12230
873.65865,0.12250
872.62839,0.12326
871.59813,0.12411
870.56788,0.12487
869.53762,0.12601
868.50736,0.12728
867.47710,0.12839
866.44685,0.12953
865.41659,0.13089
864.38633,0.13255
863.35607,0.13398
862.32581,0.13448
861.29556,0.13465
860.26530,0.13555
859.23504,0.13734
858.20478,0.13952
857.17453,0.14148
856.14427,0.14319
855.11401,0.14456
854.08375,0.14549
853.05349,0.14683
852.02324,0.14921
850.99298,0.15171
849.96272,0.15317
848.93246,0.15428
847.90220,0.15600
846.87195,0.15772
845.84169,0.15913
844.81143,0.16043
843.78117,0.16140
842.75092,0.16253
841.72066,0.16408
840.69040,0.16521
839.66014,0.16588
838.62988,0.16677
837.59963,0.16791
836.56937,0.16887
835.53911,0.16945
834.50885,0.16982
833.47859,0.16991
832.44834,0.16980
831.41808,0.17001
830.38782,0.17049
829.35756,0.17066
828.32731,0.17047
827.29705,0.17029
826.26679,0.17036
825.23653,0.17073
824.20627,0.17140
823.17602,0.17208
822.14576,0.17254
821.11550,0.17254
820.08524,0.17194
819.05498,0.17133
818.02473,0.17136
816.99447,0.17209
815.96421,0.17328
814.93395,0.17444
813.90370,0.17534
812.87344,0.17600
811.84318,0.17619
810.81292,0.17607
809.78266,0.17653
808.75241,0.17771
807.72215,0.17868
806.69189,0.17923
805.66163,0.17969
804.63138,0.18020
803.60112,0.18135
802.57086,0.18265
801.54060,0.18299
800.51034,0.18310
799.48009,0.18362
798.44983,0.18397
797.41957,0.18431
796.38931,0.18487
795.35905,0.18577
794.32880,0.18705
793.29854,0.18758
792.26828,0.18720
791.23802,0.18722
790.20777,0.18829
789.17751,0.18967
788.14725,0.19029
787.11699,0.19054
786.08673,0.19128
785.05648,0.19227
784.02622,0.19295
782.99596,0.19350
781.96570,0.19425
780.93544,0.19520
779.90519,0.19623
778.87493,0.19740
777.84467,0.19888
776.81441,0.20068
775.78416,0.20281
774.75390,0.20478
773.72364,0.20612
772.69338,0.20732
771.66312,0.20881
770.63287,0.21083
769.60261,0.21331
768.57235,0.21558
767.54209,0.21746
766.51183,0.21978
765.48158,0.22269
764.45132,0.22587
763.42106,0.22940
762.39080,0.23287
761.36055,0.23598
760.33029,0.23900
759.30003,0.24253
758.26977,0.24595
757.23951,0.24765
756.20926,0.24733
755.17900,0.24609
754.14874,0.24491
753.11848,0.24352
752.08823,0.24182
751.05797,0.24046
750.02771,0.23932
748.99745,0.23844
747.96719,0.23821
746.93694,0.23822
745.90668,0.23819
744.87642,0.23836
743.84616,0.23908
742.81590,0.23996
741.78565,0.24060
740.75539,0.24128
739.72513,0.24206
738.69487,0.24286
737.66462,0.24351
736.63436,0.24424
735.60410,0.24537
734.57384,0.24683
733.54358,0.24794
732.51333,0.24806
731.48307,0.24829
730.45281,0.24936
729.42255,0.25042
728.39229,0.25110
727.36204,0.25189
726.33178,0.25338
725.30152,0.25538
724.27126,0.25712
723.24101,0.25812
722.21075,0.25856
721.18049,0.25909
720.15023,0.25980
719.11997,0.25999
718.08972,0.26043
717.05946,0.26199
716.02920,0.26356
714.99894,0.26467
713.96868,0.26598
712.93843,0.26698
711.90817,0.26760
710.87791,0.26850
709.84765,0.26935
708.81740,0.26999
707.78714,0.27094
706.75688,0.27202
705.72662,0.27277
704.69636,0.27345
703.66611,0.27470
702.63585,0.27648
701.60559,0.27835
700.57533,0.27977
699.54508,0.28042
698.51482,0.28065
697.48456,0.28127
696.45430,0.28289
695.42404,0.28497
694.39379,0.28618
693.36353,0.28623
692.33327,0.28636
691.30301,0.28711
690.27275,0.28816
689.24250,0.28943
688.21224,0.29081
687.18198,0.29240
686.15172,0.29341
685.12147,0.29284
684.09121,0.29209
683.06095,0.29248
682.03069,0.29361
681.00043,0.29509
679.97018,0.29655
678.93992,0.29742
677.90966,0.29801
676.87940,0.29912
675.84914,0.30037
674.81889,0.30136
673.78863,0.30234
672.75837,0.30278
671.72811,0.30300
670.69786,0.30440
669.66760,0.30674
668.63734,0.30867
667.60708,0.30870
666.57682,0.30878
665.54657,0.30974
664.51631,0.31045
663.48605,0.31056
662.45579,0.31053
661.42553,0.31098
660.39528,0.31194
659.36502,0.31241
658.33476,0.31217
657.30450,0.31208
656.27425,0.31257
655.24399,0.31354
654.21373,0.31523
653.18347,0.31714
652.15321,0.31834
651.12296,0.31908
650.09270,0.31994
649.06244,0.32074
648.03218,0.32108
647.00193,0.32141
645.97167,0.32210
644.94141,0.32295
643.91115,0.32330
642.88089,0.32351
641.85064,0.32466
640.82038,0.32524
639.79012,0.32375
638.75986,0.32258
637.72960,0.32337
636.69935,0.32503
635.66909,0.32670
634.63883,0.32766
633.60857,0.32775
632.57832,0.32723
631.54806,0.32706
630.51780,0.32808
629.48754,0.32907
628.45728,0.32968
627.42703,0.33084
626.39677,0.33164
625.36651,0.33164
624.33625,0.33228
623.30599,0.33366
622.27574,0.33381
621.24548,0.33291
620.21522,0.33285
619.18496,0.33331
618.15471,0.33411
617.12445,0.33614
616.09419,0.33766
615.06393,0.33679
614.03367,0.33571
613.00342,0.33619
611.97316,0.33657
610.94290,0.33607
609.91264,0.33592
608.88238,0.33730
607.85213,0.33932
606.82187,0.34042
605.79161,0.34063
604.76135,0.34126
603.73110,0.34242
602.70084,0.34266
601.67058,0.34259
600.64032,0.34367
599.61006,0.34493
598.57981,0.34458
597.54955,0.34298
596.51929,0.34217
595.48903,0.34336
594.45878,0.34592
593.42852,0.34879
592.39826,0.35030
591.36800,0.34957
590.33774,0.34862
589.30749,0.34866
588.27723,0.34912
587.24697,0.34954
586.21671,0.35009
585.18645,0.35139
584.15620,0.35311
583.12594,0.35409
582.09568,0.35442
581.06542,0.35467
580.03517,0.35470
579.00491,0.35558
577.97465,0.35759
576.94439,0.35841
575.91413,0.35622
574.88388,0.35341
573.85362,0.35340
572.82336,0.35549
571.79310,0.35687
570.76284,0.35770
569.73259,0.35943
568.70233,0.36073
567.67207,0.36074
566.64181,0.36069
565.61156,0.36153
564.58130,0.36139
563.55104,0.35908
562.52078,0.35853
561.49052,0.36093
560.46027,0.36204
559.43001,0.36045
558.39975,0.35953
557.36949,0.36108
556.33924,0.36321
555.30898,0.36489
554.27872,0.36638
553.24846,0.36719
552.21820,0.36696
551.18795,0.36641
550.15769,0.36535
549.12743,0.36276
548.09717,0.36069
547.06691,0.36216
546.03666,0.36480
545.00640,0.36544
543.97614,0.36612
542.94588,0.36734
541.91563,0.36638
540.88537,0.36405
539.85511,0.36363
538.82485,0.36518
537.79459,0.36722
536.76434,0.36853
535.73408,0.36824
534.70382,0.36729
533.67356,0.36770
532.64330,0.37043
531.61305,0.37265
530.58279,0.37247
529.55253,0.37245
528.52227,0.37354
527.49202,0.37409
526.46176,0.37404
525.43150,0.37532
524.40124,0.37816
523.37098,0.38027
522.34073,0.38181
521.31047,0.38396
520.28021,0.38571
519.24995,0.38680
518.21969,0.38905
517.18944,0.39350
516.15918,0.39748
515.12892,0.39849
514.09866,0.39789
513.06841,0.39921
512.03815,0.40264
511.00789,0.40532
509.97763,0.40870
508.94737,0.41389
507.91712,0.41823
506.88686,0.42055
505.85660,0.42325
504.82634,0.42670
503.79609,0.42775
502.76583,0.42724
501.73557,0.42708
500.70531,0.42709
499.67505,0.42679
498.64480,0.42565
497.61454,0.42487
496.58428,0.42509
495.55402,0.42537
494.52376,0.42563
493.49351,0.42527
492.46325,0.42254
491.43299,0.41841
490.40273,0.41472
489.37248,0.41216
488.34222,0.41074
487.31196,0.40757
486.28170,0.40254
485.25144,0.39991
484.22119,0.39971
483.19093,0.39732
482.16067,0.39246
481.13041,0.38906
480.10015,0.38678
479.06990,0.38416
478.03964,0.38415
477.00938,0.38566
475.97912,0.38490
474.94887,0.38262
473.91861,0.38048
472.88835,0.38182
471.85809,0.38715
470.82783,0.39291
469.79758,0.40179
468.76732,0.41349
467.73706,0.42361
466.70680,0.43299
465.67654,0.44318
464.64629,0.45057
463.61603,0.45213
462.58577,0.44990
461.55551,0.44669
460.52526,0.44589
459.49500,0.44621
458.46474,0.44080
457.43448,0.43004
456.40422,0.42227
455.37397,0.41638
454.34371,0.41092
453.31345,0.41031
452.28319,0.41046
451.25294,0.40369
450.22268,0.39525
449.19242,0.39060
448.16216,0.38776
447.13190,0.38536
446.10165,0.38399
445.07139,0.38320
444.04113,0.38183
443.01087,0.37970
441.98061,0.37976
440.95036,0.38139
439.92010,0.37884
438.88984,0.37491
437.85958,0.37433
436.82933,0.37387
435.79907,0.37390
434.76881,0.37611
433.73855,0.37591
432.70829,0.37171
431.67804,0.36462
430.64778,0.35649
429.61752,0.35021
428.58726,0.34832
427.55700,0.34888
426.52675,0.34601
425.49649,0.34517
424.46623,0.34976
423.43597,0.35087
422.40572,0.34714
421.37546,0.34527
420.34520,0.34800
419.31494,0.34973
418.28468,0.34101
417.25443,0.33339
416.22417,0.33520
415.19391,0.33795
414.16365,0.33461
413.13339,0.33112
412.10314,0.33046
411.07288,0.33203
410.04262,0.33562
409.01236,0.34056
407.98211,0.34760
406.95185,0.34676
405.92159,0.33469
404.89133,0.32725
403.86107,0.32974
402.83082,0.33180
401.80056,0.32744
400.77030,0.32320
399.74004,0.32488
