4998.81105,0.01263
4997.78079,0.01264
4996.75054,0.01315
4995.72028,0.01392
4994.69002,0.01391
4993.65976,0.01296
4992.62951,0.01230
4991.59925,0.01281
4990.56899,0.01307
4989.53873,0.01237
4988.50847,0.01193
4987.47822,0.01196
4986.44796,0.01213
4985.41770,0.01258
4984.38744,0.01285
4983.35718,0.01234
4982.32693,0.01167
4981.29667,0.01152
4980.26641,0.01164
4979.23615,0.01196
4978.20590,0.01273
4977.17564,0.01363
4976.14538,0.01413
4975.11512,0.01435
4974.08486,0.01448
4973.05461,0.01434
4972.02435,0.01383
4970.99409,0.01339
4969.96383,0.01316
4968.93357,0.01285
4967.90332,0.01250
4966.87306,0.01265
4965.84280,0.01350
4964.81254,0.01431
4963.78229,0.01489
4962.75203,0.01548
4961.72177,0.01512
4960.69151,0.01390
4959.66125,0.01332
4958.63100,0.01312
4957.60074,0.01288
4956.57048,0.01308
4955.54022,0.01331
4954.50997,0.01331
4953.47971,0.01330
4952.44945,0.01304
4951.41919,0.01295
4950.38893,0.01383
4949.35868,0.01473
4948.32842,0.01442
4947.29816,0.01378
4946.26790,0.01370
4945.23764,0.01357
4944.20739,0.01300
4943.17713,0.01255
4942.14687,0.01265
4941.11661,0.01353
4940.08636,0.01456
4939.05610,0.01471
4938.02584,0.01442
4936.99558,0.01469
4935.96532,0.01512
4934.93507,0.01465
4933.90481,0.01386
4932.87455,0.01343
4931.84429,0.01306
4930.81403,0.01305
4929.78378,0.01307
4928.75352,0.01332
4927.72326,0.01456
4926.69300,0.01541
4925.66275,0.01477
4924.63249,0.01382
4923.60223,0.01321
4922.57197,0.01277
4921.54171,0.01308
4920.51146,0.01388
4919.48120,0.01398
4918.45094,0.01373
4917.42068,0.01415
4916.39042,0.01463
4915.36017,0.01467
4914.32991,0.01464
4913.29965,0.01462
4912.26939,0.01461
4911.23914,0.01420
4910.20888,0.01331
4909.17862,0.01326
4908.14836,0.01407
4907.11810,0.01392
4906.08785,0.01331
4905.05759,0.01356
4904.02733,0.01359
4902.99707,0.01330
4901.96682,0.01320
4900.93656,0.01293
4899.90630,0.01328
4898.87604,0.01411
4897.84578,0.01412
4896.81553,0.01376
4895.78527,0.01416
4894.75501,0.01461
4893.72475,0.01443
4892.69449,0.01462
4891.66424,0.01469
4890.63398,0.01346
4889.60372,0.01261
4888.57346,0.01363
4887.54321,0.01453
4886.51295,0.01400
4885.48269,0.01363
4884.45243,0.01422
4883.42217,0.01445
4882.39192,0.01398
4881.36166,0.01382
4880.33140,0.01352
4879.30114,0.01274
4878.27088,0.01237
4877.24063,0.01252
4876.21037,0.01305
4875.18011,0.01391
4874.14985,0.01448
4873.11960,0.01411
4872.08934,0.01344
4871.05908,0.01335
4870.02882,0.01373
4868.99856,0.01424
4867.96831,0.01390
4866.93805,0.01284
4865.90779,0.01296
4864.87753,0.01376
4863.84727,0.01376
4862.81702,0.01331
4861.78676,0.01336
4860.75650,0.01417
4859.72624,0.01456
4858.69599,0.01397
4857.66573,0.01355
4856.63547,0.01324
4855.60521,0.01218
4854.57495,0.01131
4853.54470,0.01156
4852.51444,0.01233
4851.48418,0.01276
4850.45392,0.01284
4849.42367,0.01303
4848.39341,0.01319
4847.36315,0.01364
4846.33289,0.01407
4845.30263,0.01353
4844.27238,0.01278
4843.24212,0.01302
4842.21186,0.01362
4841.18160,0.01375
4840.15134,0.01407
4839.12109,0.01478
4838.09083,0.01506
4837.06057,0.01460
4836.03031,0.01368
4835.00006,0.01287
4833.96980,0.01239
4832.93954,0.01194
4831.90928,0.01226
4830.87902,0.01341
4829.84877,0.01401
4828.81851,0.01390
4827.78825,0.01354
4826.75799,0.01353
4825.72773,0.01395
4824.69748,0.01360
4823.66722,0.01271
4822.63696,0.01253
4821.60670,0.01339
4820.57645,0.01460
4819.54619,0.01504
4818.51593,0.01469
4817.48567,0.01445
4816.45541,0.01434
4815.42516,0.01406
4814.39490,0.01344
4813.36464,0.01270
4812.33438,0.01254
4811.30412,0.01301
4810.27387,0.01339
4809.24361,0.01357
4808.21335,0.01390
4807.18309,0.01353
4806.15284,0.01253
4805.12258,0.01239
4804.09232,0.01291
4803.06206,0.01354
4802.03180,0.01383
4801.00155,0.01287
4799.97129,0.01161
4798.94103,0.01148
4797.91077,0.01229
4796.88052,0.01357
4795.85026,0.01421
4794.82000,0.01365
4793.78974,0.01318
4792.75948,0.01330
4791.72923,0.01342
4790.69897,0.01309
4789.66871,0.01272
4788.63845,0.01290
4787.60819,0.01312
4786.57794,0.01346
4785.54768,0.01411
4784.51742,0.01430
4783.48716,0.01400
4782.45691,0.01387
4781.42665,0.01411
4780.39639,0.01423
4779.36613,0.01383
4778.33587,0.01282
4777.30562,0.01176
4776.27536,0.01176
4775.24510,0.01258
4774.21484,0.01298
4773.18458,0.01256
4772.15433,0.01215
4771.12407,0.01274
4770.09381,0.01328
4769.06355,0.01272
4768.03330,0.01232
4767.00304,0.01254
4765.97278,0.01292
4764.94252,0.01345
4763.91226,0.01402
4762.88201,0.01401
4761.85175,0.01323
4760.82149,0.01259
4759.79123,0.01226
4758.76098,0.01207
4757.73072,0.01240
4756.70046,0.01281
4755.67020,0.01275
4754.63994,0.01258
4753.60969,0.01245
4752.57943,0.01216
4751.54917,0.01246
4750.51891,0.01322
4749.48865,0.01335
4748.45840,0.01328
4747.42814,0.01333
4746.39788,0.01313
4745.36762,0.01338
4744.33737,0.01436
4743.30711,0.01529
4742.27685,0.01518
4741.24659,0.01375
4740.21633,0.01236
4739.18608,0.01249
4738.15582,0.01295
4737.12556,0.01233
4736.09530,0.01193
4735.06504,0.01236
4734.03479,0.01318
4733.00453,0.01405
4731.97427,0.01391
4730.94401,0.01293
4729.91376,0.01225
4728.88350,0.01230
4727.85324,0.01276
4726.82298,0.01286
4725.79272,0.01242
4724.76247,0.01195
4723.73221,0.01185
4722.70195,0.01212
4721.67169,0.01257
4720.64143,0.01344
4719.61118,0.01445
4718.58092,0.01455
4717.55066,0.01400
4716.52040,0.01353
4715.49015,0.01320
4714.45989,0.01313
4713.42963,0.01319
4712.39937,0.01326
4711.36911,0.01357
4710.33886,0.01357
4709.30860,0.01292
4708.27834,0.01265
4707.24808,0.01269
4706.21783,0.01239
4705.18757,0.01225
4704.15731,0.01266
4703.12705,0.01337
4702.09679,0.01389
4701.06654,0.01390
4700.03628,0.01345
4699.00602,0.01307
4697.97576,0.01322
4696.94550,0.01349
4695.91525,0.01372
4694.88499,0.01401
4693.85473,0.01381
4692.82447,0.01309
4691.79422,0.01273
4690.76396,0.01298
4689.73370,0.01357
4688.70344,0.01407
4687.67318,0.01445
4686.64293,0.01459
4685.61267,0.01389
4684.58241,0.01309
4683.55215,0.01276
4682.52189,0.01218
4681.49164,0.01177
4680.46138,0.01229
4679.43112,0.01336
4678.40086,0.01409
4677.37061,0.01413
4676.34035,0.01384
4675.31009,0.01356
4674.27983,0.01329
4673.24957,0.01333
4672.21932,0.01410
4671.18906,0.01438
4670.15880,0.01386
4669.12854,0.01395
4668.09828,0.01416
4667.06803,0.01382
4666.03777,0.01340
4665.00751,0.01326
4663.97725,0.01348
4662.94700,0.01346
4661.91674,0.01335
4660.88648,0.01361
4659.85622,0.01358
4658.82596,0.01329
4657.79571,0.01351
4656.76545,0.01385
4655.73519,0.01347
4654.70493,0.01270
4653.67468,0.01231
4652.64442,0.01234
4651.61416,0.01246
4650.58390,0.01267
4649.55364,0.01299
4648.52339,0.01289
4647.49313,0.01272
4646.46287,0.01280
4645.43261,0.01252
4644.40235,0.01223
4643.37210,0.01254
4642.34184,0.01281
4641.31158,0.01246
4640.28132,0.01206
4639.25107,0.01202
4638.22081,0.01213
4637.19055,0.01238
4636.16029,0.01265
4635.13003,0.01281
4634.09978,0.01288
4633.06952,0.01299
4632.03926,0.01350
4631.00900,0.01414
4629.97874,0.01395
4628.94849,0.01313
4627.91823,0.01274
4626.88797,0.01313
4625.85771,0.01373
4624.82746,0.01382
4623.79720,0.01299
4622.76694,0.01247
4621.73668,0.01362
4620.70642,0.01510
4619.67617,0.01552
4618.64591,0.01442
4617.61565,0.01268
4616.58539,0.01252
4615.55513,0.01359
4614.52488,0.01359
4613.49462,0.01248
4612.46436,0.01225
4611.43410,0.01304
4610.40385,0.01338
4609.37359,0.01305
4608.34333,0.01251
4607.31307,0.01187
4606.28281,0.01171
4605.25256,0.01251
4604.22230,0.01310
4603.19204,0.01256
4602.16178,0.01203
4601.13153,0.01223
4600.10127,0.01249
4599.07101,0.01279
4598.04075,0.01323
4597.01049,0.01334
4595.98024,0.01298
4594.94998,0.01235
4593.91972,0.01181
4592.88946,0.01157
4591.85920,0.01155
4590.82895,0.01154
4589.79869,0.01149
4588.76843,0.01184
4587.73817,0.01271
4586.70792,0.01324
4585.67766,0.01296
4584.64740,0.01244
4583.61714,0.01215
4582.58688,0.01218
4581.55663,0.01241
4580.52637,0.01254
4579.49611,0.01244
4578.46585,0.01214
4577.43559,0.01210
4576.40534,0.01256
4575.37508,0.01252
4574.34482,0.01176
4573.31456,0.01182
4572.28431,0.01276
4571.25405,0.01344
4570.22379,0.01394
4569.19353,0.01418
4568.16327,0.01347
4567.13302,0.01246
4566.10276,0.01221
4565.07250,0.01256
4564.04224,0.01289
4563.01198,0.01316
4561.98173,0.01324
4560.95147,0.01299
4559.92121,0.01314
4558.89095,0.01352
4557.86070,0.01328
4556.83044,0.01256
4555.80018,0.01197
4554.76992,0.01196
4553.73966,0.01265
4552.70941,0.01369
4551.67915,0.01408
4550.64889,0.01349
4549.61863,0.01256
4548.58838,0.01184
4547.55812,0.01215
4546.52786,0.01315
4545.49760,0.01344
4544.46734,0.01314
4543.43709,0.01299
4542.40683,0.01295
4541.37657,0.01311
4540.34631,0.01335
4539.31605,0.01328
4538.28580,0.01319
4537.25554,0.01346
4536.22528,0.01379
4535.19502,0.01343
4534.16477,0.01245
4533.13451,0.01192
4532.10425,0.01195
4531.07399,0.01201
4530.04373,0.01228
4529.01348,0.01251
4527.98322,0.01242
4526.95296,0.01255
4525.92270,0.01318
4524.89244,0.01359
4523.86219,0.01344
4522.83193,0.01322
4521.80167,0.01310
4520.77141,0.01288
4519.74116,0.01243
4518.71090,0.01216
4517.68064,0.01224
4516.65038,0.01188
4515.62012,0.01128
4514.58987,0.01167
4513.55961,0.01289
4512.52935,0.01342
4511.49909,0.01287
4510.46883,0.01238
4509.43858,0.01275
4508.40832,0.01320
4507.37806,0.01309
4506.34780,0.01307
4505.31755,0.01336
4504.28729,0.01343
4503.25703,0.01306
4502.22677,0.01274
4501.19651,0.01278
4500.16626,0.01300
4499.13600,0.01360
4498.10574,0.01454
4497.07548,0.01505
4496.04523,0.01450
4495.01497,0.01341
4493.98471,0.01262
4492.95445,0.01209
4491.92419,0.01207
4490.89394,0.01269
4489.86368,0.01284
4488.83342,0.01242
4487.80316,0.01224
4486.77290,0.01247
4485.74265,0.01317
4484.71239,0.01377
4483.68213,0.01376
4482.65187,0.01339
4481.62162,0.01319
4480.59136,0.01356
4479.56110,0.01422
4478.53084,0.01452
4477.50058,0.01437
4476.47033,0.01413
4475.44007,0.01362
4474.40981,0.01306
4473.37955,0.01294
4472.34929,0.01302
4471.31904,0.01294
4470.28878,0.01266
4469.25852,0.01246
4468.22826,0.01285
4467.19801,0.01366
4466.16775,0.01408
4465.13749,0.01429
4464.10723,0.01453
4463.07697,0.01431
4462.04672,0.01404
4461.01646,0.01417
4459.98620,0.01407
4458.95594,0.01370
4457.92568,0.01351
4456.89543,0.01343
4455.86517,0.01320
4454.83491,0.01295
4453.80465,0.01319
4452.77440,0.01352
4451.74414,0.01324
4450.71388,0.01290
4449.68362,0.01312
4448.65336,0.01367
4447.62311,0.01400
4446.59285,0.01383
4445.56259,0.01344
4444.53233,0.01301
4443.50208,0.01245
4442.47182,0.01225
4441.44156,0.01282
4440.41130,0.01365
4439.38104,0.01398
4438.35079,0.01391
4437.32053,0.01371
4436.29027,0.01312
4435.26001,0.01264
4434.22975,0.01279
4433.19950,0.01315
4432.16924,0.01347
4431.13898,0.01353
4430.10872,0.01322
4429.07847,0.01305
4428.04821,0.01329
4427.01795,0.01358
4425.98769,0.01381
4424.95743,0.01401
4423.92718,0.01389
4422.89692,0.01350
4421.86666,0.01336
4420.83640,0.01344
4419.80614,0.01347
4418.77589,0.01339
4417.74563,0.01327
4416.71537,0.01331
4415.68511,0.01330
4414.65486,0.01330
4413.62460,0.01392
4412.59434,0.01465
4411.56408,0.01488
4410.53382,0.01487
4409.50357,0.01445
4408.47331,0.01408
4407.44305,0.01438
4406.41279,0.01459
4405.38253,0.01442
4404.35228,0.01412
4403.32202,0.01371
4402.29176,0.01311
4401.26150,0.01245
4400.23125,0.01248
4399.20099,0.01304
4398.17073,0.01274
4397.14047,0.01170
4396.11021,0.01205
4395.07996,0.01351
4394.04970,0.01380
4393.01944,0.01316
4391.98918,0.01290
4390.95893,0.01284
4389.92867,0.01279
4388.89841,0.01306
4387.86815,0.01325
4386.83789,0.01316
4385.80764,0.01329
4384.77738,0.01356
4383.74712,0.01376
4382.71686,0.01373
4381.68660,0.01311
4380.65635,0.01263
4379.62609,0.01273
4378.59583,0.01285
4377.56557,0.01266
4376.53532,0.01242
4375.50506,0.01247
4374.47480,0.01245
4373.44454,0.01255
4372.41428,0.01299
4371.38403,0.01326
4370.35377,0.01322
4369.32351,0.01313
4368.29325,0.01328
4367.26299,0.01344
4366.23274,0.01364
4365.20248,0.01391
4364.17222,0.01325
4363.14196,0.01199
4362.11171,0.01165
4361.08145,0.01252
4360.05119,0.01334
4359.02093,0.01308
4357.99067,0.01263
4356.96042,0.01285
4355.93016,0.01312
4354.89990,0.01287
4353.86964,0.01233
4352.83939,0.01229
4351.80913,0.01263
4350.77887,0.01252
4349.74861,0.01211
4348.71835,0.01198
4347.68810,0.01196
4346.65784,0.01194
4345.62758,0.01226
4344.59732,0.01271
4343.56706,0.01258
4342.53681,0.01196
4341.50655,0.01171
4340.47629,0.01193
4339.44603,0.01213
4338.41578,0.01220
4337.38552,0.01250
4336.35526,0.01299
4335.32500,0.01310
4334.29474,0.01291
4333.26449,0.01302
4332.23423,0.01328
4331.20397,0.01324
4330.17371,0.01320
4329.14345,0.01298
4328.11320,0.01246
4327.08294,0.01240
4326.05268,0.01275
4325.02242,0.01289
4323.99217,0.01295
4322.96191,0.01343
4321.93165,0.01380
4320.90139,0.01337
4319.87113,0.01272
4318.84088,0.01243
4317.81062,0.01243
4316.78036,0.01269
4315.75010,0.01310
4314.71984,0.01337
4313.68959,0.01339
4312.65933,0.01320
4311.62907,0.01299
4310.59881,0.01287
4309.56856,0.01273
4308.53830,0.01253
4307.50804,0.01263
4306.47778,0.01304
4305.44752,0.01355
4304.41727,0.01405
4303.38701,0.01410
4302.35675,0.01380
4301.32649,0.01350
4300.29624,0.01328
4299.26598,0.01325
4298.23572,0.01333
4297.20546,0.01329
4296.17520,0.01311
4295.14495,0.01301
4294.11469,0.01282
4293.08443,0.01257
4292.05417,0.01253
4291.02391,0.01270
4289.99366,0.01276
4288.96340,0.01248
4287.93314,0.01248
4286.90288,0.01300
4285.87263,0.01308
4284.84237,0.01298
4283.81211,0.01314
4282.78185,0.01254
4281.75159,0.01189
4280.72134,0.01234
4279.69108,0.01306
4278.66082,0.01344
4277.63056,0.01333
4276.60030,0.01274
4275.57005,0.01227
4274.53979,0.01247
4273.50953,0.01308
4272.47927,0.01352
4271.44902,0.01385
4270.41876,0.01406
4269.38850,0.01387
4268.35824,0.01347
4267.32798,0.01305
4266.29773,0.01256
4265.26747,0.01216
4264.23721,0.01210
4263.20695,0.01229
4262.17669,0.01256
4261.14644,0.01286
4260.11618,0.01287
4259.08592,0.01230
4258.05566,0.01177
4257.02541,0.01178
4255.99515,0.01219
4254.96489,0.01280
4253.93463,0.01311
4252.90437,0.01275
4251.87412,0.01223
4250.84386,0.01215
4249.81360,0.01223
4248.78334,0.01230
4247.75309,0.01273
4246.72283,0.01352
4245.69257,0.01390
4244.66231,0.01363
4243.63205,0.01362
4242.60180,0.01379
4241.57154,0.01331
4240.54128,0.01245
4239.51102,0.01194
4238.48076,0.01205
4237.45051,0.01224
4236.42025,0.01215
4235.38999,0.01191
4234.35973,0.01156
4233.32948,0.01173
4232.29922,0.01271
4231.26896,0.01353
4230.23870,0.01340
4229.20844,0.01234
4228.17819,0.01139
4227.14793,0.01149
4226.11767,0.01215
4225.08741,0.01257
4224.05715,0.01275
4223.02690,0.01282
4221.99664,0.01287
4220.96638,0.01311
4219.93612,0.01329
4218.90587,0.01305
4217.87561,0.01267
4216.84535,0.01263
4215.81509,0.01272
4214.78483,0.01252
4213.75458,0.01228
4212.72432,0.01266
4211.69406,0.01341
4210.66380,0.01359
4209.63354,0.01327
4208.60329,0.01307
4207.57303,0.01298
4206.54277,0.01271
4205.51251,0.01243
4204.48226,0.01243
4203.45200,0.01252
4202.42174,0.01225
4201.39148,0.01194
4200.36122,0.01214
4199.33097,0.01253
4198.30071,0.01265
4197.27045,0.01260
4196.24019,0.01277
4195.20994,0.01317
4194.17968,0.01336
4193.14942,0.01309
4192.11916,0.01266
4191.08890,0.01264
4190.05865,0.01297
4189.02839,0.01326
4187.99813,0.01327
4186.96787,0.01304
4185.93761,0.01289
4184.90736,0.01271
4183.87710,0.01220
4182.84684,0.01203
4181.81658,0.01250
4180.78633,0.01265
4179.75607,0.01240
4178.72581,0.01229
4177.69555,0.01236
4176.66529,0.01256
4175.63504,0.01274
4174.60478,0.01305
4173.57452,0.01343
4172.54426,0.01316
4171.51400,0.01239
4170.48375,0.01207
4169.45349,0.01204
4168.42323,0.01194
4167.39297,0.01234
4166.36272,0.01319
4165.33246,0.01376
4164.30220,0.01367
4163.27194,0.01330
4162.24168,0.01325
4161.21143,0.01354
4160.18117,0.01351
4159.15091,0.01330
4158.12065,0.01343
4157.09039,0.01350
4156.06014,0.01335
4155.02988,0.01334
4153.99962,0.01341
4152.96936,0.01336
4151.93911,0.01335
4150.90885,0.01358
4149.87859,0.01339
4148.84833,0.01255
4147.81807,0.01232
4146.78782,0.01267
4145.75756,0.01241
4144.72730,0.01193
4143.69704,0.01194
4142.66679,0.01219
4141.63653,0.01257
4140.60627,0.01307
4139.57601,0.01346
4138.54575,0.01343
4137.51550,0.01286
4136.48524,0.01242
4135.45498,0.01288
4134.42472,0.01364
4133.39446,0.01365
4132.36421,0.01292
4131.33395,0.01215
4130.30369,0.01192
4129.27343,0.01209
4128.24318,0.01215
4127.21292,0.01189
4126.18266,0.01145
4125.15240,0.01119
4124.12214,0.01131
4123.09189,0.01161
4122.06163,0.01163
4121.03137,0.01162
4120.00111,0.01221
4118.97085,0.01294
4117.94060,0.01308
4116.91034,0.01287
4115.88008,0.01254
4114.84982,0.01207
4113.81957,0.01205
4112.78931,0.01231
4111.75905,0.01209
4110.72879,0.01204
4109.69853,0.01253
4108.66828,0.01247
4107.63802,0.01175
4106.60776,0.01130
4105.57750,0.01138
4104.54724,0.01163
4103.51699,0.01221
4102.48673,0.01306
4101.45647,0.01319
4100.42621,0.01253
4099.39596,0.01203
4098.36570,0.01191
4097.33544,0.01187
4096.30518,0.01202
4095.27492,0.01229
4094.24467,0.01233
4093.21441,0.01196
4092.18415,0.01193
4091.15389,0.01277
4090.12364,0.01326
4089.09338,0.01253
4088.06312,0.01118
4087.03286,0.01054
4086.00260,0.01139
4084.97235,0.01258
4083.94209,0.01292
4082.91183,0.01276
4081.88157,0.01261
4080.85131,0.01253
4079.82106,0.01237
4078.79080,0.01221
4077.76054,0.01219
4076.73028,0.01237
4075.70003,0.01273
4074.66977,0.01275
4073.63951,0.01219
4072.60925,0.01176
4071.57899,0.01171
4070.54874,0.01160
4069.51848,0.01168
4068.48822,0.01209
4067.45796,0.01224
4066.42770,0.01189
4065.39745,0.01148
4064.36719,0.01128
4063.33693,0.01125
4062.30667,0.01144
4061.27642,0.01169
4060.24616,0.01185
4059.21590,0.01199
4058.18564,0.01214
4057.15538,0.01219
4056.12513,0.01210
4055.09487,0.01185
4054.06461,0.01174
4053.03435,0.01208
4052.00409,0.01261
4050.97384,0.01258
4049.94358,0.01197
4048.91332,0.01189
4047.88306,0.01241
4046.85281,0.01259
4045.82255,0.01218
4044.79229,0.01148
4043.76203,0.01114
4042.73177,0.01136
4041.70152,0.01180
4040.67126,0.01228
4039.64100,0.01270
4038.61074,0.01256
4037.58049,0.01169
4036.55023,0.01100
4035.51997,0.01106
4034.48971,0.01144
4033.45945,0.01178
4032.42920,0.01202
4031.39894,0.01211
4030.36868,0.01181
4029.33842,0.01152
4028.30816,0.01191
4027.27791,0.01248
4026.24765,0.01227
4025.21739,0.01165
4024.18713,0.01164
4023.15688,0.01216
4022.12662,0.01242
4021.09636,0.01216
4020.06610,0.01176
4019.03584,0.01159
4018.00559,0.01163
4016.97533,0.01173
4015.94507,0.01211
4014.91481,0.01255
4013.88455,0.01243
4012.85430,0.01206
4011.82404,0.01217
4010.79378,0.01240
4009.76352,0.01239
4008.73327,0.01238
4007.70301,0.01239
4006.67275,0.01237
4005.64249,0.01246
4004.61223,0.01272
4003.58198,0.01252
4002.55172,0.01185
4001.52146,0.01144
4000.49120,0.01121
3999.46095,0.01101
3998.43069,0.01135
3997.40043,0.01199
3996.37017,0.01207
3995.33991,0.01175
3994.30966,0.01171
3993.27940,0.01179
3992.24914,0.01160
3991.21888,0.01155
3990.18862,0.01181
3989.15837,0.01197
3988.12811,0.01191
3987.09785,0.01179
3986.06759,0.01145
3985.03734,0.01101
3984.00708,0.01111
3982.97682,0.01154
3981.94656,0.01174
3980.91630,0.01189
3979.88605,0.01218
3978.85579,0.01225
3977.82553,0.01193
3976.79527,0.01171
3975.76501,0.01193
3974.73476,0.01218
3973.70450,0.01214
3972.67424,0.01230
3971.64398,0.01249
3970.61373,0.01222
3969.58347,0.01165
3968.55321,0.01095
3967.52295,0.01057
3966.49269,0.01108
3965.46244,0.01191
3964.43218,0.01223
3963.40192,0.01213
3962.37166,0.01207
3961.34140,0.01220
3960.31115,0.01227
3959.28089,0.01207
3958.25063,0.01172
3957.22037,0.01144
3956.19012,0.01134
3955.15986,0.01161
3954.12960,0.01183
3953.09934,0.01146
3952.06908,0.01101
3951.03883,0.01108
3950.00857,0.01158
3948.97831,0.01223
3947.94805,0.01279
3946.91780,0.01283
3945.88754,0.01244
3944.85728,0.01195
3943.82702,0.01156
3942.79676,0.01137
3941.76651,0.01133
3940.73625,0.01137
3939.70599,0.01142
3938.67573,0.01141
3937.64547,0.01130
3936.61522,0.01125
3935.58496,0.01137
3934.55470,0.01151
3933.52444,0.01160
3932.49419,0.01174
3931.46393,0.01197
3930.43367,0.01195
3929.40341,0.01151
3928.37315,0.01122
3927.34290,0.01146
3926.31264,0.01179
3925.28238,0.01190
3924.25212,0.01195
3923.22186,0.01210
3922.19161,0.01223
3921.16135,0.01226
3920.13109,0.01204
3919.10083,0.01174
3918.07058,0.01168
3917.04032,0.01173
3916.01006,0.01164
3914.97980,0.01164
3913.94954,0.01196
3912.91929,0.01208
3911.88903,0.01161
3910.85877,0.01091
3909.82851,0.01041
3908.79825,0.01054
3907.76800,0.01131
3906.73774,0.01191
3905.70748,0.01193
3904.67722,0.01148
3903.64697,0.01100
3902.61671,0.01112
3901.58645,0.01169
3900.55619,0.01243
3899.52593,0.01253
3898.49568,0.01197
3897.46542,0.01165
3896.43516,0.01153
3895.40490,0.01169
3894.37465,0.01187
3893.34439,0.01153
3892.31413,0.01115
3891.28387,0.01122
3890.25361,0.01145
3889.22336,0.01157
3888.19310,0.01166
3887.16284,0.01165
3886.13258,0.01108
3885.10232,0.01011
3884.07207,0.00974
3883.04181,0.01018
3882.01155,0.01113
3880.98129,0.01179
3879.95104,0.01163
3878.92078,0.01144
3877.89052,0.01134
3876.86026,0.01101
3875.83000,0.01080
3874.79975,0.01088
3873.76949,0.01101
3872.73923,0.01107
3871.70897,0.01107
3870.67871,0.01118
3869.64846,0.01176
3868.61820,0.01224
3867.58794,0.01196
3866.55768,0.01144
3865.52743,0.01091
3864.49717,0.01045
3863.46691,0.01023
3862.43665,0.00982
3861.40639,0.00959
3860.37614,0.01016
3859.34588,0.01057
3858.31562,0.01037
3857.28536,0.01029
3856.25510,0.01066
3855.22485,0.01091
3854.19459,0.01075
3853.16433,0.01103
3852.13407,0.01126
3851.10382,0.01084
3850.07356,0.01078
3849.04330,0.01123
3848.01304,0.01140
3846.98278,0.01137
3845.95253,0.01143
3844.92227,0.01133
3843.89201,0.01126
3842.86175,0.01132
3841.83150,0.01107
3840.80124,0.01060
3839.77098,0.01070
3838.74072,0.01108
3837.71046,0.01086
3836.68021,0.01067
3835.64995,0.01095
3834.61969,0.01109
3833.58943,0.01084
3832.55917,0.01081
3831.52892,0.01113
3830.49866,0.01099
3829.46840,0.01046
3828.43814,0.01053
3827.40789,0.01123
3826.37763,0.01142
3825.34737,0.01099
3824.31711,0.01070
3823.28685,0.01063
3822.25660,0.01075
3821.22634,0.01137
3820.19608,0.01197
3819.16582,0.01169
3818.13556,0.01126
3817.10531,0.01134
3816.07505,0.01165
3815.04479,0.01159
3814.01453,0.01132
3812.98428,0.01110
3811.95402,0.01080
3810.92376,0.01041
3809.89350,0.01011
3808.86324,0.01009
3807.83299,0.01007
3806.80273,0.00977
3805.77247,0.01004
3804.74221,0.01081
3803.71195,0.01127
3802.68170,0.01119
3801.65144,0.01086
3800.62118,0.01078
3799.59092,0.01072
3798.56067,0.01039
3797.53041,0.01028
3796.50015,0.01077
3795.46989,0.01119
3794.43963,0.01119
3793.40938,0.01116
3792.37912,0.01109
3791.34886,0.01086
3790.31860,0.01060
3789.28835,0.01036
3788.25809,0.01031
3787.22783,0.01069
3786.19757,0.01118
3785.16731,0.01123
3784.13706,0.01110
3783.10680,0.01122
3782.07654,0.01112
3781.04628,0.01060
3780.01602,0.01013
3778.98577,0.00984
3777.95551,0.00994
3776.92525,0.01044
3775.89499,0.01089
3774.86474,0.01121
3773.83448,0.01132
3772.80422,0.01084
3771.77396,0.01003
3770.74370,0.00976
3769.71345,0.01037
3768.68319,0.01110
3767.65293,0.01153
3766.62267,0.01159
3765.59241,0.01123
3764.56216,0.01078
3763.53190,0.01066
3762.50164,0.01095
3761.47138,0.01126
3760.44113,0.01129
3759.41087,0.01108
3758.38061,0.01070
3757.35035,0.01050
3756.32009,0.01079
3755.28984,0.01109
3754.25958,0.01108
3753.22932,0.01105
3752.19906,0.01087
3751.16880,0.01096
3750.13855,0.01143
3749.10829,0.01112
3748.07803,0.01050
3747.04777,0.01067
3746.01752,0.01090
3744.98726,0.01058
3743.95700,0.01027
3742.92674,0.01034
3741.89648,0.01012
3740.86623,0.00997
3739.83597,0.01047
3738.80571,0.01115
3737.77545,0.01112
3736.74520,0.01054
3735.71494,0.01043
3734.68468,0.01056
3733.65442,0.01053
3732.62416,0.01057
3731.59391,0.01076
3730.56365,0.01081
3729.53339,0.01046
3728.50313,0.01027
3727.47287,0.01043
3726.44262,0.01042
3725.41236,0.01019
3724.38210,0.00970
3723.35184,0.00948
3722.32159,0.01013
3721.29133,0.01060
3720.26107,0.01051
3719.23081,0.01047
3718.20055,0.01036
3717.17030,0.01013
3716.14004,0.01005
3715.10978,0.01031
3714.07952,0.01074
3713.04926,0.01104
3712.01901,0.01102
3710.98875,0.01095
3709.95849,0.01125
3708.92823,0.01139
3707.89798,0.01079
3706.86772,0.01016
3705.83746,0.01013
3704.80720,0.01046
3703.77694,0.01037
3702.74669,0.00996
3701.71643,0.00999
3700.68617,0.00995
3699.65591,0.00958
3698.62565,0.00968
3697.59540,0.01014
3696.56514,0.01028
3695.53488,0.01020
3694.50462,0.01024
3693.47437,0.01034
3692.44411,0.01034
3691.41385,0.01009
3690.38359,0.01019
3689.35333,0.01088
3688.32308,0.01083
3687.29282,0.00982
3686.26256,0.00929
3685.23230,0.00960
3684.20205,0.01023
3683.17179,0.01033
3682.14153,0.01001
3681.11127,0.00972
3680.08101,0.00946
3679.05076,0.00934
3678.02050,0.00948
3676.99024,0.00968
3675.95998,0.00996
3674.92972,0.01032
3673.89947,0.01026
3672.86921,0.01015
3671.83895,0.01034
3670.80869,0.01046
3669.77844,0.01010
3668.74818,0.00984
3667.71792,0.00973
3666.68766,0.00960
3665.65740,0.00974
3664.62715,0.01034
3663.59689,0.01098
3662.56663,0.01110
3661.53637,0.01076
3660.50611,0.01014
3659.47586,0.00958
3658.44560,0.00943
3657.41534,0.00966
3656.38508,0.01013
3655.35483,0.01049
3654.32457,0.01074
3653.29431,0.01100
3652.26405,0.01103
3651.23379,0.01073
3650.20354,0.01076
3649.17328,0.01098
3648.14302,0.01075
3647.11276,0.01054
3646.08250,0.01058
3645.05225,0.01068
3644.02199,0.01055
3642.99173,0.01023
3641.96147,0.01014
3640.93122,0.01039
3639.90096,0.01059
3638.87070,0.01065
3637.84044,0.01074
3636.81018,0.01063
3635.77993,0.01028
3634.74967,0.00995
3633.71941,0.00968
3632.68915,0.00983
3631.65890,0.01019
3630.62864,0.01030
3629.59838,0.01077
3628.56812,0.01152
3627.53786,0.01116
3626.50761,0.01039
3625.47735,0.00999
3624.44709,0.01002
3623.41683,0.01035
3622.38657,0.01032
3621.35632,0.00970
3620.32606,0.00956
3619.29580,0.01025
3618.26554,0.01059
3617.23529,0.01033
3616.20503,0.01027
3615.17477,0.01060
3614.14451,0.01104
3613.11425,0.01140
3612.08400,0.01127
3611.05374,0.01104
3610.02348,0.01130
3608.99322,0.01141
3607.96296,0.01102
3606.93271,0.01080
3605.90245,0.01096
3604.87219,0.01117
3603.84193,0.01136
3602.81168,0.01159
3601.78142,0.01146
3600.75116,0.01074
3599.72090,0.01000
3598.69064,0.00985
3597.66039,0.01043
3596.63013,0.01116
3595.59987,0.01130
3594.56961,0.01098
3593.53936,0.01086
3592.50910,0.01107
3591.47884,0.01143
3590.44858,0.01195
3589.41832,0.01237
3588.38807,0.01238
3587.35781,0.01229
3586.32755,0.01213
3585.29729,0.01170
3584.26703,0.01110
3583.23678,0.01103
3582.20652,0.01158
3581.17626,0.01196
3580.14600,0.01196
3579.11575,0.01190
3578.08549,0.01191
3577.05523,0.01200
3576.02497,0.01215
3574.99471,0.01256
3573.96446,0.01308
3572.93420,0.01284
3571.90394,0.01192
3570.87368,0.01152
3569.84342,0.01195
3568.81317,0.01208
3567.78291,0.01148
3566.75265,0.01138
3565.72239,0.01213
3564.69214,0.01256
3563.66188,0.01244
3562.63162,0.01252
3561.60136,0.01303
3560.57110,0.01333
3559.54085,0.01293
3558.51059,0.01250
3557.48033,0.01264
3556.45007,0.01315
3555.41981,0.01372
3554.38956,0.01392
3553.35930,0.01351
3552.32904,0.01313
3551.29878,0.01333
3550.26853,0.01371
3549.23827,0.01421
3548.20801,0.01456
3547.17775,0.01440
3546.14749,0.01435
3545.11724,0.01471
3544.08698,0.01478
3543.05672,0.01436
3542.02646,0.01398
3540.99621,0.01381
3539.96595,0.01389
3538.93569,0.01427
3537.90543,0.01452
3536.87517,0.01461
3535.84492,0.01511
3534.81466,0.01570
3533.78440,0.01586
3532.75414,0.01587
3531.72388,0.01589
3530.69363,0.01597
3529.66337,0.01609
3528.63311,0.01603
3527.60285,0.01587
3526.57260,0.01588
3525.54234,0.01608
3524.51208,0.01625
3523.48182,0.01644
3522.45156,0.01668
3521.42131,0.01695
3520.39105,0.01731
3519.36079,0.01745
3518.33053,0.01700
3517.30027,0.01642
3516.27002,0.01669
3515.23976,0.01768
3514.20950,0.01815
3513.17924,0.01825
3512.14899,0.01868
3511.11873,0.01903
3510.08847,0.01912
3509.05821,0.01918
3508.02795,0.01914
3506.99770,0.01925
3505.96744,0.01968
3504.93718,0.01995
3503.90692,0.01979
3502.87666,0.01940
3501.84641,0.01948
3500.81615,0.01999
3499.78589,0.02018
3498.75563,0.02027
3497.72538,0.02055
3496.69512,0.02074
3495.66486,0.02101
3494.63460,0.02135
3493.60434,0.02144
3492.57409,0.02157
3491.54383,0.02196
3490.51357,0.02236
3489.48331,0.02258
3488.45306,0.02260
3487.42280,0.02289
3486.39254,0.02332
3485.36228,0.02350
3484.33202,0.02368
3483.30177,0.02365
3482.27151,0.02331
3481.24125,0.02322
3480.21099,0.02352
3479.18073,0.02386
3478.15048,0.02409
3477.12022,0.02411
3476.08996,0.02443
3475.05970,0.02529
3474.02945,0.02610
3472.99919,0.02652
3471.96893,0.02645
3470.93867,0.02644
3469.90841,0.02700
3468.87816,0.02774
3467.84790,0.02829
3466.81764,0.02858
3465.78738,0.02857
3464.75712,0.02867
3463.72687,0.02906
3462.69661,0.02924
3461.66635,0.02910
3460.63609,0.02887
3459.60584,0.02892
3458.57558,0.02964
3457.54532,0.03055
3456.51506,0.03084
3455.48480,0.03071
3454.45455,0.03101
3453.42429,0.03178
3452.39403,0.03226
3451.36377,0.03247
3450.33351,0.03274
3449.30326,0.03283
3448.27300,0.03280
3447.24274,0.03334
3446.21248,0.03441
3445.18223,0.03500
3444.15197,0.03513
3443.12171,0.03537
3442.09145,0.03581
3441.06119,0.03643
3440.03094,0.03710
3439.00068,0.03779
3437.97042,0.03835
3436.94016,0.03870
3435.90991,0.03929
3434.87965,0.03985
3433.84939,0.03996
3432.81913,0.04042
3431.78887,0.04139
3430.75862,0.04176
3429.72836,0.04179
3428.69810,0.04245
3427.66784,0.04357
3426.63758,0.04440
3425.60733,0.04475
3424.57707,0.04498
3423.54681,0.04515
3422.51655,0.04544
3421.48630,0.04596
3420.45604,0.04664
3419.42578,0.04758
3418.39552,0.04827
3417.36526,0.04862
3416.33501,0.04914
3415.30475,0.04957
3414.27449,0.04984
3413.24423,0.05065
3412.21397,0.05178
3411.18372,0.05275
3410.15346,0.05357
3409.12320,0.05407
3408.09294,0.05483
3407.06269,0.05593
3406.03243,0.05645
3405.00217,0.05649
3403.97191,0.05679
3402.94165,0.05745
3401.91140,0.05812
3400.88114,0.05868
3399.85088,0.05934
3398.82062,0.06019
3397.79036,0.06094
3396.76011,0.06153
3395.72985,0.06210
3394.69959,0.06262
3393.66933,0.06336
3392.63908,0.06440
3391.60882,0.06531
3390.57856,0.06601
3389.54830,0.06679
3388.51804,0.06781
3387.48779,0.06869
3386.45753,0.06905
3385.42727,0.06919
3384.39701,0.06975
3383.36676,0.07085
3382.33650,0.07158
3381.30624,0.07175
3380.27598,0.07202
3379.24572,0.07256
3378.21547,0.07324
3377.18521,0.07378
3376.15495,0.07426
3375.12469,0.07497
3374.09443,0.07562
3373.06418,0.07608
3372.03392,0.07653
3371.00366,0.07685
3369.97340,0.07716
3368.94315,0.07759
3367.91289,0.07799
3366.88263,0.07855
3365.85237,0.07935
3364.82211,0.07981
3363.79186,0.07976
3362.76160,0.08006
3361.73134,0.08081
3360.70108,0.08127
3359.67082,0.08163
3358.64057,0.08227
3357.61031,0.08268
3356.58005,0.08278
3355.54979,0.08289
3354.51954,0.08303
3353.48928,0.08359
3352.45902,0.08465
3351.42876,0.08550
3350.39850,0.08574
3349.36825,0.08578
3348.33799,0.08596
3347.30773,0.08607
3346.27747,0.08600
3345.24721,0.08602
3344.21696,0.08642
3343.18670,0.08686
3342.15644,0.08697
3341.12618,0.08723
3340.09593,0.08780
3339.06567,0.08819
3338.03541,0.08819
3337.00515,0.08791
3335.97489,0.08760
3334.94464,0.08752
3333.91438,0.08758
3332.88412,0.08764
3331.85386,0.08756
3330.82361,0.08751
3329.79335,0.08765
3328.76309,0.08777
3327.73283,0.08782
3326.70257,0.08772
3325.67232,0.08741
3324.64206,0.08706
3323.61180,0.08678
3322.58154,0.08655
3321.55128,0.08635
3320.52103,0.08606
3319.49077,0.08589
3318.46051,0.08630
3317.43025,0.08675
3316.40000,0.08664
3315.36974,0.08603
3314.33948,0.08509
3313.30922,0.08435
3312.27896,0.08401
3311.24871,0.08366
3310.21845,0.08368
3309.18819,0.08428
3308.15793,0.08424
3307.12767,0.08321
3306.09742,0.08240
3305.06716,0.08220
3304.03690,0.08203
3303.00664,0.08185
3301.97639,0.08175
3300.94613,0.08148
3299.91587,0.08095
3298.88561,0.08055
3297.85535,0.08034
3296.82510,0.07998
3295.79484,0.07970
3294.76458,0.07970
3293.73432,0.07968
3292.70406,0.07946
3291.67381,0.07906
3290.64355,0.07870
3289.61329,0.07820
3288.58303,0.07737
3287.55278,0.07667
3286.52252,0.07631
3285.49226,0.07597
3284.46200,0.07548
3283.43174,0.07528
3282.40149,0.07562
3281.37123,0.07589
3280.34097,0.07541
3279.31071,0.07449
3278.28046,0.07402
3277.25020,0.07416
3276.21994,0.07429
3275.18968,0.07426
3274.15942,0.07433
3273.12917,0.07418
3272.09891,0.07349
3271.06865,0.07282
3270.03839,0.07243
3269.00813,0.07224
3267.97788,0.07237
3266.94762,0.07275
3265.91736,0.07308
3264.88710,0.07293
3263.85685,0.07233
3262.82659,0.07159
3261.79633,0.07090
3260.76607,0.07049
3259.73581,0.07027
3258.70556,0.07036
3257.67530,0.07086
3256.64504,0.07119
3255.61478,0.07101
3254.58452,0.07073
3253.55427,0.07077
3252.52401,0.07081
3251.49375,0.07081
3250.46349,0.07097
3249.43324,0.07080
3248.40298,0.07016
3247.37272,0.06966
3246.34246,0.06959
3245.31220,0.06964
3244.28195,0.06961
3243.25169,0.06959
3242.22143,0.06974
3241.19117,0.06994
3240.16092,0.06992
3239.13066,0.06967
3238.10040,0.06949
3237.07014,0.06956
3236.03988,0.06962
3235.00963,0.06951
3233.97937,0.06925
3232.94911,0.06886
3231.91885,0.06879
3230.88859,0.06893
3229.85834,0.06883
3228.82808,0.06882
3227.79782,0.06900
3226.76756,0.06920
3225.73731,0.06933
3224.70705,0.06948
3223.67679,0.06970
3222.64653,0.07000
3221.61627,0.07034
3220.58602,0.07043
3219.55576,0.07048
3218.52550,0.07047
3217.49524,0.06997
3216.46498,0.06967
3215.43473,0.07013
3214.40447,0.07045
3213.37421,0.07019
3212.34395,0.07006
3211.31370,0.07039
3210.28344,0.07078
3209.25318,0.07068
3208.22292,0.07018
3207.19266,0.06987
3206.16241,0.06994
3205.13215,0.06995
3204.10189,0.06967
3203.07163,0.06962
3202.04137,0.06994
3201.01112,0.07017
3199.98086,0.07027
3198.95060,0.07045
3197.92034,0.07062
3196.89009,0.07051
3195.85983,0.07017
3194.82957,0.07015
3193.79931,0.07060
3192.76905,0.07090
3191.73880,0.07068
3190.70854,0.07030
3189.67828,0.07009
3188.64802,0.07008
3187.61777,0.07030
3186.58751,0.07051
3185.55725,0.07043
3184.52699,0.07042
3183.49673,0.07069
3182.46648,0.07075
3181.43622,0.07048
3180.40596,0.07020
3179.37570,0.06981
3178.34544,0.06954
3177.31519,0.06991
3176.28493,0.07040
3175.25467,0.07027
3174.22441,0.06986
3173.19416,0.06961
3172.16390,0.06929
3171.13364,0.06894
3170.10338,0.06910
3169.07312,0.06958
3168.04287,0.06971
3167.01261,0.06941
3165.98235,0.06908
3164.95209,0.06911
3163.92183,0.06937
3162.89158,0.06939
3161.86132,0.06939
3160.83106,0.06955
3159.80080,0.06946
3158.77055,0.06916
3157.74029,0.06904
3156.71003,0.06928
3155.67977,0.06948
3154.64951,0.06923
3153.61926,0.06898
3152.58900,0.06911
3151.55874,0.06930
3150.52848,0.06963
3149.49822,0.06986
3148.46797,0.06957
3147.43771,0.06928
3146.40745,0.06938
3145.37719,0.06970
3144.34694,0.06999
3143.31668,0.06998
3142.28642,0.06982
3141.25616,0.06984
3140.22590,0.06989
3139.19565,0.06956
3138.16539,0.06925
3137.13513,0.06949
3136.10487,0.06997
3135.07462,0.07002
3134.04436,0.06949
3133.01410,0.06896
3131.98384,0.06890
3130.95358,0.06926
3129.92333,0.06974
3128.89307,0.07024
3127.86281,0.07052
3126.83255,0.07025
3125.80229,0.06992
3124.77204,0.07004
3123.74178,0.07038
3122.71152,0.07059
3121.68126,0.07057
3120.65101,0.07033
3119.62075,0.07016
3118.59049,0.07040
3117.56023,0.07063
3116.52997,0.07030
3115.49972,0.06973
3114.46946,0.06969
3113.43920,0.07010
3112.40894,0.07047
3111.37868,0.07071
3110.34843,0.07087
3109.31817,0.07121
3108.28791,0.07179
3107.25765,0.07221
3106.22740,0.07224
3105.19714,0.07220
3104.16688,0.07238
3103.13662,0.07255
3102.10636,0.07256
3101.07611,0.07265
3100.04585,0.07286
3099.01559,0.07305
3097.98533,0.07306
3096.95507,0.07284
3095.92482,0.07276
3094.89456,0.07312
3093.86430,0.07383
3092.83404,0.07450
3091.80379,0.07479
3090.77353,0.07474
3089.74327,0.07476
3088.71301,0.07503
3087.68275,0.07522
3086.65250,0.07529
3085.62224,0.07561
3084.59198,0.07614
3083.56172,0.07638
3082.53147,0.07616
3081.50121,0.07592
3080.47095,0.07594
3079.44069,0.07617
3078.41043,0.07653
3077.38018,0.07709
3076.34992,0.07753
3075.31966,0.07741
3074.28940,0.07717
3073.25914,0.07761
3072.22889,0.07855
3071.19863,0.07915
3070.16837,0.07943
3069.13811,0.07983
3068.10786,0.08027
3067.07760,0.08056
3066.04734,0.08081
3065.01708,0.08106
3063.98682,0.08121
3062.95657,0.08139
3061.92631,0.08159
3060.89605,0.08185
3059.86579,0.08235
3058.83553,0.08277
3057.80528,0.08300
3056.77502,0.08335
3055.74476,0.08383
3054.71450,0.08428
3053.68425,0.08464
3052.65399,0.08496
3051.62373,0.08533
3050.59347,0.08587
3049.56321,0.08636
3048.53296,0.08651
3047.50270,0.08645
3046.47244,0.08641
3045.44218,0.08659
3044.41192,0.08699
3043.38167,0.08751
3042.35141,0.08824
3041.32115,0.08889
3040.29089,0.08931
3039.26064,0.08973
3038.23038,0.09035
3037.20012,0.09118
3036.16986,0.09160
3035.13960,0.09144
3034.10935,0.09139
3033.07909,0.09173
3032.04883,0.09204
3031.01857,0.09243
3029.98832,0.09345
3028.95806,0.09477
3027.92780,0.09563
3026.89754,0.09566
3025.86728,0.09537
3024.83703,0.09533
3023.80677,0.09551
3022.77651,0.09605
3021.74625,0.09669
3020.71599,0.09692
3019.68574,0.09685
3018.65548,0.09685
3017.62522,0.09714
3016.59496,0.09746
3015.56471,0.09759
3014.53445,0.09790
3013.50419,0.09854
3012.47393,0.09913
3011.44367,0.09943
3010.41342,0.09946
3009.38316,0.09946
3008.35290,0.09966
3007.32264,0.09987
3006.29238,0.09995
3005.26213,0.10034
3004.23187,0.10097
3003.20161,0.10134
3002.17135,0.10177
3001.14110,0.10232
3000.11084,0.10241
2999.08058,0.10216
2998.05032,0.10211
2997.02006,0.10242
2995.98981,0.10267
2994.95955,0.10269
2993.92929,0.10293
2992.89903,0.10343
2991.86877,0.10390
2990.83852,0.10423
2989.80826,0.10460
2988.77800,0.10515
2987.74774,0.10558
2986.71749,0.10590
2985.68723,0.10643
2984.65697,0.10695
2983.62671,0.10730
2982.59645,0.10769
2981.56620,0.10803
2980.53594,0.10820
2979.50568,0.10844
2978.47542,0.10894
2977.44517,0.10971
2976.41491,0.11050
2975.38465,0.11098
2974.35439,0.11102
2973.32413,0.11092
2972.29388,0.11111
2971.26362,0.11148
2970.23336,0.11194
2969.20310,0.11264
2968.17284,0.11344
2967.14259,0.11401
2966.11233,0.11403
2965.08207,0.11360
2964.05181,0.11342
2963.02156,0.11381
2961.99130,0.11435
2960.96104,0.11495
2959.93078,0.11570
2958.90052,0.11628
2957.87027,0.11651
2956.84001,0.11637
2955.80975,0.11623
2954.77949,0.11648
2953.74923,0.11685
2952.71898,0.11682
2951.68872,0.11647
2950.65846,0.11622
2949.62820,0.11593
2948.59795,0.11558
2947.56769,0.11504
2946.53743,0.11427
2945.50717,0.11377
2944.47691,0.11370
2943.44666,0.11370
2942.41640,0.11346
2941.38614,0.11294
2940.35588,0.11257
2939.32562,0.11253
2938.29537,0.11245
2937.26511,0.11209
2936.23485,0.11155
2935.20459,0.11099
2934.17434,0.11041
2933.14408,0.10988
2932.11382,0.10932
2931.08356,0.10865
2930.05330,0.10811
2929.02305,0.10770
2927.99279,0.10737
2926.96253,0.10722
2925.93227,0.10708
2924.90202,0.10671
2923.87176,0.10588
2922.84150,0.10491
2921.81124,0.10447
2920.78098,0.10448
2919.75073,0.10455
2918.72047,0.10427
2917.69021,0.10344
2916.65995,0.10245
2915.62969,0.10195
2914.59944,0.10194
2913.56918,0.10189
2912.53892,0.10159
2911.50866,0.10098
2910.47841,0.10024
2909.44815,0.09971
2908.41789,0.09954
2907.38763,0.09960
2906.35737,0.09914
2905.32712,0.09822
2904.29686,0.09757
2903.26660,0.09717
2902.23634,0.09666
2901.20608,0.09616
2900.17583,0.09582
2899.14557,0.09562
2898.11531,0.09571
2897.08505,0.09572
2896.05480,0.09513
2895.02454,0.09435
2893.99428,0.09380
2892.96402,0.09323
2891.93376,0.09261
2890.90351,0.09234
2889.87325,0.09223
2888.84299,0.09202
2887.81273,0.09173
2886.78247,0.09120
2885.75222,0.09041
2884.72196,0.08983
2883.69170,0.08976
2882.66144,0.08994
2881.63119,0.08987
2880.60093,0.08953
2879.57067,0.08914
2878.54041,0.08853
2877.51015,0.08771
2876.47990,0.08714
2875.44964,0.08700
2874.41938,0.08694
2873.38912,0.08675
2872.35887,0.08654
2871.32861,0.08627
2870.29835,0.08592
2869.26809,0.08547
2868.23783,0.08508
2867.20758,0.08505
2866.17732,0.08492
2865.14706,0.08434
2864.11680,0.08389
2863.08654,0.08368
2862.05629,0.08333
2861.02603,0.08279
2859.99577,0.08226
2858.96551,0.08205
2857.93526,0.08211
2856.90500,0.08197
2855.87474,0.08155
2854.84448,0.08117
2853.81422,0.08097
2852.78397,0.08072
2851.75371,0.08026
2850.72345,0.07982
2849.69319,0.07971
2848.66293,0.07993
2847.63268,0.07984
2846.60242,0.07901
2845.57216,0.07809
2844.54190,0.07753
2843.51165,0.07720
2842.48139,0.07714
2841.45113,0.07718
2840.42087,0.07697
2839.39061,0.07679
2838.36036,0.07679
2837.33010,0.07635
2836.29984,0.07566
2835.26958,0.07527
2834.23933,0.07501
2833.20907,0.07458
2832.17881,0.07420
2831.14855,0.07408
2830.11829,0.07402
2829.08804,0.07378
2828.05778,0.07331
2827.02752,0.07299
2825.99726,0.07301
2824.96700,0.07294
2823.93675,0.07264
2822.90649,0.07232
2821.87623,0.07203
2820.84597,0.07183
2819.81572,0.07154
2818.78546,0.07104
2817.75520,0.07061
2816.72494,0.07044
2815.69468,0.07064
2814.66443,0.07084
2813.63417,0.07052
2812.60391,0.06978
2811.57365,0.06893
2810.54339,0.06840
2809.51314,0.06839
2808.48288,0.06842
2807.45262,0.06840
2806.42236,0.06839
2805.39211,0.06806
2804.36185,0.06764
2803.33159,0.06738
2802.30133,0.06690
2801.27107,0.06640
2800.24082,0.06611
2799.21056,0.06569
2798.18030,0.06529
2797.15004,0.06526
2796.11978,0.06522
2795.08953,0.06497
2794.05927,0.06474
2793.02901,0.06457
2791.99875,0.06442
2790.96850,0.06432
2789.93824,0.06422
2788.90798,0.06409
2787.87772,0.06393
2786.84746,0.06361
2785.81721,0.06318
2784.78695,0.06291
2783.75669,0.06280
2782.72643,0.06282
2781.69618,0.06288
2780.66592,0.06277
2779.63566,0.06260
2778.60540,0.06234
2777.57514,0.06174
2776.54489,0.06118
2775.51463,0.06091
2774.48437,0.06075
2773.45411,0.06073
2772.42385,0.06076
2771.39360,0.06053
2770.36334,0.06003
2769.33308,0.05939
2768.30282,0.05873
2767.27257,0.05839
2766.24231,0.05843
2765.21205,0.05875
2764.18179,0.05885
2763.15153,0.05840
2762.12128,0.05791
2761.09102,0.05770
2760.06076,0.05748
2759.03050,0.05716
2758.00024,0.05690
2756.96999,0.05662
2755.93973,0.05619
2754.90947,0.05583
2753.87921,0.05593
2752.84896,0.05610
2751.81870,0.05572
2750.78844,0.05513
2749.75818,0.05486
2748.72792,0.05499
2747.69767,0.05505
2746.66741,0.05458
2745.63715,0.05401
2744.60689,0.05361
2743.57663,0.05337
2742.54638,0.05348
2741.51612,0.05362
2740.48586,0.05350
2739.45560,0.05326
2738.42535,0.05305
2737.39509,0.05278
2736.36483,0.05238
2735.33457,0.05209
2734.30431,0.05195
2733.27406,0.05192
2732.24380,0.05178
2731.21354,0.05142
2730.18328,0.05125
2729.15303,0.05127
2728.12277,0.05110
2727.09251,0.05074
2726.06225,0.05033
2725.03199,0.04993
2724.00174,0.04968
2722.97148,0.04962
2721.94122,0.04952
2720.91096,0.04934
2719.88070,0.04907
2718.85045,0.04861
2717.82019,0.04828
2716.78993,0.04813
2715.75967,0.04794
2714.72942,0.04771
2713.69916,0.04738
2712.66890,0.04696
2711.63864,0.04671
2710.60838,0.04674
2709.57813,0.04677
2708.54787,0.04678
2707.51761,0.04667
2706.48735,0.04620
2705.45709,0.04571
2704.42684,0.04548
2703.39658,0.04550
2702.36632,0.04549
2701.33606,0.04525
2700.30581,0.04497
2699.27555,0.04473
2698.24529,0.04461
2697.21503,0.04468
2696.18477,0.04483
2695.15452,0.04480
2694.12426,0.04452
2693.09400,0.04420
2692.06374,0.04370
2691.03348,0.04312
2690.00323,0.04292
2688.97297,0.04295
2687.94271,0.04285
2686.91245,0.04258
2685.88220,0.04230
2684.85194,0.04207
2683.82168,0.04185
2682.79142,0.04168
2681.76116,0.04169
2680.73091,0.04178
2679.70065,0.04170
2678.67039,0.04157
2677.64013,0.04141
2676.60988,0.04097
2675.57962,0.04038
2674.54936,0.04004
2673.51910,0.04005
2672.48884,0.04002
2671.45859,0.03977
2670.42833,0.03959
2669.39807,0.03957
2668.36781,0.03945
2667.33755,0.03920
2666.30730,0.03907
2665.27704,0.03914
2664.24678,0.03917
2663.21652,0.03899
2662.18627,0.03877
2661.15601,0.03849
2660.12575,0.03804
2659.09549,0.03781
2658.06523,0.03795
2657.03498,0.03824
2656.00472,0.03835
2654.97446,0.03801
2653.94420,0.03743
2652.91394,0.03701
2651.88369,0.03685
2650.85343,0.03686
2649.82317,0.03704
2648.79291,0.03735
2647.76266,0.03739
2646.73240,0.03703
2645.70214,0.03678
2644.67188,0.03684
2643.64162,0.03652
2642.61137,0.03581
2641.58111,0.03559
2640.55085,0.03594
2639.52059,0.03612
2638.49033,0.03579
2637.46008,0.03536
2636.42982,0.03533
2635.39956,0.03553
2634.36930,0.03560
2633.33905,0.03554
2632.30879,0.03540
2631.27853,0.03519
2630.24827,0.03486
2629.21801,0.03452
2628.18776,0.03442
2627.15750,0.03466
2626.12724,0.03486
2625.09698,0.03471
2624.06673,0.03437
2623.03647,0.03398
2622.00621,0.03380
2620.97595,0.03406
2619.94569,0.03422
2618.91544,0.03419
2617.88518,0.03417
2616.85492,0.03366
2615.82466,0.03277
2614.79440,0.03226
2613.76415,0.03232
2612.73389,0.03277
2611.70363,0.03336
2610.67337,0.03365
2609.64312,0.03351
2608.61286,0.03343
2607.58260,0.03359
2606.55234,0.03368
2605.52208,0.03344
2604.49183,0.03297
2603.46157,0.03289
2602.43131,0.03335
2601.40105,0.03332
2600.37079,0.03266
2599.34054,0.03248
2598.31028,0.03268
2597.28002,0.03248
2596.24976,0.03223
2595.21951,0.03246
2594.18925,0.03279
2593.15899,0.03267
2592.12873,0.03226
2591.09847,0.03181
2590.06822,0.03139
2589.03796,0.03132
2588.00770,0.03147
2586.97744,0.03141
2585.94718,0.03126
2584.91693,0.03118
2583.88667,0.03098
2582.85641,0.03071
2581.82615,0.03066
2580.79590,0.03070
2579.76564,0.03083
2578.73538,0.03097
2577.70512,0.03094
2576.67486,0.03115
2575.64461,0.03153
2574.61435,0.03125
2573.58409,0.03065
2572.55383,0.03042
2571.52358,0.03044
2570.49332,0.03067
2569.46306,0.03110
2568.43280,0.03110
2567.40254,0.03066
2566.37229,0.03060
2565.34203,0.03085
2564.31177,0.03108
2563.28151,0.03108
2562.25125,0.03069
2561.22100,0.03012
2560.19074,0.02966
2559.16048,0.02943
2558.13022,0.02926
2557.09997,0.02932
2556.06971,0.02946
2555.03945,0.02938
2554.00919,0.02923
2552.97893,0.02931
2551.94868,0.02970
2550.91842,0.02994
2549.88816,0.02987
2548.85790,0.02975
2547.82764,0.02956
2546.79739,0.02921
2545.76713,0.02906
2544.73687,0.02932
2543.70661,0.02942
2542.67636,0.02871
2541.64610,0.02774
2540.61584,0.02742
2539.58558,0.02779
2538.55532,0.02830
2537.52507,0.02864
2536.49481,0.02881
2535.46455,0.02844
2534.43429,0.02790
2533.40403,0.02784
2532.37378,0.02805
2531.34352,0.02797
2530.31326,0.02754
2529.28300,0.02755
2528.25275,0.02796
2527.22249,0.02811
2526.19223,0.02833
2525.16197,0.02893
2524.13171,0.02914
2523.10146,0.02866
2522.07120,0.02851
2521.04094,0.02911
2520.01068,0.02976
2518.98043,0.02999
2517.95017,0.02984
2516.91991,0.02963
2515.88965,0.02957
2514.85939,0.02936
2513.82914,0.02883
2512.79888,0.02837
2511.76862,0.02817
2510.73836,0.02818
2509.70810,0.02847
2508.67785,0.02872
2507.64759,0.02864
2506.61733,0.02859
2505.58707,0.02866
2504.55682,0.02871
2503.52656,0.02869
2502.49630,0.02828
2501.46604,0.02750
2500.43578,0.02712
2499.40553,0.02762
2498.37527,0.02833
2497.34501,0.02832
2496.31475,0.02785
2495.28449,0.02756
2494.25424,0.02751
2493.22398,0.02764
2492.19372,0.02754
2491.16346,0.02682
2490.13321,0.02637
2489.10295,0.02662
2488.07269,0.02677
2487.04243,0.02640
2486.01217,0.02607
2484.98192,0.02605
2483.95166,0.02617
2482.92140,0.02647
2481.89114,0.02677
2480.86088,0.02665
2479.83063,0.02643
2478.80037,0.02681
2477.77011,0.02740
2476.73985,0.02730
2475.70960,0.02646
2474.67934,0.02577
2473.64908,0.02591
2472.61882,0.02633
2471.58856,0.02630
2470.55831,0.02596
2469.52805,0.02565
2468.49779,0.02559
2467.46753,0.02590
2466.43728,0.02631
2465.40702,0.02634
2464.37676,0.02609
2463.34650,0.02598
2462.31624,0.02616
2461.28599,0.02670
2460.25573,0.02745
2459.22547,0.02774
2458.19521,0.02738
2457.16495,0.02697
2456.13470,0.02686
2455.10444,0.02669
2454.07418,0.02636
2453.04392,0.02611
2452.01367,0.02627
2450.98341,0.02667
2449.95315,0.02697
2448.92289,0.02712
2447.89263,0.02665
2446.86238,0.02573
2445.83212,0.02523
2444.80186,0.02511
2443.77160,0.02511
2442.74134,0.02516
2441.71109,0.02532
2440.68083,0.02570
2439.65057,0.02585
2438.62031,0.02570
2437.59006,0.02589
2436.55980,0.02632
2435.52954,0.02641
2434.49928,0.02658
2433.46902,0.02723
2432.43877,0.02752
2431.40851,0.02687
2430.37825,0.02589
2429.34799,0.02555
2428.31774,0.02606
2427.28748,0.02669
2426.25722,0.02676
2425.22696,0.02630
2424.19670,0.02589
2423.16645,0.02596
2422.13619,0.02629
2421.10593,0.02649
2420.07567,0.02665
2419.04541,0.02696
2418.01516,0.02715
2416.98490,0.02715
2415.95464,0.02686
2414.92438,0.02630
2413.89413,0.02616
2412.86387,0.02647
2411.83361,0.02638
2410.80335,0.02592
2409.77309,0.02580
2408.74284,0.02633
2407.71258,0.02696
2406.68232,0.02709
2405.65206,0.02690
2404.62180,0.02675
2403.59155,0.02667
2402.56129,0.02638
2401.53103,0.02617
2400.50077,0.02630
2399.47052,0.02637
2398.44026,0.02651
2397.41000,0.02691
2396.37974,0.02708
2395.34948,0.02683
2394.31923,0.02646
2393.28897,0.02640
2392.25871,0.02698
2391.22845,0.02776
2390.19819,0.02813
2389.16794,0.02794
2388.13768,0.02742
2387.10742,0.02698
2386.07716,0.02711
2385.04691,0.02765
2384.01665,0.02774
2382.98639,0.02742
2381.95613,0.02747
2380.92587,0.02754
2379.89562,0.02724
2378.86536,0.02727
2377.83510,0.02767
2376.80484,0.02778
2375.77459,0.02809
2374.74433,0.02883
2373.71407,0.02908
2372.68381,0.02894
2371.65355,0.02947
2370.62330,0.03049
2369.59304,0.03063
2368.56278,0.02980
2367.53252,0.02895
2366.50226,0.02895
2365.47201,0.02953
2364.44175,0.02980
2363.41149,0.02988
2362.38123,0.02976
2361.35098,0.02926
2360.32072,0.02911
2359.29046,0.02999
2358.26020,0.03121
2357.22994,0.03112
2356.19969,0.02977
2355.16943,0.02920
2354.13917,0.02967
2353.10891,0.03004
2352.07865,0.03056
2351.04840,0.03111
2350.01814,0.03135
2348.98788,0.03149
2347.95762,0.03141
2346.92737,0.03130
2345.89711,0.03204
2344.86685,0.03324
2343.83659,0.03346
2342.80633,0.03257
2341.77608,0.03192
2340.74582,0.03256
2339.71556,0.03375
2338.68530,0.03383
2337.65504,0.03306
2336.62479,0.03310
2335.59453,0.03387
2334.56427,0.03430
2333.53401,0.03459
2332.50376,0.03485
2331.47350,0.03441
2330.44324,0.03376
2329.41298,0.03385
2328.38272,0.03427
2327.35247,0.03437
2326.32221,0.03443
2325.29195,0.03481
2324.26169,0.03483
2323.23144,0.03455
2322.20118,0.03429
2321.17092,0.03406
2320.14066,0.03440
2319.11040,0.03490
2318.08015,0.03513
2317.04989,0.03504
2316.01963,0.03463
2314.98937,0.03423
2313.95911,0.03402
2312.92886,0.03437
2311.89860,0.03477
2310.86834,0.03454
2309.83808,0.03457
2308.80783,0.03494
2307.77757,0.03466
2306.74731,0.03394
2305.71705,0.03386
2304.68679,0.03443
2303.65654,0.03489
2302.62628,0.03500
2301.59602,0.03498
2300.56576,0.03520
2299.53550,0.03557
2298.50525,0.03561
2297.47499,0.03538
2296.44473,0.03535
2295.41447,0.03549
2294.38422,0.03569
2293.35396,0.03579
2292.32370,0.03563
2291.29344,0.03550
2290.26318,0.03580
2289.23293,0.03612
2288.20267,0.03598
2287.17241,0.03603
2286.14215,0.03599
2285.11189,0.03490
2284.08164,0.03392
2283.05138,0.03421
2282.02112,0.03479
2280.99086,0.03469
2279.96061,0.03413
2278.93035,0.03411
2277.90009,0.03474
2276.86983,0.03487
2275.83957,0.03464
2274.80932,0.03458
2273.77906,0.03470
2272.74880,0.03512
2271.71854,0.03577
2270.68829,0.03638
2269.65803,0.03662
2268.62777,0.03621
2267.59751,0.03536
2266.56725,0.03468
2265.53700,0.03464
2264.50674,0.03513
2263.47648,0.03518
2262.44622,0.03437
2261.41596,0.03375
2260.38571,0.03407
2259.35545,0.03451
2258.32519,0.03428
2257.29493,0.03375
2256.26468,0.03342
2255.23442,0.03373
2254.20416,0.03457
2253.17390,0.03500
2252.14364,0.03470
2251.11339,0.03400
2250.08313,0.03337
2249.05287,0.03307
2248.02261,0.03247
2246.99235,0.03158
2245.96210,0.03134
2244.93184,0.03174
2243.90158,0.03183
2242.87132,0.03152
2241.84107,0.03168
2240.81081,0.03237
2239.78055,0.03276
2238.75029,0.03283
2237.72003,0.03289
2236.68978,0.03262
2235.65952,0.03216
2234.62926,0.03196
2233.59900,0.03219
2232.56874,0.03203
2231.53849,0.03127
2230.50823,0.03136
2229.47797,0.03205
2228.44771,0.03198
2227.41746,0.03142
2226.38720,0.03131
2225.35694,0.03145
2224.32668,0.03109
2223.29642,0.03064
2222.26617,0.03063
2221.23591,0.03055
2220.20565,0.03059
2219.17539,0.03129
2218.14514,0.03165
2217.11488,0.03063
2216.08462,0.02904
2215.05436,0.02802
2214.02410,0.02821
2212.99385,0.02995
2211.96359,0.03161
2210.93333,0.03147
2209.90307,0.03052
2208.87281,0.02956
2207.84256,0.02879
2206.81230,0.02941
2205.78204,0.03084
2204.75178,0.03139
2203.72153,0.03038
2202.69127,0.02838
2201.66101,0.02712
2200.63075,0.02688
2199.60049,0.02677
2198.57024,0.02745
2197.53998,0.02885
2196.50972,0.02990
2195.47946,0.03044
2194.44920,0.02994
2193.41895,0.02917
2192.38869,0.02866
2191.35843,0.02757
2190.32817,0.02678
2189.29792,0.02718
2188.26766,0.02800
2187.23740,0.02817
2186.20714,0.02846
2185.17688,0.03021
2184.14663,0.03122
2183.11637,0.03036
2182.08611,0.03033
2181.05585,0.03099
2180.02559,0.03027
2178.99534,0.02965
2177.96508,0.03139
2176.93482,0.03254
2175.90456,0.03068
2174.87431,0.02874
2173.84405,0.02783
2172.81379,0.02747
2171.78353,0.02716
2170.75327,0.02650
2169.72302,0.02786
2168.69276,0.03048
2167.66250,0.03051
2166.63224,0.02964
2165.60199,0.02987
2164.57173,0.02899
2163.54147,0.02831
2162.51121,0.02931
2161.48095,0.02939
2160.45070,0.02757
2159.42044,0.02472
2158.39018,0.02251
2157.35992,0.02312
2156.32966,0.02527
2155.29941,0.02569
2154.26915,0.02496
2153.23889,0.02559
2152.20863,0.02621
2151.17838,0.02655
2150.14812,0.02698
2149.11786,0.02507
2148.08760,0.02298
2147.05734,0.02357
2146.02709,0.02427
2144.99683,0.02429
2143.96657,0.02457
2142.93631,0.02486
2141.90605,0.02614
2140.87580,0.02755
2139.84554,0.02697
2138.81528,0.02601
2137.78502,0.02615
2136.75477,0.02605
2135.72451,0.02511
2134.69425,0.02416
2133.66399,0.02381
2132.63373,0.02391
2131.60348,0.02426
2130.57322,0.02549
2129.54296,0.02679
2128.51270,0.02668
2127.48244,0.02574
2126.45219,0.02481
2125.42193,0.02490
2124.39167,0.02625
2123.36141,0.02725
2122.33116,0.02707
2121.30090,0.02611
2120.27064,0.02552
2119.24038,0.02588
2118.21012,0.02629
2117.17987,0.02616
2116.14961,0.02588
2115.11935,0.02596
2114.08909,0.02607
2113.05884,0.02601
2112.02858,0.02657
2110.99832,0.02709
2109.96806,0.02688
2108.93780,0.02713
2107.90755,0.02795
2106.87729,0.02800
2105.84703,0.02701
2104.81677,0.02600
2103.78651,0.02513
2102.75626,0.02459
2101.72600,0.02519
2100.69574,0.02606
2099.66548,0.02578
2098.63523,0.02476
2097.60497,0.02458
2096.57471,0.02579
2095.54445,0.02737
2094.51419,0.02791
2093.48394,0.02715
2092.45368,0.02592
2091.42342,0.02483
2090.39316,0.02459
2089.36290,0.02486
2088.33265,0.02482
2087.30239,0.02508
2086.27213,0.02557
2085.24187,0.02611
2084.21162,0.02693
2083.18136,0.02722
2082.15110,0.02623
2081.12084,0.02480
2080.09058,0.02475
2079.06033,0.02591
2078.03007,0.02620
2076.99981,0.02536
2075.96955,0.02519
2074.93930,0.02601
2073.90904,0.02653
2072.87878,0.02617
2071.84852,0.02509
2070.81826,0.02426
2069.78801,0.02422
2068.75775,0.02452
2067.72749,0.02495
2066.69723,0.02525
2065.66697,0.02527
2064.63672,0.02527
2063.60646,0.02501
2062.57620,0.02401
2061.54594,0.02263
2060.51569,0.02199
2059.48543,0.02278
2058.45517,0.02407
2057.42491,0.02401
2056.39465,0.02267
2055.36440,0.02228
2054.33414,0.02300
2053.30388,0.02341
2052.27362,0.02456
2051.24336,0.02604
2050.21311,0.02539
2049.18285,0.02429
2048.15259,0.02510
2047.12233,0.02582
2046.09208,0.02542
2045.06182,0.02531
2044.03156,0.02545
2043.00130,0.02530
2041.97104,0.02533
2040.94079,0.02527
2039.91053,0.02410
2038.88027,0.02250
2037.85001,0.02257
2036.81975,0.02442
2035.78950,0.02543
2034.75924,0.02540
2033.72898,0.02592
2032.69872,0.02627
2031.66847,0.02585
2030.63821,0.02424
2029.60795,0.02184
2028.57769,0.02185
2027.54743,0.02378
2026.51718,0.02380
2025.48692,0.02309
2024.45666,0.02364
2023.42640,0.02534
2022.39615,0.02723
2021.36589,0.02654
2020.33563,0.02345
2019.30537,0.02155
2018.27511,0.02267
2017.24486,0.02577
2016.21460,0.02787
2015.18434,0.02599
2014.15408,0.02195
2013.12382,0.01980
2012.09357,0.02024
2011.06331,0.02178
2010.03305,0.02236
2009.00279,0.02125
2007.97254,0.02075
2006.94228,0.02227
2005.91202,0.02375
2004.88176,0.02368
2003.85150,0.02278
2002.82125,0.02198
2001.79099,0.02160
2000.76073,0.02189
1999.73047,0.02302
1998.70021,0.02393
1997.66996,0.02430
1996.63970,0.02504
1995.60944,0.02558
1994.57918,0.02453
1993.54893,0.02272
1992.51867,0.02218
1991.48841,0.02291
1990.45815,0.02276
1989.42789,0.02169
1988.39764,0.02204
1987.36738,0.02373
1986.33712,0.02483
1985.30686,0.02474
1984.27660,0.02411
1983.24635,0.02347
1982.21609,0.02238
1981.18583,0.02120
1980.15557,0.02023
1979.12532,0.01947
1978.09506,0.01989
1977.06480,0.02176
1976.03454,0.02323
1975.00428,0.02243
1973.97403,0.02116
1972.94377,0.02093
1971.91351,0.02108
1970.88325,0.02204
1969.85300,0.02312
1968.82274,0.02365
1967.79248,0.02397
1966.76222,0.02327
1965.73196,0.02233
1964.70171,0.02284
1963.67145,0.02371
1962.64119,0.02321
1961.61093,0.02183
1960.58067,0.02087
1959.55042,0.02031
1958.52016,0.02062
1957.48990,0.02224
1956.45964,0.02331
1955.42939,0.02299
1954.39913,0.02276
1953.36887,0.02333
1952.33861,0.02402
1951.30835,0.02401
1950.27810,0.02320
1949.24784,0.02225
1948.21758,0.02220
1947.18732,0.02217
1946.15706,0.02100
1945.12681,0.02025
1944.09655,0.02085
1943.06629,0.02130
1942.03603,0.02082
1941.00578,0.02070
1939.97552,0.02187
1938.94526,0.02339
1937.91500,0.02359
1936.88474,0.02219
1935.85449,0.02042
1934.82423,0.01957
1933.79397,0.02002
1932.76371,0.02113
1931.73345,0.02190
1930.70320,0.02208
1929.67294,0.02224
1928.64268,0.02239
1927.61242,0.02235
1926.58217,0.02265
1925.55191,0.02315
1924.52165,0.02244
1923.49139,0.02099
1922.46113,0.02124
1921.43088,0.02253
1920.40062,0.02280
1919.37036,0.02205
1918.34010,0.02138
1917.30985,0.02143
1916.27959,0.02140
1915.24933,0.02097
1914.21907,0.02081
1913.18881,0.02073
1912.15856,0.02057
1911.12830,0.02096
1910.09804,0.02150
1909.06778,0.02165
1908.03752,0.02172
1907.00727,0.02185
1905.97701,0.02203
1904.94675,0.02228
1903.91649,0.02259
1902.88624,0.02287
1901.85598,0.02282
1900.82572,0.02210
1899.79546,0.02124
1898.76520,0.02096
1897.73495,0.02121
1896.70469,0.02177
1895.67443,0.02251
1894.64417,0.02304
1893.61391,0.02350
1892.58366,0.02403
1891.55340,0.02407
1890.52314,0.02359
1889.49288,0.02333
1888.46263,0.02371
1887.43237,0.02428
1886.40211,0.02457
1885.37185,0.02492
1884.34159,0.02560
1883.31134,0.02593
1882.28108,0.02540
1881.25082,0.02454
1880.22056,0.02417
1879.19030,0.02435
1878.16005,0.02468
1877.12979,0.02491
1876.09953,0.02477
1875.06927,0.02410
1874.03902,0.02358
1873.00876,0.02394
1871.97850,0.02440
1870.94824,0.02430
1869.91798,0.02423
1868.88773,0.02442
1867.85747,0.02458
1866.82721,0.02474
1865.79695,0.02463
1864.76670,0.02407
1863.73644,0.02342
1862.70618,0.02316
1861.67592,0.02320
1860.64566,0.02327
1859.61541,0.02340
1858.58515,0.02355
1857.55489,0.02386
1856.52463,0.02395
1855.49437,0.02337
1854.46412,0.02276
1853.43386,0.02272
1852.40360,0.02317
1851.37334,0.02365
1850.34309,0.02365
1849.31283,0.02328
1848.28257,0.02298
1847.25231,0.02291
1846.22205,0.02321
1845.19180,0.02373
1844.16154,0.02352
1843.13128,0.02278
1842.10102,0.02282
1841.07076,0.02347
1840.04051,0.02391
1839.01025,0.02379
1837.97999,0.02361
1836.94973,0.02385
1835.91948,0.02422
1834.88922,0.02405
1833.85896,0.02343
1832.82870,0.02298
1831.79844,0.02280
1830.76819,0.02304
1829.73793,0.02373
1828.70767,0.02398
1827.67741,0.02387
1826.64715,0.02394
1825.61690,0.02366
1824.58664,0.02306
1823.55638,0.02307
1822.52612,0.02356
1821.49587,0.02403
1820.46561,0.02420
1819.43535,0.02420
1818.40509,0.02408
1817.37483,0.02379
1816.34458,0.02377
1815.31432,0.02420
1814.28406,0.02455
1813.25380,0.02439
1812.22355,0.02425
1811.19329,0.02434
1810.16303,0.02414
1809.13277,0.02403
1808.10251,0.02430
1807.07226,0.02464
1806.04200,0.02476
1805.01174,0.02466
1803.98148,0.02480
1802.95122,0.02542
1801.92097,0.02600
1800.89071,0.02592
1799.86045,0.02546
1798.83019,0.02534
1797.79994,0.02558
1796.76968,0.02587
1795.73942,0.02595
1794.70916,0.02583
1793.67890,0.02587
1792.64865,0.02615
1791.61839,0.02657
1790.58813,0.02706
1789.55787,0.02735
1788.52761,0.02725
1787.49736,0.02711
1786.46710,0.02735
1785.43684,0.02773
1784.40658,0.02785
1783.37633,0.02766
1782.34607,0.02737
1781.31581,0.02736
1780.28555,0.02753
1779.25529,0.02744
1778.22504,0.02750
1777.19478,0.02784
1776.16452,0.02788
1775.13426,0.02772
1774.10400,0.02784
1773.07375,0.02826
1772.04349,0.02881
1771.01323,0.02895
1769.98297,0.02889
1768.95272,0.02885
1767.92246,0.02870
1766.89220,0.02860
1765.86194,0.02864
1764.83168,0.02867
1763.80143,0.02873
1762.77117,0.02903
1761.74091,0.02947
1760.71065,0.02973
1759.68040,0.02969
1758.65014,0.02973
1757.61988,0.03015
1756.58962,0.03034
1755.55936,0.03010
1754.52911,0.03013
1753.49885,0.03040
1752.46859,0.03044
1751.43833,0.03012
1750.40807,0.03000
1749.37782,0.03017
1748.34756,0.03029
1747.31730,0.03045
1746.28704,0.03068
1745.25679,0.03075
1744.22653,0.03075
1743.19627,0.03086
1742.16601,0.03114
1741.13575,0.03151
1740.10550,0.03173
1739.07524,0.03178
1738.04498,0.03179
1737.01472,0.03175
1735.98446,0.03183
1734.95421,0.03190
1733.92395,0.03172
1732.89369,0.03196
1731.86343,0.03261
1730.83318,0.03307
1729.80292,0.03303
1728.77266,0.03280
1727.74240,0.03281
1726.71214,0.03315
1725.68189,0.03375
1724.65163,0.03438
1723.62137,0.03483
1722.59111,0.03514
1721.56085,0.03537
1720.53060,0.03554
1719.50034,0.03575
1718.47008,0.03569
1717.43982,0.03532
1716.40957,0.03567
1715.37931,0.03633
1714.34905,0.03664
1713.31879,0.03683
1712.28853,0.03709
1711.25828,0.03730
1710.22802,0.03735
1709.19776,0.03745
1708.16750,0.03786
1707.13725,0.03837
1706.10699,0.03867
1705.07673,0.03857
1704.04647,0.03841
1703.01621,0.03880
1701.98596,0.03967
1700.95570,0.04044
1699.92544,0.04039
1698.89518,0.04036
1697.86492,0.04070
1696.83467,0.04107
1695.80441,0.04120
1694.77415,0.04111
1693.74389,0.04121
1692.71364,0.04132
1691.68338,0.04137
1690.65312,0.04155
1689.62286,0.04183
1688.59260,0.04213
1687.56235,0.04235
1686.53209,0.04244
1685.50183,0.04218
1684.47157,0.04146
1683.44131,0.04100
1682.41106,0.04086
1681.38080,0.04095
1680.35054,0.04123
1679.32028,0.04139
1678.29003,0.04135
1677.25977,0.04132
1676.22951,0.04125
1675.19925,0.04075
1674.16899,0.04021
1673.13874,0.04006
1672.10848,0.03999
1671.07822,0.03999
1670.04796,0.03996
1669.01771,0.03966
1667.98745,0.03954
1666.95719,0.03974
1665.92693,0.03979
1664.89667,0.03972
1663.86642,0.03961
1662.83616,0.03920
1661.80590,0.03879
1660.77564,0.03858
1659.74538,0.03826
1658.71513,0.03805
1657.68487,0.03809
1656.65461,0.03813
1655.62435,0.03809
1654.59410,0.03808
1653.56384,0.03795
1652.53358,0.03710
1651.50332,0.03651
1650.47306,0.03646
1649.44281,0.03661
1648.41255,0.03684
1647.38229,0.03691
1646.35203,0.03660
1645.32177,0.03605
1644.29152,0.03579
1643.26126,0.03583
1642.23100,0.03576
1641.20074,0.03561
1640.17049,0.03556
1639.14023,0.03553
1638.10997,0.03562
1637.07971,0.03578
1636.04945,0.03567
1635.01920,0.03529
1633.98894,0.03523
1632.95868,0.03522
1631.92842,0.03510
1630.89816,0.03505
1629.86791,0.03516
1628.83765,0.03531
1627.80739,0.03520
1626.77713,0.03505
1625.74688,0.03515
1624.71662,0.03516
1623.68636,0.03488
1622.65610,0.03460
1621.62584,0.03459
1620.59559,0.03462
1619.56533,0.03458
1618.53507,0.03468
1617.50481,0.03486
1616.47456,0.03467
1615.44430,0.03448
1614.41404,0.03460
1613.38378,0.03463
1612.35352,0.03447
1611.32327,0.03432
1610.29301,0.03430
1609.26275,0.03442
1608.23249,0.03455
1607.20223,0.03448
1606.17198,0.03417
1605.14172,0.03393
1604.11146,0.03401
1603.08120,0.03419
1602.05095,0.03426
1601.02069,0.03422
1599.99043,0.03408
1598.96017,0.03397
1597.92991,0.03381
1596.89966,0.03350
1595.86940,0.03330
1594.83914,0.03343
1593.80888,0.03376
1592.77862,0.03409
1591.74837,0.03435
1590.71811,0.03443
1589.68785,0.03426
1588.65759,0.03424
1587.62734,0.03429
1586.59708,0.03408
1585.56682,0.03393
1584.53656,0.03401
1583.50630,0.03428
1582.47605,0.03462
1581.44579,0.03466
1580.41553,0.03446
1579.38527,0.03439
1578.35501,0.03450
1577.32476,0.03463
1576.29450,0.03441
1575.26424,0.03408
1574.23398,0.03424
1573.20373,0.03439
1572.17347,0.03442
1571.14321,0.03450
1570.11295,0.03433
1569.08269,0.03398
1568.05244,0.03395
1567.02218,0.03407
1565.99192,0.03415
1564.96166,0.03403
1563.93141,0.03377
1562.90115,0.03371
1561.87089,0.03383
1560.84063,0.03405
1559.81037,0.03452
1558.78012,0.03445
1557.74986,0.03375
1556.71960,0.03396
1555.68934,0.03436
1554.65908,0.03427
1553.62883,0.03399
1552.59857,0.03393
1551.56831,0.03394
1550.53805,0.03380
1549.50780,0.03336
1548.47754,0.03311
1547.44728,0.03329
1546.41702,0.03370
1545.38676,0.03402
1544.35651,0.03410
1543.32625,0.03422
1542.29599,0.03423
1541.26573,0.03411
1540.23547,0.03399
1539.20522,0.03364
1538.17496,0.03344
1537.14470,0.03351
1536.11444,0.03364
1535.08419,0.03372
1534.05393,0.03389
1533.02367,0.03428
1531.99341,0.03444
1530.96315,0.03423
1529.93290,0.03400
1528.90264,0.03387
1527.87238,0.03379
1526.84212,0.03384
1525.81186,0.03399
1524.78161,0.03428
1523.75135,0.03475
1522.72109,0.03519
1521.69083,0.03531
1520.66058,0.03506
1519.63032,0.03478
1518.60006,0.03481
1517.56980,0.03490
1516.53954,0.03467
1515.50929,0.03433
1514.47903,0.03425
1513.44877,0.03443
1512.41851,0.03458
1511.38826,0.03459
1510.35800,0.03473
1509.32774,0.03504
1508.29748,0.03529
1507.26722,0.03529
1506.23697,0.03493
1505.20671,0.03453
1504.17645,0.03447
1503.14619,0.03453
1502.11593,0.03442
1501.08568,0.03436
1500.05542,0.03454
1499.02516,0.03464
1497.99490,0.03457
1496.96465,0.03447
1495.93439,0.03444
1494.90413,0.03472
1493.87387,0.03521
1492.84361,0.03574
1491.81336,0.03623
1490.78310,0.03689
1489.75284,0.03833
1488.72258,0.04063
1487.69232,0.04379
1486.66207,0.04810
1485.63181,0.05256
1484.60155,0.05673
1483.57129,0.06137
1482.54104,0.06814
1481.51078,0.07824
1480.48052,0.08886
1479.45026,0.09440
1478.42000,0.09344
1477.38975,0.08919
1476.35949,0.08539
1475.32923,0.08504
1474.29897,0.08805
1473.26871,0.09344
1472.23846,0.10045
1471.20820,0.10640
1470.17794,0.10903
1469.14768,0.10810
1468.11743,0.10386
1467.08717,0.09795
1466.05691,0.09190
1465.02665,0.08510
1463.99639,0.07872
1462.96614,0.07494
1461.93588,0.07309
1460.90562,0.07270
1459.87536,0.07302
1458.84511,0.07325
1457.81485,0.07308
1456.78459,0.07186
1455.75433,0.07063
1454.72407,0.07042
1453.69382,0.07053
1452.66356,0.07058
1451.63330,0.07021
1450.60304,0.06878
1449.57278,0.06630
1448.54253,0.06303
1447.51227,0.05957
1446.48201,0.05733
1445.45175,0.05623
1444.42150,0.05560
1443.39124,0.05545
1442.36098,0.05580
1441.33072,0.05654
1440.30046,0.05723
1439.27021,0.05711
1438.23995,0.05613
1437.20969,0.05426
1436.17943,0.05145
1435.14917,0.04961
1434.11892,0.04880
1433.08866,0.04822
1432.05840,0.04784
1431.02814,0.04755
1429.99789,0.04681
1428.96763,0.04553
1427.93737,0.04421
1426.90711,0.04304
1425.87685,0.04203
1424.84660,0.04121
1423.81634,0.04047
1422.78608,0.03978
1421.75582,0.03937
1420.72556,0.03929
1419.69531,0.03896
1418.66505,0.03821
1417.63479,0.03765
1416.60453,0.03718
1415.57428,0.03678
1414.54402,0.03649
1413.51376,0.03620
1412.48350,0.03591
1411.45324,0.03568
1410.42299,0.03548
1409.39273,0.03516
1408.36247,0.03484
1407.33221,0.03466
1406.30196,0.03453
1405.27170,0.03442
1404.24144,0.03470
1403.21118,0.03551
1402.18092,0.03682
1401.15067,0.03937
1400.12041,0.04444
1399.09015,0.05282
1398.05989,0.06102
1397.02963,0.06544
1395.99938,0.06710
1394.96912,0.06547
1393.93886,0.05948
1392.90860,0.05302
1391.87835,0.04832
1390.84809,0.04494
1389.81783,0.04259
1388.78757,0.04105
1387.75731,0.03990
1386.72706,0.03871
1385.69680,0.03773
1384.66654,0.03726
1383.63628,0.03703
1382.60602,0.03658
1381.57577,0.03600
1380.54551,0.03556
1379.51525,0.03536
1378.48499,0.03520
1377.45474,0.03488
1376.42448,0.03464
1375.39422,0.03444
1374.36396,0.03413
1373.33370,0.03395
1372.30345,0.03393
1371.27319,0.03392
1370.24293,0.03395
1369.21267,0.03392
1368.18241,0.03373
1367.15216,0.03329
1366.12190,0.03276
1365.09164,0.03245
1364.06138,0.03240
1363.03113,0.03246
1362.00087,0.03262
1360.97061,0.03272
1359.94035,0.03265
1358.91009,0.03270
1357.87984,0.03279
1356.84958,0.03275
1355.81932,0.03263
1354.78906,0.03227
1353.75881,0.03185
1352.72855,0.03173
1351.69829,0.03179
1350.66803,0.03189
1349.63777,0.03200
1348.60752,0.03198
1347.57726,0.03181
1346.54700,0.03158
1345.51674,0.03134
1344.48648,0.03120
1343.45623,0.03125
1342.42597,0.03149
1341.39571,0.03170
1340.36545,0.03169
1339.33520,0.03155
1338.30494,0.03138
1337.27468,0.03130
1336.24442,0.03125
1335.21416,0.03119
1334.18391,0.03108
1333.15365,0.03085
1332.12339,0.03072
1331.09313,0.03068
1330.06287,0.03051
1329.03262,0.03051
1328.00236,0.03077
1326.97210,0.03091
1325.94184,0.03069
1324.91159,0.03036
1323.88133,0.03030
1322.85107,0.03036
1321.82081,0.03021
1320.79055,0.03002
1319.76030,0.02998
1318.73004,0.03001
1317.69978,0.02998
1316.66952,0.02997
1315.63927,0.03005
1314.60901,0.03014
1313.57875,0.03004
1312.54849,0.02973
1311.51823,0.02961
1310.48798,0.02961
1309.45772,0.02948
1308.42746,0.02939
1307.39720,0.02943
1306.36694,0.02945
1305.33669,0.02933
1304.30643,0.02922
1303.27617,0.02935
1302.24591,0.02952
1301.21566,0.02938
1300.18540,0.02903
1299.15514,0.02888
1298.12488,0.02897
1297.09462,0.02901
1296.06437,0.02908
1295.03411,0.02921
1294.00385,0.02920
1292.97359,0.02896
1291.94333,0.02873
1290.91308,0.02867
1289.88282,0.02891
1288.85256,0.02926
1287.82230,0.02932
1286.79205,0.02910
1285.76179,0.02894
1284.73153,0.02883
1283.70127,0.02864
1282.67101,0.02844
1281.64076,0.02844
1280.61050,0.02871
1279.58024,0.02911
1278.54998,0.02947
1277.51972,0.02950
1276.48947,0.02947
1275.45921,0.02972
1274.42895,0.02992
1273.39869,0.03001
1272.36844,0.03011
1271.33818,0.03010
1270.30792,0.03011
1269.27766,0.03025
1268.24740,0.03028
1267.21715,0.03024
1266.18689,0.03030
1265.15663,0.03040
1264.12637,0.03039
1263.09612,0.03033
1262.06586,0.03046
1261.03560,0.03075
1260.00534,0.03102
1258.97508,0.03110
1257.94483,0.03100
1256.91457,0.03101
1255.88431,0.03136
1254.85405,0.03199
1253.82379,0.03281
1252.79354,0.03378
1251.76328,0.03495
1250.73302,0.03658
1249.70276,0.03897
1248.67251,0.04227
1247.64225,0.04661
1246.61199,0.05183
1245.58173,0.05779
1244.55147,0.06507
1243.52122,0.07405
1242.49096,0.08341
1241.46070,0.09031
1240.43044,0.09262
1239.40018,0.09009
1238.36993,0.08377
1237.33967,0.07531
1236.30941,0.06672
1235.27915,0.05939
1234.24890,0.05360
1233.21864,0.04928
1232.18838,0.04605
1231.15812,0.04341
1230.12786,0.04109
1229.09761,0.03931
1228.06735,0.03842
1227.03709,0.03789
1226.00683,0.03728
1224.97657,0.03675
1223.94632,0.03623
1222.91606,0.03571
1221.88580,0.03525
1220.85554,0.03473
1219.82529,0.03420
1218.79503,0.03395
1217.76477,0.03399
1216.73451,0.03398
1215.70425,0.03376
1214.67400,0.03341
1213.64374,0.03312
1212.61348,0.03315
1211.58322,0.03330
1210.55297,0.03320
1209.52271,0.03301
1208.49245,0.03278
1207.46219,0.03258
1206.43193,0.03251
1205.40168,0.03259
1204.37142,0.03271
1203.34116,0.03253
1202.31090,0.03207
1201.28064,0.03178
1200.25039,0.03167
1199.22013,0.03150
1198.18987,0.03134
1197.15961,0.03127
1196.12936,0.03118
1195.09910,0.03103
1194.06884,0.03085
1193.03858,0.03063
1192.00832,0.03043
1190.97807,0.03039
1189.94781,0.03050
1188.91755,0.03063
1187.88729,0.03066
1186.85703,0.03056
1185.82678,0.03035
1184.79652,0.02998
1183.76626,0.02961
1182.73600,0.02959
1181.70575,0.02970
1180.67549,0.02953
1179.64523,0.02937
1178.61497,0.02941
1177.58471,0.02922
1176.55446,0.02898
1175.52420,0.02903
1174.49394,0.02920
1173.46368,0.02930
1172.43342,0.02924
1171.40317,0.02904
1170.37291,0.02887
1169.34265,0.02880
1168.31239,0.02864
1167.28214,0.02824
1166.25188,0.02781
1165.22162,0.02770
1164.19136,0.02788
1163.16110,0.02790
1162.13085,0.02774
1161.10059,0.02757
1160.07033,0.02724
1159.04007,0.02690
1158.00982,0.02683
1156.97956,0.02688
1155.94930,0.02693
1154.91904,0.02704
1153.88878,0.02699
1152.85853,0.02672
1151.82827,0.02664
1150.79801,0.02660
1149.76775,0.02626
1148.73749,0.02598
1147.70724,0.02599
1146.67698,0.02617
1145.64672,0.02633
1144.61646,0.02620
1143.58621,0.02594
1142.55595,0.02581
1141.52569,0.02584
1140.49543,0.02573
1139.46517,0.02540
1138.43492,0.02519
1137.40466,0.02534
1136.37440,0.02552
1135.34414,0.02531
1134.31388,0.02499
1133.28363,0.02489
1132.25337,0.02482
1131.22311,0.02476
1130.19285,0.02494
1129.16260,0.02546
1128.13234,0.02641
1127.10208,0.02817
1126.07182,0.03092
1125.04156,0.03361
1124.01131,0.03478
1122.98105,0.03421
1121.95079,0.03244
1120.92053,0.03022
1119.89027,0.02836
1118.86002,0.02703
1117.82976,0.02611
1116.79950,0.02559
1115.76924,0.02533
1114.73899,0.02492
1113.70873,0.02437
1112.67847,0.02411
1111.64821,0.02396
1110.61795,0.02359
1109.58770,0.02331
1108.55744,0.02342
1107.52718,0.02358
1106.49692,0.02348
1105.46667,0.02313
1104.43641,0.02293
1103.40615,0.02328
1102.37589,0.02372
1101.34563,0.02366
1100.31538,0.02339
1099.28512,0.02325
1098.25486,0.02326
1097.22460,0.02342
1096.19434,0.02342
1095.16409,0.02326
1094.13383,0.02291
1093.10357,0.02241
1092.07331,0.02236
1091.04306,0.02286
1090.01280,0.02320
1088.98254,0.02315
1087.95228,0.02313
1086.92202,0.02305
1085.89177,0.02269
1084.86151,0.02239
1083.83125,0.02254
1082.80099,0.02286
1081.77073,0.02293
1080.74048,0.02275
1079.71022,0.02251
1078.67996,0.02234
1077.64970,0.02227
1076.61945,0.02238
1075.58919,0.02250
1074.55893,0.02239
1073.52867,0.02235
1072.49841,0.02233
1071.46816,0.02223
1070.43790,0.02253
1069.40764,0.02302
1068.37738,0.02312
1067.34712,0.02303
1066.31687,0.02305
1065.28661,0.02302
1064.25635,0.02289
1063.22609,0.02283
1062.19584,0.02275
1061.16558,0.02248
1060.13532,0.02211
1059.10506,0.02186
1058.07480,0.02188
1057.04455,0.02218
1056.01429,0.02250
1054.98403,0.02251
1053.95377,0.02242
1052.92352,0.02240
1051.89326,0.02225
1050.86300,0.02212
1049.83274,0.02226
1048.80248,0.02254
1047.77223,0.02267
1046.74197,0.02250
1045.71171,0.02214
1044.68145,0.02206
1043.65119,0.02239
1042.62094,0.02263
1041.59068,0.02258
1040.56042,0.02227
1039.53016,0.02188
1038.49991,0.02181
1037.46965,0.02217
1036.43939,0.02264
1035.40913,0.02288
1034.37887,0.02255
1033.34862,0.02194
1032.31836,0.02172
1031.28810,0.02194
1030.25784,0.02229
1029.22758,0.02263
1028.19733,0.02288
1027.16707,0.02282
1026.13681,0.02258
1025.10655,0.02255
1024.07630,0.02262
1023.04604,0.02269
1022.01578,0.02296
1020.98552,0.02326
1019.95526,0.02342
1018.92501,0.02355
1017.89475,0.02358
1016.86449,0.02336
1015.83423,0.02319
1014.80397,0.02308
1013.77372,0.02276
1012.74346,0.02253
1011.71320,0.02267
1010.68294,0.02303
1009.65269,0.02329
1008.62243,0.02346
1007.59217,0.02377
1006.56191,0.02396
1005.53165,0.02377
1004.50140,0.02372
1003.47114,0.02398
1002.44088,0.02417
1001.41062,0.02414
1000.38037,0.02398
999.35011,0.02412
998.31985,0.02446
997.28959,0.02462
996.25933,0.02464
995.22908,0.02455
994.19882,0.02457
993.16856,0.02498
992.13830,0.02558
991.10804,0.02598
990.07779,0.02609
989.04753,0.02597
988.01727,0.02586
986.98701,0.02620
985.95676,0.02663
984.92650,0.02680
983.89624,0.02709
982.86598,0.02749
981.83572,0.02773
980.80547,0.02789
979.77521,0.02809
978.74495,0.02831
977.71469,0.02866
976.68443,0.02915
975.65418,0.02950
974.62392,0.02962
973.59366,0.02991
972.56340,0.03049
971.53315,0.03119
970.50289,0.03198
969.47263,0.03272
968.44237,0.03340
967.41211,0.03430
966.38186,0.03544
965.35160,0.03659
964.32134,0.03763
963.29108,0.03891
962.26082,0.04069
961.23057,0.04310
960.20031,0.04625
959.17005,0.04994
958.13979,0.05453
957.10954,0.06081
956.07928,0.06952
955.04902,0.08132
954.01876,0.09677
952.98850,0.11526
951.95825,0.13416
950.92799,0.15024
949.89773,0.16209
948.86747,0.17083
947.83722,0.17763
946.80696,0.18085
945.77670,0.17682
944.74644,0.16436
943.71618,0.14698
942.68593,0.12994
941.65567,0.11670
940.62541,0.10741
939.59515,0.10110
938.56489,0.09717
937.53464,0.09472
936.50438,0.09271
935.47412,0.09006
934.44386,0.08617
933.41361,0.08144
932.38335,0.07638
931.35309,0.07141
930.32283,0.06710
929.29257,0.06388
928.26232,0.06166
927.23206,0.05996
926.20180,0.05839
925.17154,0.05726
924.14128,0.05704
923.11103,0.05735
922.08077,0.05778
921.05051,0.05841
920.02025,0.05913
918.99000,0.05982
917.95974,0.06071
916.92948,0.06205
915.89922,0.06352
914.86896,0.06478
913.83871,0.06611
912.80845,0.06769
911.77819,0.06911
910.74793,0.07032
909.71768,0.07167
908.68742,0.07348
907.65716,0.07565
906.62690,0.07767
905.59664,0.07935
904.56639,0.08115
903.53613,0.08326
902.50587,0.08487
901.47561,0.08578
900.44535,0.08698
899.41510,0.08845
898.38484,0.08929
897.35458,0.08961
896.32432,0.09009
895.29407,0.09086
894.26381,0.09166
893.23355,0.09221
892.20329,0.09254
891.17303,0.09287
890.14278,0.09321
889.11252,0.09330
888.08226,0.09297
887.05200,0.09237
886.02174,0.09214
884.99149,0.09274
883.96123,0.09351
882.93097,0.09384
881.90071,0.09380
880.87046,0.09366
879.84020,0.09385
878.80994,0.09422
877.77968,0.09431
876.74942,0.09437
875.71917,0.09483
874.68891,0.09535
873.65865,0.09542
872.62839,0.09526
871.59813,0.09537
870.56788,0.09606
869.53762,0.09705
868.50736,0.09772
867.47710,0.09805
866.44685,0.09839
865.41659,0.09892
864.38633,0.09959
863.35607,0.10009
862.32581,0.10003
861.29556,0.09997
860.26530,0.10037
859.23504,0.10071
858.20478,0.10115
857.17453,0.10195
856.14427,0.10230
855.11401,0.10201
854.08375,0.10171
853.05349,0.10176
852.02324,0.10225
850.99298,0.10266
849.96272,0.10228
848.93246,0.10148
847.90220,0.10112
846.87195,0.10135
845.84169,0.10154
844.81143,0.10126
843.78117,0.10071
842.75092,0.10029
841.72066,0.09988
840.69040,0.09878
839.66014,0.09742
838.62988,0.09703
837.59963,0.09700
836.56937,0.09626
835.53911,0.09512
834.50885,0.09415
833.47859,0.09338
832.44834,0.09280
831.41808,0.09241
830.38782,0.09182
829.35756,0.09100
828.32731,0.09032
827.29705,0.08952
826.26679,0.08853
825.23653,0.08789
824.20627,0.08747
823.17602,0.08679
822.14576,0.08612
821.11550,0.08540
820.08524,0.08412
819.05498,0.08282
818.02473,0.08247
816.99447,0.08267
815.96421,0.08248
814.93395,0.08170
813.90370,0.08093
812.87344,0.08055
811.84318,0.08024
810.81292,0.07972
809.78266,0.07912
808.75241,0.07839
807.72215,0.07775
806.69189,0.07766
805.66163,0.07777
804.63138,0.07793
803.60112,0.07848
802.57086,0.07884
801.54060,0.07877
800.51034,0.07896
799.48009,0.07924
798.44983,0.07900
797.41957,0.07874
796.38931,0.07915
795.35905,0.07988
794.32880,0.08047
793.29854,0.08031
792.26828,0.07974
791.23802,0.07999
790.20777,0.08087
789.17751,0.08168
788.14725,0.08264
787.11699,0.08386
786.08673,0.08480
785.05648,0.08554
784.02622,0.08668
782.99596,0.08809
781.96570,0.08950
780.93544,0.09087
779.90519,0.09213
778.87493,0.09330
777.84467,0.09442
776.81441,0.09560
775.78416,0.09713
774.75390,0.09913
773.72364,0.10143
772.69338,0.10390
771.66312,0.10645
770.63287,0.10931
769.60261,0.11291
768.57235,0.11689
767.54209,0.12012
766.51183,0.12228
765.48158,0.12412
764.45132,0.12582
763.42106,0.12748
762.39080,0.12975
761.36055,0.13314
760.33029,0.13864
759.30003,0.14665
758.26977,0.15513
757.23951,0.16162
756.20926,0.16485
755.17900,0.16411
754.14874,0.16039
753.11848,0.15604
752.08823,0.15207
751.05797,0.14857
750.02771,0.14579
748.99745,0.14379
747.96719,0.14226
746.93694,0.14084
745.90668,0.13903
744.87642,0.13688
743.84616,0.13507
742.81590,0.13380
741.78565,0.13276
740.75539,0.13174
739.72513,0.13066
738.69487,0.12943
737.66462,0.12811
736.63436,0.12719
735.60410,0.12692
734.57384,0.12673
733.54358,0.12629
732.51333,0.12555
731.48307,0.12465
730.45281,0.12365
729.42255,0.12235
728.39229,0.12113
727.36204,0.12024
726.33178,0.11937
725.30152,0.11855
724.27126,0.11819
723.24101,0.11816
722.21075,0.11799
721.18049,0.11770
720.15023,0.11717
719.11997,0.11668
718.08972,0.11663
717.05946,0.11663
716.02920,0.11649
714.99894,0.11630
713.96868,0.11586
712.93843,0.11518
711.90817,0.11448
710.87791,0.11384
709.84765,0.11372
708.81740,0.11410
707.78714,0.11441
706.75688,0.11470
705.72662,0.11491
704.69636,0.11456
703.66611,0.11388
702.63585,0.11330
701.60559,0.11321
700.57533,0.11376
699.54508,0.11430
698.51482,0.11427
697.48456,0.11402
696.45430,0.11427
695.42404,0.11500
694.39379,0.11517
693.36353,0.11483
692.33327,0.11513
691.30301,0.11571
690.27275,0.11592
689.24250,0.11645
688.21224,0.11709
687.18198,0.11702
686.15172,0.11690
685.12147,0.11720
684.09121,0.11770
683.06095,0.11844
682.03069,0.11959
681.00043,0.12140
679.97018,0.12313
678.93992,0.12316
677.90966,0.12228
676.87940,0.12223
675.84914,0.12261
674.81889,0.12287
673.78863,0.12321
672.75837,0.12372
671.72811,0.12417
670.69786,0.12472
669.66760,0.12565
668.63734,0.12562
667.60708,0.12292
666.57682,0.12251
665.54657,0.12373
664.51631,0.12451
663.48605,0.12412
662.45579,0.12304
661.42553,0.12284
660.39528,0.12380
659.36502,0.12490
658.33476,0.12611
657.30450,0.12757
656.27425,0.12944
655.24399,0.13185
654.21373,0.13409
653.18347,0.13586
652.15321,0.13794
651.12296,0.14116
650.09270,0.14540
649.06244,0.14943
648.03218,0.15287
647.00193,0.15693
645.97167,0.16185
644.94141,0.16625
643.91115,0.16993
642.88089,0.17482
641.85064,0.18090
640.82038,0.18657
639.79012,0.19180
638.75986,0.19724
637.72960,0.20308
636.69935,0.20898
635.66909,0.21523
634.63883,0.22205
633.60857,0.22901
632.57832,0.23552
631.54806,0.24136
630.51780,0.24723
629.48754,0.25253
628.45728,0.25703
627.42703,0.26190
626.39677,0.26613
625.36651,0.26850
624.33625,0.27044
623.30599,0.27288
622.27574,0.27446
621.24548,0.27470
620.21522,0.27466
619.18496,0.27407
618.15471,0.27266
617.12445,0.27236
616.09419,0.27291
615.06393,0.27121
614.03367,0.26768
613.00342,0.26471
611.97316,0.26213
610.94290,0.25972
609.91264,0.25769
608.88238,0.25524
607.85213,0.25279
606.82187,0.25071
605.79161,0.24791
604.76135,0.24428
603.73110,0.24113
602.70084,0.23865
601.67058,0.23612
600.64032,0.23334
599.61006,0.23047
598.57981,0.22761
597.54955,0.22428
596.51929,0.22120
595.48903,0.21884
594.45878,0.21619
593.42852,0.21369
592.39826,0.21130
591.36800,0.20786
590.33774,0.20373
589.30749,0.19961
588.27723,0.19582
587.24697,0.19318
586.21671,0.19173
585.18645,0.19039
584.15620,0.18802
583.12594,0.18450
582.09568,0.18139
581.06542,0.17893
580.03517,0.17531
579.00491,0.17032
577.97465,0.16599
576.94439,0.16343
575.91413,0.16155
574.88388,0.15909
573.85362,0.15618
572.82336,0.15375
571.79310,0.15169
570.76284,0.14961
569.73259,0.14746
568.70233,0.14474
567.67207,0.14253
566.64181,0.14102
565.61156,0.13849
564.58130,0.13485
563.55104,0.13102
562.52078,0.12847
561.49052,0.12794
560.46027,0.12708
559.43001,0.12471
558.39975,0.12256
557.36949,0.12120
556.33924,0.11981
555.30898,0.11752
554.27872,0.11508
553.24846,0.11446
552.21820,0.11504
551.18795,0.11348
550.15769,0.10916
549.12743,0.10619
548.09717,0.10570
547.06691,0.10445
546.03666,0.10159
545.00640,0.09889
543.97614,0.09747
542.94588,0.09737
541.91563,0.09705
540.88537,0.09572
539.85511,0.09511
538.82485,0.09484
537.79459,0.09386
536.76434,0.09299
535.73408,0.09252
534.70382,0.09215
533.67356,0.09083
532.64330,0.08931
531.61305,0.08878
530.58279,0.08791
529.55253,0.08675
528.52227,0.08682
527.49202,0.08693
526.46176,0.08555
525.43150,0.08503
524.40124,0.08777
523.37098,0.09290
522.34073,0.09879
521.31047,0.10467
520.28021,0.11030
519.24995,0.11706
518.21969,0.12843
517.18944,0.14560
516.15918,0.16589
515.12892,0.18780
514.09866,0.20912
513.06841,0.22328
512.03815,0.22803
511.00789,0.22566
509.97763,0.21760
508.94737,0.20511
507.91712,0.19151
506.88686,0.17984
505.85660,0.16822
504.82634,0.15460
503.79609,0.14229
502.76583,0.13461
501.73557,0.13027
500.70531,0.12740
499.67505,0.12565
498.64480,0.12560
497.61454,0.13069
496.58428,0.14371
495.55402,0.16348
494.52376,0.18753
493.49351,0.21105
492.46325,0.22310
491.43299,0.21619
490.40273,0.19755
489.37248,0.17778
488.34222,0.15956
487.31196,0.14337
486.28170,0.13099
485.25144,0.12135
484.22119,0.11227
483.19093,0.10459
482.16067,0.09871
481.13041,0.09305
480.10015,0.08874
479.06990,0.08812
478.03964,0.08910
477.00938,0.08897
475.97912,0.08934
474.94887,0.09249
473.91861,0.09747
472.88835,0.10597
471.85809,0.12416
470.82783,0.15152
469.79758,0.18504
468.76732,0.22317
467.73706,0.25893
466.70680,0.28214
465.67654,0.28586
464.64629,0.26858
463.61603,0.24021
462.58577,0.21422
461.55551,0.19178
460.52526,0.17069
459.49500,0.15411
458.46474,0.14222
457.43448,0.13172
456.40422,0.12205
455.37397,0.11411
454.34371,0.10806
453.31345,0.10440
452.28319,0.10134
451.25294,0.09574
450.22268,0.08964
449.19242,0.08619
448.16216,0.08387
447.13190,0.08133
446.10165,0.07849
445.07139,0.07623
444.04113,0.07580
443.01087,0.07534
441.98061,0.07416
440.95036,0.07440
439.92010,0.07468
438.88984,0.07431
437.85958,0.07356
436.82933,0.07002
435.79907,0.06696
434.76881,0.06784
433.73855,0.06892
432.70829,0.06800
431.67804,0.06520
430.64778,0.06298
429.61752,0.06322
428.58726,0.06393
427.55700,0.06273
426.52675,0.05976
425.49649,0.05878
424.46623,0.06111
423.43597,0.06315
422.40572,0.06348
421.37546,0.06358
420.34520,0.06450
419.31494,0.06578
418.28468,0.06410
417.25443,0.06043
416.22417,0.05858
415.19391,0.05761
414.16365,0.05551
413.13339,0.05256
412.10314,0.05109
411.07288,0.05319
410.04262,0.05667
409.01236,0.05752
407.98211,0.05721
406.95185,0.05861
405.92159,0.06051
404.89133,0.06353
403.86107,0.06923
402.83082,0.07242
401.80056,0.06915
400.77030,0.06683
399.74004,0.07364
