4998.85573,0.00126
4997.82546,0.00145
4996.79519,0.00213
4995.76493,0.00270
4994.73466,0.00212
4993.70439,0.00131
4992.67413,0.00175
4991.64386,0.00180
4990.61359,0.00052
4989.58332,0.00025
4988.55306,0.00076
4987.52279,0.00015
4986.49252,-0.00100
4985.46226,-0.00101
4984.43199,0.00015
4983.40172,0.00140
4982.37145,0.00223
4981.34119,0.00196
4980.31092,0.00075
4979.28065,0.00000
4978.25039,0.00001
4977.22012,-0.00009
4976.18985,-0.00020
4975.15959,-0.00012
4974.12932,-0.00017
4973.09905,0.00027
4972.06878,0.00113
4971.03852,0.00126
4970.00825,0.00029
4968.97798,-0.00092
4967.94772,-0.00113
4966.91745,-0.00019
4965.88718,0.00086
4964.85691,0.00073
4963.82665,-0.00027
4962.79638,-0.00075
4961.76611,-0.00057
4960.73585,-0.00024
4959.70558,0.00001
4958.67531,0.00035
4957.64505,0.00081
4956.61478,0.00150
4955.58451,0.00182
4954.55424,0.00034
4953.52398,-0.00118
4952.49371,-0.00044
4951.46344,0.00095
4950.43318,0.00153
4949.40291,0.00184
4948.37264,0.00193
4947.34238,0.00166
4946.31211,0.00153
4945.28184,0.00124
4944.25157,0.00053
4943.22131,-0.00017
4942.19104,-0.00051
4941.16077,-0.00019
4940.13051,0.00054
4939.10024,0.00092
4938.06997,0.00045
4937.03970,-0.00033
4936.00944,-0.00003
4934.97917,0.00137
4933.94890,0.00247
4932.91864,0.00255
4931.88837,0.00188
4930.85810,0.00088
4929.82784,0.00016
4928.79757,0.00026
4927.76730,0.00104
4926.73703,0.00159
4925.70677,0.00144
4924.67650,0.00124
4923.64623,0.00108
4922.61597,0.00067
4921.58570,0.00005
4920.55543,-0.00041
4919.52516,0.00002
4918.49490,0.00094
4917.46463,0.00136
4916.43436,0.00119
4915.40410,0.00095
4914.37383,0.00140
4913.34356,0.00240
4912.31330,0.00279
4911.28303,0.00184
4910.25276,0.00035
4909.22249,-0.00040
4908.19223,0.00002
4907.16196,0.00056
4906.13169,0.00072
4905.10143,0.00045
4904.07116,-0.00042
4903.04089,-0.00075
4902.01062,-0.00053
4900.98036,-0.00023
4899.95009,-0.00001
4898.91982,-0.00016
4897.88956,0.00025
4896.85929,0.00095
4895.82902,0.00068
4894.79876,0.00023
4893.76849,0.00081
4892.73822,0.00135
4891.70795,0.00091
4890.67769,0.00062
4889.64742,0.00111
4888.61715,0.00148
4887.58689,0.00137
4886.55662,0.00113
4885.52635,0.00082
4884.49609,0.00053
4883.46582,0.00103
4882.43555,0.00197
4881.40528,0.00184
4880.37502,0.00097
4879.34475,0.00056
4878.31448,0.00080
4877.28422,0.00100
4876.25395,0.00097
4875.22368,0.00110
4874.19341,0.00118
4873.16315,0.00098
4872.13288,0.00080
4871.10261,0.00084
4870.07235,0.00050
4869.04208,-0.00004
4868.01181,-0.00012
4866.98155,-0.00020
4865.95128,-0.00041
4864.92101,-0.00053
4863.89074,-0.00042
4862.86048,0.00028
4861.83021,0.00090
4860.79994,0.00065
4859.76968,0.00004
4858.73941,-0.00008
4857.70914,0.00053
4856.67887,0.00121
4855.64861,0.00108
4854.61834,0.00048
4853.58807,0.00023
4852.55781,0.00020
4851.52754,0.00010
4850.49727,-0.00013
4849.46701,-0.00058
4848.43674,-0.00087
4847.40647,-0.00062
4846.37620,0.00017
4845.34594,0.00081
4844.31567,0.00088
4843.28540,0.00078
4842.25514,0.00097
4841.22487,0.00132
4840.19460,0.00104
4839.16433,0.00060
4838.13407,0.00045
4837.10380,0.00054
4836.07353,0.00069
4835.04327,0.00045
4834.01300,0.00033
4832.98273,0.00043
4831.95247,0.00043
4830.92220,0.00073
4829.89193,0.00098
4828.86166,0.00074
4827.83140,0.00048
4826.80113,0.00064
4825.77086,0.00135
4824.74060,0.00213
4823.71033,0.00199
4822.68006,0.00121
4821.64979,0.00074
4820.61953,0.00048
4819.58926,0.00046
4818.55899,0.00097
4817.52873,0.00115
4816.49846,0.00087
4815.46819,0.00092
4814.43793,0.00090
4813.40766,0.00033
4812.37739,0.00008
4811.34712,0.00059
4810.31686,0.00098
4809.28659,0.00101
4808.25632,0.00114
4807.22606,0.00122
4806.19579,0.00125
4805.16552,0.00146
4804.13526,0.00136
4803.10499,0.00091
4802.07472,0.00092
4801.04445,0.00116
4800.01419,0.00107
4798.98392,0.00097
4797.95365,0.00061
4796.92339,-0.00033
4795.89312,-0.00113
4794.86285,-0.00108
4793.83258,-0.00021
4792.80232,0.00074
4791.77205,0.00140
4790.74178,0.00152
4789.71152,0.00082
4788.68125,-0.00003
4787.65098,-0.00011
4786.62072,0.00070
4785.59045,0.00135
4784.56018,0.00094
4783.52991,0.00040
4782.49965,0.00041
4781.46938,0.00058
4780.43911,0.00080
4779.40885,0.00072
4778.37858,0.00050
4777.34831,0.00067
4776.31804,0.00082
4775.28778,0.00081
4774.25751,0.00105
4773.22724,0.00128
4772.19698,0.00093
4771.16671,0.00012
4770.13644,-0.00023
4769.10618,0.00010
4768.07591,0.00026
4767.04564,0.00011
4766.01537,0.00019
4764.98511,0.00075
4763.95484,0.00124
4762.92457,0.00117
4761.89431,0.00080
4760.86404,0.00051
4759.83377,0.00027
4758.80350,0.00034
4757.77324,0.00070
4756.74297,0.00044
4755.71270,0.00023
4754.68244,0.00089
4753.65217,0.00153
4752.62190,0.00139
4751.59164,0.00083
4750.56137,0.00055
4749.53110,0.00064
4748.50083,0.00086
4747.47057,0.00130
4746.44030,0.00183
4745.41003,0.00172
4744.37977,0.00103
4743.34950,0.00044
4742.31923,-0.00011
4741.28897,-0.00006
4740.25870,0.00085
4739.22843,0.00128
4738.19816,0.00122
4737.16790,0.00118
4736.13763,0.00086
4735.10736,0.00052
4734.07710,0.00029
4733.04683,0.00031
4732.01656,0.00072
4730.98629,0.00106
4729.95603,0.00090
4728.92576,0.00037
4727.89549,-0.00017
4726.86523,-0.00086
4725.83496,-0.00163
4724.80469,-0.00160
4723.77443,-0.00061
4722.74416,-0.00015
4721.71389,-0.00061
4720.68362,-0.00081
4719.65336,-0.00052
4718.62309,-0.00023
4717.59282,-0.00003
4716.56256,0.00026
4715.53229,0.00052
4714.50202,0.00066
4713.47175,0.00061
4712.44149,0.00046
4711.41122,0.00071
4710.38095,0.00108
4709.35069,0.00058
4708.32042,-0.00004
4707.29015,0.00033
4706.25989,0.00084
4705.22962,0.00068
4704.19935,0.00037
4703.16908,0.00030
4702.13882,0.00042
4701.10855,0.00075
4700.07828,0.00136
4699.04802,0.00208
4698.01775,0.00226
4696.98748,0.00186
4695.95721,0.00109
4694.92695,0.00003
4693.89668,-0.00007
4692.86641,0.00101
4691.83615,0.00178
4690.80588,0.00156
4689.77561,0.00112
4688.74535,0.00144
4687.71508,0.00185
4686.68481,0.00154
4685.65454,0.00118
4684.62428,0.00092
4683.59401,0.00044
4682.56374,-0.00016
4681.53348,-0.00058
4680.50321,-0.00035
4679.47294,0.00057
4678.44267,0.00113
4677.41241,0.00129
4676.38214,0.00170
4675.35187,0.00199
4674.32161,0.00207
4673.29134,0.00223
4672.26107,0.00238
4671.23081,0.00221
4670.20054,0.00186
4669.17027,0.00178
4668.14000,0.00193
4667.10974,0.00198
4666.07947,0.00138
4665.04920,0.00036
4664.01894,0.00025
4662.98867,0.00067
4661.95840,0.00009
4660.92814,-0.00060
4659.89787,-0.00009
4658.86760,0.00069
4657.83733,0.00081
4656.80707,0.00053
4655.77680,0.00024
4654.74653,-0.00039
4653.71627,-0.00137
4652.68600,-0.00178
4651.65573,-0.00093
4650.62546,0.00053
4649.59520,0.00173
4648.56493,0.00208
4647.53466,0.00143
4646.50440,0.00071
4645.47413,0.00009
4644.44386,-0.00030
4643.41360,0.00037
4642.38333,0.00164
4641.35306,0.00240
4640.32279,0.00208
4639.29253,0.00114
4638.26226,0.00064
4637.23199,0.00071
4636.20173,0.00080
4635.17146,0.00084
4634.14119,0.00085
4633.11092,0.00082
4632.08066,0.00063
4631.05039,0.00010
4630.02012,-0.00020
4628.98986,0.00041
4627.95959,0.00120
4626.92932,0.00144
4625.89906,0.00149
4624.86879,0.00112
4623.83852,0.00049
4622.80825,0.00041
4621.77799,0.00028
4620.74772,-0.00033
4619.71745,-0.00068
4618.68719,-0.00050
4617.65692,0.00007
4616.62665,0.00068
4615.59638,0.00103
4614.56612,0.00130
4613.53585,0.00161
4612.50558,0.00194
4611.47532,0.00195
4610.44505,0.00146
4609.41478,0.00099
4608.38452,0.00080
4607.35425,0.00054
4606.32398,0.00022
4605.29371,-0.00000
4604.26345,-0.00020
4603.23318,-0.00024
4602.20291,-0.00012
4601.17265,-0.00003
4600.14238,-0.00000
4599.11211,0.00018
4598.08185,0.00065
4597.05158,0.00071
4596.02131,-0.00009
4594.99104,-0.00080
4593.96078,-0.00087
4592.93051,-0.00052
4591.90024,0.00023
4590.86998,0.00115
4589.83971,0.00187
4588.80944,0.00212
4587.77917,0.00177
4586.74891,0.00106
4585.71864,0.00050
4584.68837,0.00044
4583.65811,0.00089
4582.62784,0.00158
4581.59757,0.00185
4580.56731,0.00117
4579.53704,0.00000
4578.50677,-0.00075
4577.47650,-0.00078
4576.44624,-0.00017
4575.41597,0.00044
4574.38570,0.00065
4573.35544,0.00070
4572.32517,0.00083
4571.29490,0.00062
4570.26463,-0.00018
4569.23437,-0.00076
4568.20410,-0.00029
4567.17383,0.00135
4566.14357,0.00289
4565.11330,0.00308
4564.08303,0.00199
4563.05277,0.00073
4562.02250,0.00058
4560.99223,0.00107
4559.96196,0.00106
4558.93170,0.00085
4557.90143,0.00061
4556.87116,-0.00004
4555.84090,-0.00026
4554.81063,0.00029
4553.78036,0.00081
4552.75009,0.00104
4551.71983,0.00077
4550.68956,0.00049
4549.65929,0.00086
4548.62903,0.00100
4547.59876,0.00042
4546.56849,-0.00013
4545.53823,-0.00038
4544.50796,-0.00003
4543.47769,0.00085
4542.44742,0.00141
4541.41716,0.00142
4540.38689,0.00127
4539.35662,0.00136
4538.32636,0.00149
4537.29609,0.00138
4536.26582,0.00095
4535.23556,0.00028
4534.20529,0.00028
4533.17502,0.00060
4532.14475,0.00032
4531.11449,0.00043
4530.08422,0.00088
4529.05395,0.00081
4528.02369,0.00060
4526.99342,0.00041
4525.96315,0.00034
4524.93288,0.00040
4523.90262,0.00052
4522.87235,0.00088
4521.84208,0.00094
4520.81182,0.00079
4519.78155,0.00092
4518.75128,0.00055
4517.72102,-0.00013
4516.69075,0.00017
4515.66048,0.00116
4514.63021,0.00180
4513.59995,0.00193
4512.56968,0.00146
4511.53941,0.00049
4510.50915,-0.00017
4509.47888,0.00006
4508.44861,0.00065
4507.41834,0.00132
4506.38808,0.00201
4505.35781,0.00226
4504.32754,0.00195
4503.29728,0.00135
4502.26701,0.00102
4501.23674,0.00119
4500.20648,0.00175
4499.17621,0.00199
4498.14594,0.00103
4497.11567,0.00000
4496.08541,0.00032
4495.05514,0.00122
4494.02487,0.00123
4492.99461,0.00037
4491.96434,-0.00020
4490.93407,-0.00022
4489.90380,0.00005
4488.87354,0.00030
4487.84327,0.00033
4486.81300,0.00070
4485.78274,0.00135
4484.75247,0.00132
4483.72220,0.00059
4482.69194,-0.00028
4481.66167,-0.00045
4480.63140,0.00055
4479.60113,0.00170
4478.57087,0.00173
4477.54060,0.00079
4476.51033,-0.00018
4475.48007,-0.00042
4474.44980,-0.00001
4473.41953,0.00025
4472.38926,0.00010
4471.35900,-0.00010
4470.32873,-0.00024
4469.29846,-0.00042
4468.26820,-0.00047
4467.23793,-0.00052
4466.20766,-0.00058
4465.17740,-0.00005
4464.14713,0.00080
4463.11686,0.00102
4462.08659,0.00099
4461.05633,0.00126
4460.02606,0.00122
4458.99579,0.00073
4457.96553,0.00047
4456.93526,0.00062
4455.90499,0.00074
4454.87473,0.00047
4453.84446,0.00045
4452.81419,0.00085
4451.78392,0.00125
4450.75366,0.00142
4449.72339,0.00088
4448.69312,0.00028
4447.66286,0.00059
4446.63259,0.00145
4445.60232,0.00205
4444.57205,0.00196
4443.54179,0.00158
4442.51152,0.00162
4441.48125,0.00174
4440.45099,0.00118
4439.42072,0.00027
4438.39045,-0.00003
4437.36019,0.00004
4436.32992,0.00006
4435.29965,0.00050
4434.26938,0.00113
4433.23912,0.00154
4432.20885,0.00167
4431.17858,0.00162
4430.14832,0.00189
4429.11805,0.00215
4428.08778,0.00173
4427.05751,0.00135
4426.02725,0.00157
4424.99698,0.00178
4423.96671,0.00182
4422.93645,0.00150
4421.90618,0.00114
4420.87591,0.00145
4419.84565,0.00168
4418.81538,0.00126
4417.78511,0.00104
4416.75484,0.00142
4415.72458,0.00189
4414.69431,0.00233
4413.66404,0.00269
4412.63378,0.00235
4411.60351,0.00149
4410.57324,0.00129
4409.54297,0.00161
4408.51271,0.00167
4407.48244,0.00157
4406.45217,0.00121
4405.42191,0.00076
4404.39164,0.00077
4403.36137,0.00108
4402.33111,0.00182
4401.30084,0.00259
4400.27057,0.00216
4399.24030,0.00129
4398.21004,0.00122
4397.17977,0.00133
4396.14950,0.00112
4395.11924,0.00104
4394.08897,0.00098
4393.05870,0.00103
4392.02844,0.00156
4390.99817,0.00189
4389.96790,0.00172
4388.93763,0.00150
4387.90737,0.00127
4386.87710,0.00119
4385.84683,0.00146
4384.81657,0.00174
4383.78630,0.00187
4382.75603,0.00197
4381.72576,0.00195
4380.69550,0.00201
4379.66523,0.00207
4378.63496,0.00152
4377.60470,0.00076
4376.57443,0.00095
4375.54416,0.00205
4374.51390,0.00282
4373.48363,0.00282
4372.45336,0.00300
4371.42309,0.00352
4370.39283,0.00331
4369.36256,0.00216
4368.33229,0.00152
4367.30203,0.00201
4366.27176,0.00277
4365.24149,0.00322
4364.21122,0.00304
4363.18096,0.00240
4362.15069,0.00213
4361.12042,0.00248
4360.09016,0.00282
4359.05989,0.00260
4358.02962,0.00211
4356.99936,0.00184
4355.96909,0.00183
4354.93882,0.00221
4353.90855,0.00267
4352.87829,0.00244
4351.84802,0.00173
4350.81775,0.00145
4349.78749,0.00195
4348.75722,0.00258
4347.72695,0.00260
4346.69668,0.00236
4345.66642,0.00250
4344.63615,0.00259
4343.60588,0.00217
4342.57562,0.00188
4341.54535,0.00208
4340.51508,0.00262
4339.48482,0.00299
4338.45455,0.00251
4337.42428,0.00162
4336.39401,0.00145
4335.36375,0.00198
4334.33348,0.00235
4333.30321,0.00233
4332.27295,0.00232
4331.24268,0.00233
4330.21241,0.00215
4329.18214,0.00210
4328.15188,0.00244
4327.12161,0.00268
4326.09134,0.00262
4325.06108,0.00262
4324.03081,0.00257
4323.00054,0.00217
4321.97028,0.00175
4320.94001,0.00177
4319.90974,0.00214
4318.87947,0.00246
4317.84921,0.00217
4316.81894,0.00149
4315.78867,0.00162
4314.75841,0.00209
4313.72814,0.00193
4312.69787,0.00169
4311.66761,0.00166
4310.63734,0.00134
4309.60707,0.00088
4308.57680,0.00089
4307.54654,0.00140
4306.51627,0.00208
4305.48600,0.00248
4304.45574,0.00237
4303.42547,0.00201
4302.39520,0.00176
4301.36493,0.00181
4300.33467,0.00200
4299.30440,0.00202
4298.27413,0.00196
4297.24387,0.00192
4296.21360,0.00185
4295.18333,0.00192
4294.15307,0.00197
4293.12280,0.00177
4292.09253,0.00158
4291.06226,0.00153
4290.03200,0.00138
4289.00173,0.00134
4287.97146,0.00170
4286.94120,0.00187
4285.91093,0.00139
4284.88066,0.00076
4283.85039,0.00051
4282.82013,0.00077
4281.78986,0.00156
4280.75959,0.00240
4279.72933,0.00275
4278.69906,0.00236
4277.66879,0.00134
4276.63853,0.00069
4275.60826,0.00105
4274.57799,0.00172
4273.54772,0.00169
4272.51746,0.00135
4271.48719,0.00178
4270.45692,0.00234
4269.42666,0.00237
4268.39639,0.00229
4267.36612,0.00215
4266.33585,0.00210
4265.30559,0.00204
4264.27532,0.00179
4263.24505,0.00177
4262.21479,0.00202
4261.18452,0.00159
4260.15425,0.00086
4259.12399,0.00118
4258.09372,0.00180
4257.06345,0.00196
4256.03318,0.00215
4255.00292,0.00204
4253.97265,0.00169
4252.94238,0.00192
4251.91212,0.00259
4250.88185,0.00280
4249.85158,0.00238
4248.82132,0.00174
4247.79105,0.00111
4246.76078,0.00098
4245.73051,0.00161
4244.70025,0.00217
4243.66998,0.00226
4242.63971,0.00238
4241.60945,0.00221
4240.57918,0.00140
4239.54891,0.00084
4238.51864,0.00128
4237.48838,0.00185
4236.45811,0.00149
4235.42784,0.00100
4234.39758,0.00115
4233.36731,0.00145
4232.33704,0.00179
4231.30678,0.00196
4230.27651,0.00164
4229.24624,0.00126
4228.21597,0.00139
4227.18571,0.00184
4226.15544,0.00201
4225.12517,0.00183
4224.09491,0.00156
4223.06464,0.00126
4222.03437,0.00102
4221.00410,0.00107
4219.97384,0.00137
4218.94357,0.00153
4217.91330,0.00138
4216.88304,0.00127
4215.85277,0.00119
4214.82250,0.00117
4213.79224,0.00133
4212.76197,0.00142
4211.73170,0.00155
4210.70143,0.00193
4209.67117,0.00230
4208.64090,0.00243
4207.61063,0.00225
4206.58037,0.00178
4205.55010,0.00125
4204.51983,0.00090
4203.48956,0.00082
4202.45930,0.00110
4201.42903,0.00154
4200.39876,0.00175
4199.36850,0.00184
4198.33823,0.00211
4197.30796,0.00224
4196.27770,0.00203
4195.24743,0.00172
4194.21716,0.00138
4193.18689,0.00113
4192.15663,0.00114
4191.12636,0.00118
4190.09609,0.00143
4189.06583,0.00212
4188.03556,0.00254
4187.00529,0.00221
4185.97502,0.00164
4184.94476,0.00160
4183.91449,0.00219
4182.88422,0.00246
4181.85396,0.00201
4180.82369,0.00183
4179.79342,0.00207
4178.76316,0.00217
4177.73289,0.00236
4176.70262,0.00245
4175.67235,0.00193
4174.64209,0.00154
4173.61182,0.00189
4172.58155,0.00222
4171.55129,0.00205
4170.52102,0.00164
4169.49075,0.00110
4168.46049,0.00069
4167.43022,0.00085
4166.39995,0.00140
4165.36968,0.00185
4164.33942,0.00196
4163.30915,0.00175
4162.27888,0.00173
4161.24862,0.00180
4160.21835,0.00125
4159.18808,0.00076
4158.15781,0.00116
4157.12755,0.00170
4156.09728,0.00212
4155.06701,0.00273
4154.03675,0.00278
4153.00648,0.00209
4151.97621,0.00136
4150.94595,0.00075
4149.91568,0.00060
4148.88541,0.00107
4147.85514,0.00187
4146.82488,0.00238
4145.79461,0.00208
4144.76434,0.00183
4143.73408,0.00222
4142.70381,0.00254
4141.67354,0.00243
4140.64327,0.00220
4139.61301,0.00224
4138.58274,0.00234
4137.55247,0.00214
4136.52221,0.00190
4135.49194,0.00179
4134.46167,0.00158
4133.43141,0.00134
4132.40114,0.00155
4131.37087,0.00197
4130.34060,0.00194
4129.31034,0.00176
4128.28007,0.00163
4127.24980,0.00129
4126.21954,0.00102
4125.18927,0.00091
4124.15900,0.00083
4123.12873,0.00105
4122.09847,0.00162
4121.06820,0.00205
4120.03793,0.00201
4119.00767,0.00171
4117.97740,0.00156
4116.94713,0.00167
4115.91687,0.00202
4114.88660,0.00215
4113.85633,0.00190
4112.82606,0.00203
4111.79580,0.00256
4110.76553,0.00298
4109.73526,0.00298
4108.70500,0.00228
4107.67473,0.00157
4106.64446,0.00149
4105.61420,0.00169
4104.58393,0.00206
4103.55366,0.00259
4102.52339,0.00299
4101.49313,0.00287
4100.46286,0.00225
4099.43259,0.00184
4098.40233,0.00181
4097.37206,0.00185
4096.34179,0.00222
4095.31152,0.00292
4094.28126,0.00323
4093.25099,0.00291
4092.22072,0.00252
4091.19046,0.00249
4090.16019,0.00281
4089.12992,0.00304
4088.09966,0.00280
4087.06939,0.00252
4086.03912,0.00273
4085.00885,0.00313
4083.97859,0.00316
4082.94832,0.00275
4081.91805,0.00225
4080.88779,0.00228
4079.85752,0.00272
4078.82725,0.00280
4077.79698,0.00237
4076.76672,0.00198
4075.73645,0.00207
4074.70618,0.00236
4073.67592,0.00252
4072.64565,0.00251
4071.61538,0.00249
4070.58512,0.00276
4069.55485,0.00315
4068.52458,0.00287
4067.49431,0.00233
4066.46405,0.00249
4065.43378,0.00294
4064.40351,0.00306
4063.37325,0.00308
4062.34298,0.00320
4061.31271,0.00303
4060.28244,0.00273
4059.25218,0.00286
4058.22191,0.00333
4057.19164,0.00363
4056.16138,0.00342
4055.13111,0.00316
4054.10084,0.00335
4053.07058,0.00365
4052.04031,0.00387
4051.01004,0.00390
4049.97977,0.00352
4048.94951,0.00320
4047.91924,0.00323
4046.88897,0.00352
4045.85871,0.00390
4044.82844,0.00406
4043.79817,0.00399
4042.76791,0.00371
4041.73764,0.00328
4040.70737,0.00299
4039.67710,0.00304
4038.64684,0.00338
4037.61657,0.00372
4036.58630,0.00376
4035.55604,0.00381
4034.52577,0.00393
4033.49550,0.00378
4032.46523,0.00341
4031.43497,0.00299
4030.40470,0.00289
4029.37443,0.00333
4028.34417,0.00367
4027.31390,0.00350
4026.28363,0.00320
4025.25337,0.00339
4024.22310,0.00383
4023.19283,0.00386
4022.16256,0.00364
4021.13230,0.00337
4020.10203,0.00299
4019.07176,0.00310
4018.04150,0.00362
4017.01123,0.00356
4015.98096,0.00333
4014.95069,0.00374
4013.92043,0.00420
4012.89016,0.00420
4011.85989,0.00385
4010.82963,0.00327
4009.79936,0.00285
4008.76909,0.00316
4007.73883,0.00368
4006.70856,0.00356
4005.67829,0.00337
4004.64802,0.00354
4003.61776,0.00372
4002.58749,0.00368
4001.55722,0.00332
4000.52696,0.00306
3999.49669,0.00321
3998.46642,0.00350
3997.43615,0.00383
3996.40589,0.00397
3995.37562,0.00367
3994.34535,0.00335
3993.31509,0.00342
3992.28482,0.00359
3991.25455,0.00355
3990.22429,0.00347
3989.19402,0.00366
3988.16375,0.00377
3987.13348,0.00332
3986.10322,0.00280
3985.07295,0.00284
3984.04268,0.00322
3983.01242,0.00375
3981.98215,0.00424
3980.95188,0.00400
3979.92161,0.00331
3978.89135,0.00306
3977.86108,0.00348
3976.83081,0.00418
3975.80055,0.00435
3974.77028,0.00393
3973.74001,0.00360
3972.70975,0.00342
3971.67948,0.00325
3970.64921,0.00308
3969.61894,0.00294
3968.58868,0.00309
3967.55841,0.00335
3966.52814,0.00322
3965.49788,0.00288
3964.46761,0.00262
3963.43734,0.00237
3962.40708,0.00236
3961.37681,0.00282
3960.34654,0.00333
3959.31627,0.00348
3958.28601,0.00340
3957.25574,0.00327
3956.22547,0.00315
3955.19521,0.00306
3954.16494,0.00295
3953.13467,0.00275
3952.10440,0.00267
3951.07414,0.00287
3950.04387,0.00313
3949.01360,0.00297
3947.98334,0.00251
3946.95307,0.00229
3945.92280,0.00250
3944.89254,0.00309
3943.86227,0.00373
3942.83200,0.00380
3941.80173,0.00331
3940.77147,0.00277
3939.74120,0.00250
3938.71093,0.00268
3937.68067,0.00297
3936.65040,0.00306
3935.62013,0.00307
3934.58986,0.00279
3933.55960,0.00260
3932.52933,0.00332
3931.49906,0.00390
3930.46880,0.00348
3929.43853,0.00313
3928.40826,0.00286
3927.37800,0.00220
3926.34773,0.00200
3925.31746,0.00269
3924.28719,0.00326
3923.25693,0.00318
3922.22666,0.00316
3921.19639,0.00364
3920.16613,0.00390
3919.13586,0.00347
3918.10559,0.00297
3917.07532,0.00249
3916.04506,0.00199
3915.01479,0.00164
3913.98452,0.00171
3912.95426,0.00234
3911.92399,0.00273
3910.89372,0.00250
3909.86346,0.00237
3908.83319,0.00258
3907.80292,0.00258
3906.77265,0.00235
3905.74239,0.00230
3904.71212,0.00235
3903.68185,0.00229
3902.65159,0.00259
3901.62132,0.00331
3900.59105,0.00365
3899.56079,0.00352
3898.53052,0.00318
3897.50025,0.00291
3896.46998,0.00297
3895.43972,0.00308
3894.40945,0.00265
3893.37918,0.00224
3892.34892,0.00249
3891.31865,0.00264
3890.28838,0.00263
3889.25811,0.00286
3888.22785,0.00313
3887.19758,0.00335
3886.16731,0.00320
3885.13705,0.00231
3884.10678,0.00177
3883.07651,0.00218
3882.04625,0.00257
3881.01598,0.00264
3879.98571,0.00264
3878.95544,0.00234
3877.92518,0.00201
3876.89491,0.00196
3875.86464,0.00231
3874.83438,0.00272
3873.80411,0.00271
3872.77384,0.00272
3871.74357,0.00321
3870.71331,0.00384
3869.68304,0.00381
3868.65277,0.00323
3867.62251,0.00295
3866.59224,0.00273
3865.56197,0.00264
3864.53171,0.00264
3863.50144,0.00224
3862.47117,0.00205
3861.44090,0.00232
3860.41064,0.00235
3859.38037,0.00230
3858.35010,0.00235
3857.31984,0.00201
3856.28957,0.00167
3855.25930,0.00208
3854.22903,0.00324
3853.19877,0.00392
3852.16850,0.00344
3851.13823,0.00312
3850.10797,0.00293
3849.07770,0.00258
3848.04743,0.00252
3847.01717,0.00270
3845.98690,0.00250
3844.95663,0.00203
3843.92636,0.00192
3842.89610,0.00256
3841.86583,0.00330
3840.83556,0.00354
3839.80530,0.00321
3838.77503,0.00266
3837.74476,0.00258
3836.71449,0.00274
3835.68423,0.00254
3834.65396,0.00253
3833.62369,0.00285
3832.59343,0.00285
3831.56316,0.00239
3830.53289,0.00183
3829.50263,0.00151
3828.47236,0.00131
3827.44209,0.00112
3826.41182,0.00137
3825.38156,0.00201
3824.35129,0.00228
3823.32102,0.00247
3822.29076,0.00284
3821.26049,0.00308
3820.23022,0.00297
3819.19996,0.00274
3818.16969,0.00262
3817.13942,0.00257
3816.10915,0.00259
3815.07889,0.00259
3814.04862,0.00243
3813.01835,0.00209
3811.98809,0.00173
3810.95782,0.00171
3809.92755,0.00204
3808.89728,0.00261
3807.86702,0.00331
3806.83675,0.00359
3805.80648,0.00327
3804.77622,0.00304
3803.74595,0.00310
3802.71568,0.00358
3801.68542,0.00412
3800.65515,0.00375
3799.62488,0.00306
3798.59461,0.00292
3797.56435,0.00312
3796.53408,0.00292
3795.50381,0.00258
3794.47355,0.00259
3793.44328,0.00277
3792.41301,0.00282
3791.38274,0.00251
3790.35248,0.00220
3789.32221,0.00227
3788.29194,0.00241
3787.26168,0.00230
3786.23141,0.00247
3785.20114,0.00303
3784.17088,0.00288
3783.14061,0.00200
3782.11034,0.00178
3781.08007,0.00256
3780.04981,0.00341
3779.01954,0.00333
3777.98927,0.00264
3776.95901,0.00208
3775.92874,0.00179
3774.89847,0.00178
3773.86820,0.00202
3772.83794,0.00232
3771.80767,0.00246
3770.77740,0.00266
3769.74714,0.00311
3768.71687,0.00335
3767.68660,0.00312
3766.65634,0.00267
3765.62607,0.00254
3764.59580,0.00268
3763.56553,0.00240
3762.53527,0.00203
3761.50500,0.00228
3760.47473,0.00306
3759.44447,0.00372
3758.41420,0.00390
3757.38393,0.00377
3756.35367,0.00336
3755.32340,0.00310
3754.29313,0.00318
3753.26286,0.00340
3752.23260,0.00358
3751.20233,0.00326
3750.17206,0.00282
3749.14180,0.00273
3748.11153,0.00290
3747.08126,0.00330
3746.05099,0.00373
3745.02073,0.00318
3743.99046,0.00169
3742.96019,0.00198
3741.92993,0.00246
3740.89966,0.00236
3739.86939,0.00236
3738.83913,0.00307
3737.80886,0.00414
3736.77859,0.00488
3735.74832,0.00545
3734.71806,0.00530
3733.68779,0.00450
3732.65752,0.00379
3731.62726,0.00268
3730.59699,0.00192
3729.56672,0.00214
3728.53645,0.00281
3727.50619,0.00335
3726.47592,0.00320
3725.44565,0.00252
3724.41539,0.00207
3723.38512,0.00233
3722.35485,0.00290
3721.32459,0.00286
3720.29432,0.00274
3719.26405,0.00319
3718.23378,0.00333
3717.20352,0.00273
3716.17325,0.00252
3715.14298,0.00320
3714.11272,0.00418
3713.08245,0.00496
3712.05218,0.00509
3711.02191,0.00474
3709.99165,0.00436
3708.96138,0.00371
3707.93111,0.00317
3706.90085,0.00303
3705.87058,0.00316
3704.84031,0.00357
3703.81005,0.00384
3702.77978,0.00348
3701.74951,0.00312
3700.71924,0.00368
3699.68898,0.00417
3698.65871,0.00361
3697.62844,0.00295
3696.59818,0.00321
3695.56791,0.00382
3694.53764,0.00429
3693.50737,0.00472
3692.47711,0.00513
3691.44684,0.00560
3690.41657,0.00614
3689.38631,0.00622
3688.35604,0.00573
3687.32577,0.00570
3686.29551,0.00598
3685.26524,0.00590
3684.23497,0.00591
3683.20470,0.00625
3682.17444,0.00635
3681.14417,0.00653
3680.11390,0.00706
3679.08364,0.00737
3678.05337,0.00747
3677.02310,0.00784
3675.99284,0.00917
3674.96257,0.01022
3673.93230,0.00902
3672.90203,0.00805
3671.87177,0.00859
3670.84150,0.01058
3669.81123,0.01202
3668.78097,0.01138
3667.75070,0.01051
3666.72043,0.01054
3665.69016,0.01094
3664.65990,0.01120
3663.62963,0.01112
3662.59936,0.01098
3661.56910,0.01126
3660.53883,0.01157
3659.50856,0.01142
3658.47830,0.01140
3657.44803,0.01203
3656.41776,0.01290
3655.38749,0.01347
3654.35723,0.01375
3653.32696,0.01406
3652.29669,0.01463
3651.26643,0.01543
3650.23616,0.01575
3649.20589,0.01540
3648.17562,0.01560
3647.14536,0.01639
3646.11509,0.01707
3645.08482,0.01742
3644.05456,0.01757
3643.02429,0.01819
3641.99402,0.01915
3640.96376,0.01922
3639.93349,0.01888
3638.90322,0.01924
3637.87295,0.02009
3636.84269,0.02087
3635.81242,0.02148
3634.78215,0.02207
3633.75189,0.02269
3632.72162,0.02334
3631.69135,0.02406
3630.66108,0.02482
3629.63082,0.02546
3628.60055,0.02579
3627.57028,0.02597
3626.54002,0.02634
3625.50975,0.02673
3624.47948,0.02703
3623.44922,0.02743
3622.41895,0.02803
3621.38868,0.02868
3620.35841,0.02910
3619.32815,0.02917
3618.29788,0.02900
3617.26761,0.02958
3616.23735,0.03088
3615.20708,0.03207
3614.17681,0.03334
3613.14655,0.03425
3612.11628,0.03441
3611.08601,0.03495
3610.05574,0.03641
3609.02548,0.03785
3607.99521,0.03842
3606.96494,0.03868
3605.93468,0.03899
3604.90441,0.03943
3603.87414,0.04009
3602.84387,0.04068
3601.81361,0.04099
3600.78334,0.04147
3599.75307,0.04280
3598.72281,0.04453
3597.69254,0.04557
3596.66227,0.04580
3595.63201,0.04600
3594.60174,0.04686
3593.57147,0.04784
3592.54120,0.04816
3591.51094,0.04854
3590.48067,0.04967
3589.45040,0.05100
3588.42014,0.05153
3587.38987,0.05157
3586.35960,0.05203
3585.32933,0.05288
3584.29907,0.05381
3583.26880,0.05435
3582.23853,0.05515
3581.20827,0.05649
3580.17800,0.05752
3579.14773,0.05814
3578.11747,0.05874
3577.08720,0.05942
3576.05693,0.05995
3575.02666,0.06045
3573.99640,0.06163
3572.96613,0.06342
3571.93586,0.06476
3570.90560,0.06552
3569.87533,0.06642
3568.84506,0.06745
3567.81479,0.06834
3566.78453,0.06893
3565.75426,0.06916
3564.72399,0.06946
3563.69373,0.07008
3562.66346,0.07076
3561.63319,0.07156
3560.60293,0.07265
3559.57266,0.07358
3558.54239,0.07416
3557.51212,0.07481
3556.48186,0.07569
3555.45159,0.07652
3554.42132,0.07697
3553.39106,0.07708
3552.36079,0.07748
3551.33052,0.07838
3550.30026,0.07933
3549.26999,0.08038
3548.23972,0.08120
3547.20945,0.08140
3546.17919,0.08193
3545.14892,0.08306
3544.11865,0.08388
3543.08839,0.08425
3542.05812,0.08442
3541.02785,0.08451
3539.99758,0.08488
3538.96732,0.08561
3537.93705,0.08630
3536.90678,0.08679
3535.87652,0.08737
3534.84625,0.08828
3533.81598,0.08925
3532.78572,0.08999
3531.75545,0.09076
3530.72518,0.09150
3529.69491,0.09174
3528.66465,0.09163
3527.63438,0.09168
3526.60411,0.09228
3525.57385,0.09364
3524.54358,0.09496
3523.51331,0.09542
3522.48304,0.09582
3521.45278,0.09643
3520.42251,0.09638
3519.39224,0.09601
3518.36198,0.09621
3517.33171,0.09685
3516.30144,0.09754
3515.27118,0.09803
3514.24091,0.09830
3513.21064,0.09879
3512.18037,0.09935
3511.15011,0.09966
3510.11984,0.10016
3509.08957,0.10095
3508.05931,0.10143
3507.02904,0.10146
3505.99877,0.10139
3504.96850,0.10140
3503.93824,0.10145
3502.90797,0.10168
3501.87770,0.10229
3500.84744,0.10302
3499.81717,0.10354
3498.78690,0.10376
3497.75664,0.10374
3496.72637,0.10394
3495.69610,0.10430
3494.66583,0.10450
3493.63557,0.10452
3492.60530,0.10452
3491.57503,0.10492
3490.54477,0.10541
3489.51450,0.10568
3488.48423,0.10600
3487.45396,0.10599
3486.42370,0.10555
3485.39343,0.10508
3484.36316,0.10492
3483.33290,0.10547
3482.30263,0.10656
3481.27236,0.10710
3480.24210,0.10683
3479.21183,0.10675
3478.18156,0.10708
3477.15129,0.10743
3476.12103,0.10779
3475.09076,0.10803
3474.06049,0.10816
3473.03023,0.10818
3471.99996,0.10820
3470.96969,0.10870
3469.93943,0.10908
3468.90916,0.10848
3467.87889,0.10784
3466.84862,0.10857
3465.81836,0.10964
3464.78809,0.10978
3463.75782,0.11004
3462.72756,0.11065
3461.69729,0.11048
3460.66702,0.10963
3459.63675,0.10939
3458.60649,0.10987
3457.57622,0.11016
3456.54595,0.11022
3455.51569,0.11047
3454.48542,0.11074
3453.45515,0.11049
3452.42489,0.10989
3451.39462,0.10970
3450.36435,0.11008
3449.33408,0.11070
3448.30382,0.11125
3447.27355,0.11154
3446.24328,0.11166
3445.21302,0.11176
3444.18275,0.11180
3443.15248,0.11160
3442.12221,0.11147
3441.09195,0.11178
3440.06168,0.11160
3439.03141,0.11076
3438.00115,0.11059
3436.97088,0.11111
3435.94061,0.11131
3434.91035,0.11129
3433.88008,0.11156
3432.84981,0.11201
3431.81954,0.11213
3430.78928,0.11172
3429.75901,0.11144
3428.72874,0.11164
3427.69848,0.11199
3426.66821,0.11236
3425.63794,0.11249
3424.60767,0.11227
3423.57741,0.11258
3422.54714,0.11320
3421.51687,0.11324
3420.48661,0.11309
3419.45634,0.11292
3418.42607,0.11222
3417.39581,0.11137
3416.36554,0.11117
3415.33527,0.11138
3414.30500,0.11106
3413.27474,0.11062
3412.24447,0.11100
3411.21420,0.11143
3410.18394,0.11093
3409.15367,0.11036
3408.12340,0.11068
3407.09314,0.11125
3406.06287,0.11134
3405.03260,0.11116
3404.00233,0.11069
3402.97207,0.11005
3401.94180,0.10954
3400.91153,0.10910
3399.88127,0.10874
3398.85100,0.10874
3397.82073,0.10887
3396.79046,0.10849
3395.76020,0.10788
3394.72993,0.10730
3393.69966,0.10680
3392.66940,0.10676
3391.63913,0.10711
3390.60886,0.10751
3389.57860,0.10761
3388.54833,0.10755
3387.51806,0.10744
3386.48779,0.10680
3385.45753,0.10586
3384.42726,0.10542
3383.39699,0.10521
3382.36673,0.10456
3381.33646,0.10380
3380.30619,0.10340
3379.27592,0.10321
3378.24566,0.10294
3377.21539,0.10253
3376.18512,0.10236
3375.15486,0.10239
3374.12459,0.10205
3373.09432,0.10146
3372.06406,0.10101
3371.03379,0.10050
3370.00352,0.10012
3368.97325,0.10006
3367.94299,0.09985
3366.91272,0.09934
3365.88245,0.09874
3364.85219,0.09805
3363.82192,0.09758
3362.79165,0.09734
3361.76138,0.09693
3360.73112,0.09627
3359.70085,0.09576
3358.67058,0.09560
3357.64032,0.09534
3356.61005,0.09491
3355.57978,0.09450
3354.54952,0.09416
3353.51925,0.09363
3352.48898,0.09274
3351.45871,0.09200
3350.42845,0.09164
3349.39818,0.09145
3348.36791,0.09139
3347.33765,0.09124
3346.30738,0.09068
3345.27711,0.08996
3344.24684,0.08960
3343.21658,0.08939
3342.18631,0.08899
3341.15604,0.08849
3340.12578,0.08750
3339.09551,0.08627
3338.06524,0.08597
3337.03498,0.08619
3336.00471,0.08599
3334.97444,0.08561
3333.94417,0.08566
3332.91391,0.08588
3331.88364,0.08578
3330.85337,0.08531
3329.82311,0.08426
3328.79284,0.08333
3327.76257,0.08342
3326.73231,0.08376
3325.70204,0.08364
3324.67177,0.08319
3323.64150,0.08255
3322.61124,0.08212
3321.58097,0.08206
3320.55070,0.08205
3319.52044,0.08174
3318.49017,0.08103
3317.45990,0.08020
3316.42963,0.07976
3315.39937,0.07998
3314.36910,0.08004
3313.33883,0.07926
3312.30857,0.07849
3311.27830,0.07842
3310.24803,0.07869
3309.21777,0.07866
3308.18750,0.07832
3307.15723,0.07823
3306.12696,0.07832
3305.09670,0.07813
3304.06643,0.07794
3303.03616,0.07777
3302.00590,0.07730
3300.97563,0.07684
3299.94536,0.07676
3298.91509,0.07681
3297.88483,0.07674
3296.85456,0.07678
3295.82429,0.07698
3294.79403,0.07684
3293.76376,0.07628
3292.73349,0.07577
3291.70323,0.07539
3290.67296,0.07535
3289.64269,0.07544
3288.61242,0.07511
3287.58216,0.07483
3286.55189,0.07481
3285.52162,0.07443
3284.49136,0.07370
3283.46109,0.07324
3282.43082,0.07327
3281.40055,0.07343
3280.37029,0.07348
3279.34002,0.07339
3278.30975,0.07320
3277.27949,0.07286
3276.24922,0.07237
3275.21895,0.07218
3274.18869,0.07209
3273.15842,0.07174
3272.12815,0.07132
3271.09788,0.07078
3270.06762,0.07026
3269.03735,0.07003
3268.00708,0.06978
3266.97682,0.06933
3265.94655,0.06880
3264.91628,0.06832
3263.88602,0.06802
3262.85575,0.06759
3261.82548,0.06712
3260.79521,0.06708
3259.76495,0.06735
3258.73468,0.06735
3257.70441,0.06682
3256.67415,0.06638
3255.64388,0.06647
3254.61361,0.06646
3253.58334,0.06584
3252.55308,0.06513
3251.52281,0.06464
3250.49254,0.06419
3249.46228,0.06397
3248.43201,0.06391
3247.40174,0.06364
3246.37148,0.06316
3245.34121,0.06257
3244.31094,0.06210
3243.28067,0.06192
3242.25041,0.06178
3241.22014,0.06147
3240.18987,0.06103
3239.15961,0.06037
3238.12934,0.05985
3237.09907,0.05978
3236.06880,0.05978
3235.03854,0.05949
3234.00827,0.05898
3232.97800,0.05858
3231.94774,0.05813
3230.91747,0.05741
3229.88720,0.05672
3228.85694,0.05617
3227.82667,0.05590
3226.79640,0.05597
3225.76613,0.05593
3224.73587,0.05548
3223.70560,0.05482
3222.67533,0.05430
3221.64507,0.05410
3220.61480,0.05406
3219.58453,0.05367
3218.55426,0.05270
3217.52400,0.05171
3216.49373,0.05117
3215.46346,0.05067
3214.43320,0.05009
3213.40293,0.05002
3212.37266,0.05030
3211.34240,0.05008
3210.31213,0.04931
3209.28186,0.04861
3208.25159,0.04805
3207.22133,0.04737
3206.19106,0.04653
3205.16079,0.04584
3204.13053,0.04583
3203.10026,0.04628
3202.06999,0.04628
3201.03972,0.04565
3200.00946,0.04496
3198.97919,0.04436
3197.94892,0.04381
3196.91866,0.04344
3195.88839,0.04299
3194.85812,0.04221
3193.82786,0.04144
3192.79759,0.04079
3191.76732,0.04004
3190.73705,0.03950
3189.70679,0.03949
3188.67652,0.03962
3187.64625,0.03959
3186.61599,0.03932
3185.58572,0.03904
3184.55545,0.03886
3183.52519,0.03819
3182.49492,0.03729
3181.46465,0.03694
3180.43438,0.03690
3179.40412,0.03674
3178.37385,0.03651
3177.34358,0.03635
3176.31332,0.03606
3175.28305,0.03544
3174.25278,0.03466
3173.22251,0.03400
3172.19225,0.03374
3171.16198,0.03373
3170.13171,0.03345
3169.10145,0.03290
3168.07118,0.03249
3167.04091,0.03240
3166.01065,0.03216
3164.98038,0.03144
3163.95011,0.03073
3162.91984,0.03070
3161.88958,0.03112
3160.85931,0.03124
3159.82904,0.03073
3158.79878,0.03007
3157.76851,0.02988
3156.73824,0.02986
3155.70797,0.02942
3154.67771,0.02863
3153.64744,0.02791
3152.61717,0.02746
3151.58691,0.02726
3150.55664,0.02722
3149.52637,0.02721
3148.49611,0.02709
3147.46584,0.02688
3146.43557,0.02667
3145.40530,0.02659
3144.37504,0.02666
3143.34477,0.02659
3142.31450,0.02605
3141.28424,0.02516
3140.25397,0.02448
3139.22370,0.02427
3138.19343,0.02427
3137.16317,0.02416
3136.13290,0.02395
3135.10263,0.02387
3134.07237,0.02389
3133.04210,0.02360
3132.01183,0.02304
3130.98157,0.02274
3129.95130,0.02267
3128.92103,0.02242
3127.89076,0.02218
3126.86050,0.02220
3125.83023,0.02217
3124.79996,0.02186
3123.76970,0.02153
3122.73943,0.02143
3121.70916,0.02146
3120.67890,0.02128
3119.64863,0.02098
3118.61836,0.02080
3117.58809,0.02067
3116.55783,0.02050
3115.52756,0.02027
3114.49729,0.01992
3113.46703,0.01969
3112.43676,0.01963
3111.40649,0.01932
3110.37622,0.01902
3109.34596,0.01905
3108.31569,0.01880
3107.28542,0.01836
3106.25516,0.01850
3105.22489,0.01877
3104.19462,0.01826
3103.16436,0.01750
3102.13409,0.01736
3101.10382,0.01762
3100.07355,0.01781
3099.04329,0.01788
3098.01302,0.01781
3096.98275,0.01770
3095.95249,0.01749
3094.92222,0.01710
3093.89195,0.01685
3092.86168,0.01665
3091.83142,0.01631
3090.80115,0.01612
3089.77088,0.01617
3088.74062,0.01609
3087.71035,0.01592
3086.68008,0.01614
3085.64982,0.01633
3084.61955,0.01601
3083.58928,0.01569
3082.55901,0.01563
3081.52875,0.01563
3080.49848,0.01561
3079.46821,0.01563
3078.43795,0.01550
3077.40768,0.01507
3076.37741,0.01470
3075.34714,0.01459
3074.31688,0.01467
3073.28661,0.01481
3072.25634,0.01487
3071.22608,0.01500
3070.19581,0.01522
3069.16554,0.01503
3068.13528,0.01438
3067.10501,0.01368
3066.07474,0.01338
3065.04447,0.01343
3064.01421,0.01322
3062.98394,0.01295
3061.95367,0.01311
3060.92341,0.01340
3059.89314,0.01341
3058.86287,0.01325
3057.83261,0.01320
3056.80234,0.01318
3055.77207,0.01299
3054.74180,0.01297
3053.71154,0.01324
3052.68127,0.01352
3051.65100,0.01358
3050.62074,0.01315
3049.59047,0.01259
3048.56020,0.01253
3047.52993,0.01257
3046.49967,0.01230
3045.46940,0.01216
3044.43913,0.01220
3043.40887,0.01201
3042.37860,0.01172
3041.34833,0.01174
3040.31807,0.01208
3039.28780,0.01215
3038.25753,0.01168
3037.22726,0.01130
3036.19700,0.01128
3035.16673,0.01140
3034.13646,0.01160
3033.10620,0.01178
3032.07593,0.01178
3031.04566,0.01160
3030.01539,0.01144
3028.98513,0.01142
3027.95486,0.01152
3026.92459,0.01163
3025.89433,0.01154
3024.86406,0.01143
3023.83379,0.01137
3022.80353,0.01131
3021.77326,0.01135
3020.74299,0.01142
3019.71272,0.01127
3018.68246,0.01085
3017.65219,0.01063
3016.62192,0.01084
3015.59166,0.01118
3014.56139,0.01145
3013.53112,0.01179
3012.50085,0.01209
3011.47059,0.01198
3010.44032,0.01175
3009.41005,0.01185
3008.37979,0.01208
3007.34952,0.01206
3006.31925,0.01187
3005.28899,0.01178
3004.25872,0.01168
3003.22845,0.01161
3002.19818,0.01186
3001.16792,0.01226
3000.13765,0.01263
2999.10738,0.01277
2998.07712,0.01251
2997.04685,0.01238
2996.01658,0.01270
2994.98631,0.01300
2993.95605,0.01332
2992.92578,0.01387
2991.89551,0.01454
2990.86525,0.01500
2989.83498,0.01509
2988.80471,0.01534
2987.77445,0.01589
2986.74418,0.01638
2985.71391,0.01696
2984.68364,0.01778
2983.65338,0.01858
2982.62311,0.01935
2981.59284,0.02034
2980.56258,0.02160
2979.53231,0.02285
2978.50204,0.02404
2977.47178,0.02538
2976.44151,0.02661
2975.41124,0.02767
2974.38097,0.02878
2973.35071,0.02997
2972.32044,0.03137
2971.29017,0.03303
2970.25991,0.03478
2969.22964,0.03661
2968.19937,0.03848
2967.16910,0.04023
2966.13884,0.04174
2965.10857,0.04324
2964.07830,0.04500
2963.04804,0.04696
2962.01777,0.04913
2960.98750,0.05153
2959.95724,0.05391
2958.92697,0.05566
2957.89670,0.05692
2956.86643,0.05867
2955.83617,0.06075
2954.80590,0.06217
2953.77563,0.06344
2952.74537,0.06529
2951.71510,0.06712
2950.68483,0.06853
2949.65456,0.06978
2948.62430,0.07099
2947.59403,0.07205
2946.56376,0.07313
2945.53350,0.07457
2944.50323,0.07595
2943.47296,0.07698
2942.44270,0.07786
2941.41243,0.07842
2940.38216,0.07878
2939.35189,0.07960
2938.32163,0.08087
2937.29136,0.08182
2936.26109,0.08228
2935.23083,0.08297
2934.20056,0.08393
2933.17029,0.08491
2932.14002,0.08622
2931.10976,0.08754
2930.07949,0.08876
2929.04922,0.09022
2928.01896,0.09163
2926.98869,0.09275
2925.95842,0.09363
2924.92816,0.09455
2923.89789,0.09590
2922.86762,0.09737
2921.83735,0.09862
2920.80709,0.09990
2919.77682,0.10129
2918.74655,0.10256
2917.71629,0.10393
2916.68602,0.10540
2915.65575,0.10660
2914.62549,0.10799
2913.59522,0.10956
2912.56495,0.11072
2911.53468,0.11165
2910.50442,0.11252
2909.47415,0.11332
2908.44388,0.11398
2907.41362,0.11456
2906.38335,0.11525
2905.35308,0.11592
2904.32281,0.11654
2903.29255,0.11715
2902.26228,0.11763
2901.23201,0.11806
2900.20175,0.11871
2899.17148,0.11964
2898.14121,0.12044
2897.11095,0.12113
2896.08068,0.12227
2895.05041,0.12353
2894.02014,0.12447
2892.98988,0.12532
2891.95961,0.12622
2890.92934,0.12709
2889.89908,0.12812
2888.86881,0.12971
2887.83854,0.13159
2886.80827,0.13314
2885.77801,0.13429
2884.74774,0.13566
2883.71747,0.13750
2882.68721,0.13928
2881.65694,0.14061
2880.62667,0.14192
2879.59641,0.14366
2878.56614,0.14543
2877.53587,0.14689
2876.50560,0.14818
2875.47534,0.14913
2874.44507,0.14989
2873.41480,0.15093
2872.38454,0.15210
2871.35427,0.15302
2870.32400,0.15341
2869.29373,0.15315
2868.26347,0.15253
2867.23320,0.15169
2866.20293,0.15043
2865.17267,0.14874
2864.14240,0.14674
2863.11213,0.14443
2862.08187,0.14167
2861.05160,0.13856
2860.02133,0.13548
2858.99106,0.13242
2857.96080,0.12916
2856.93053,0.12571
2855.90026,0.12211
2854.87000,0.11836
2853.83973,0.11462
2852.80946,0.11080
2851.77919,0.10678
2850.74893,0.10296
2849.71866,0.09940
2848.68839,0.09606
2847.65813,0.09293
2846.62786,0.08977
2845.59759,0.08662
2844.56733,0.08352
2843.53706,0.08030
2842.50679,0.07718
2841.47652,0.07444
2840.44626,0.07196
2839.41599,0.06957
2838.38572,0.06732
2837.35546,0.06526
2836.32519,0.06336
2835.29492,0.06149
2834.26466,0.05976
2833.23439,0.05842
2832.20412,0.05720
2831.17385,0.05577
2830.14359,0.05433
2829.11332,0.05316
2828.08305,0.05216
2827.05279,0.05127
2826.02252,0.05034
2824.99225,0.04929
2823.96198,0.04839
2822.93172,0.04759
2821.90145,0.04663
2820.87118,0.04564
2819.84092,0.04480
2818.81065,0.04413
2817.78038,0.04345
2816.75012,0.04261
2815.71985,0.04171
2814.68958,0.04086
2813.65931,0.04011
2812.62905,0.03945
2811.59878,0.03879
2810.56851,0.03814
2809.53825,0.03760
2808.50798,0.03695
2807.47771,0.03606
2806.44744,0.03517
2805.41718,0.03445
2804.38691,0.03389
2803.35664,0.03332
2802.32638,0.03249
2801.29611,0.03163
2800.26584,0.03103
2799.23558,0.03058
2798.20531,0.03007
2797.17504,0.02928
2796.14477,0.02844
2795.11451,0.02808
2794.08424,0.02801
2793.05397,0.02775
2792.02371,0.02719
2790.99344,0.02646
2789.96317,0.02556
2788.93290,0.02458
2787.90264,0.02408
2786.87237,0.02408
2785.84210,0.02393
2784.81184,0.02343
2783.78157,0.02285
2782.75130,0.02261
2781.72104,0.02267
2780.69077,0.02245
2779.66050,0.02172
2778.63023,0.02095
2777.59997,0.02061
2776.56970,0.02053
2775.53943,0.02050
2774.50917,0.02044
2773.47890,0.02019
2772.44863,0.01977
2771.41837,0.01929
2770.38810,0.01881
2769.35783,0.01847
2768.32756,0.01834
2767.29730,0.01836
2766.26703,0.01832
2765.23676,0.01808
2764.20650,0.01784
2763.17623,0.01766
2762.14596,0.01740
2761.11569,0.01698
2760.08543,0.01660
2759.05516,0.01665
2758.02489,0.01708
2756.99463,0.01745
2755.96436,0.01749
2754.93409,0.01728
2753.90383,0.01697
2752.87356,0.01680
2751.84329,0.01688
2750.81302,0.01700
2749.78276,0.01699
2748.75249,0.01689
2747.72222,0.01685
2746.69196,0.01702
2745.66169,0.01722
2744.63142,0.01724
2743.60115,0.01714
2742.57089,0.01694
2741.54062,0.01654
2740.51035,0.01624
2739.48009,0.01626
2738.44982,0.01624
2737.41955,0.01601
2736.38929,0.01585
2735.35902,0.01594
2734.32875,0.01596
2733.29848,0.01564
2732.26822,0.01531
2731.23795,0.01519
2730.20768,0.01505
2729.17742,0.01469
2728.14715,0.01446
2727.11688,0.01475
2726.08661,0.01505
2725.05635,0.01485
2724.02608,0.01457
2722.99581,0.01434
2721.96555,0.01390
2720.93528,0.01354
2719.90501,0.01347
2718.87475,0.01352
2717.84448,0.01347
2716.81421,0.01331
2715.78394,0.01322
2714.75368,0.01335
2713.72341,0.01338
2712.69314,0.01294
2711.66288,0.01227
2710.63261,0.01172
2709.60234,0.01153
2708.57207,0.01171
2707.54181,0.01198
2706.51154,0.01212
2705.48127,0.01213
2704.45101,0.01190
2703.42074,0.01161
2702.39047,0.01143
2701.36021,0.01131
2700.32994,0.01121
2699.29967,0.01105
2698.26940,0.01096
2697.23914,0.01100
2696.20887,0.01081
2695.17860,0.01046
2694.14834,0.01030
2693.11807,0.01007
2692.08780,0.00963
2691.05754,0.00931
2690.02727,0.00921
2688.99700,0.00913
2687.96673,0.00888
2686.93647,0.00850
2685.90620,0.00806
2684.87593,0.00768
2683.84567,0.00755
2682.81540,0.00758
2681.78513,0.00765
2680.75486,0.00764
2679.72460,0.00747
2678.69433,0.00725
2677.66406,0.00700
2676.63380,0.00684
2675.60353,0.00688
2674.57326,0.00679
2673.54300,0.00642
2672.51273,0.00626
2671.48246,0.00638
2670.45219,0.00632
2669.42193,0.00611
2668.39166,0.00609
2667.36139,0.00615
2666.33113,0.00611
2665.30086,0.00616
2664.27059,0.00627
2663.24032,0.00621
2662.21006,0.00605
2661.17979,0.00595
2660.14952,0.00586
2659.11926,0.00573
2658.08899,0.00557
2657.05872,0.00538
2656.02846,0.00519
2654.99819,0.00518
2653.96792,0.00546
2652.93765,0.00568
2651.90739,0.00546
2650.87712,0.00489
2649.84685,0.00446
2648.81659,0.00442
2647.78632,0.00455
2646.75605,0.00465
2645.72578,0.00482
2644.69552,0.00502
2643.66525,0.00516
2642.63498,0.00528
2641.60472,0.00536
2640.57445,0.00538
2639.54418,0.00531
2638.51392,0.00513
2637.48365,0.00487
2636.45338,0.00470
2635.42311,0.00483
2634.39285,0.00512
2633.36258,0.00512
2632.33231,0.00473
2631.30205,0.00456
2630.27178,0.00489
2629.24151,0.00493
2628.21125,0.00460
2627.18098,0.00452
2626.15071,0.00467
2625.12044,0.00457
2624.09018,0.00421
2623.05991,0.00406
2622.02964,0.00417
2620.99938,0.00431
2619.96911,0.00436
2618.93884,0.00442
2617.90857,0.00452
2616.87831,0.00455
2615.84804,0.00461
2614.81777,0.00482
2613.78751,0.00478
2612.75724,0.00434
2611.72697,0.00430
2610.69671,0.00463
2609.66644,0.00460
2608.63617,0.00433
2607.60590,0.00400
2606.57564,0.00361
2605.54537,0.00337
2604.51510,0.00334
2603.48484,0.00328
2602.45457,0.00318
2601.42430,0.00325
2600.39403,0.00332
2599.36377,0.00311
2598.33350,0.00295
2597.30323,0.00320
2596.27297,0.00362
2595.24270,0.00398
2594.21243,0.00421
2593.18217,0.00428
2592.15190,0.00407
2591.12163,0.00360
2590.09136,0.00340
2589.06110,0.00370
2588.03083,0.00393
2587.00056,0.00397
2585.97030,0.00414
2584.94003,0.00423
2583.90976,0.00413
2582.87949,0.00401
2581.84923,0.00392
2580.81896,0.00387
2579.78869,0.00377
2578.75843,0.00364
2577.72816,0.00364
2576.69789,0.00381
2575.66763,0.00385
2574.63736,0.00346
2573.60709,0.00297
2572.57682,0.00308
2571.54656,0.00363
2570.51629,0.00374
2569.48602,0.00343
2568.45576,0.00335
2567.42549,0.00362
2566.39522,0.00387
2565.36496,0.00375
2564.33469,0.00332
2563.30442,0.00282
2562.27415,0.00242
2561.24389,0.00237
2560.21362,0.00276
2559.18335,0.00326
2558.15309,0.00362
2557.12282,0.00363
2556.09255,0.00318
2555.06228,0.00296
2554.03202,0.00317
2553.00175,0.00321
2551.97148,0.00300
2550.94122,0.00297
2549.91095,0.00329
2548.88068,0.00355
2547.85042,0.00359
2546.82015,0.00354
2545.78988,0.00333
2544.75961,0.00290
2543.72935,0.00242
2542.69908,0.00245
2541.66881,0.00302
2540.63855,0.00324
2539.60828,0.00295
2538.57801,0.00291
2537.54774,0.00354
2536.51748,0.00424
2535.48721,0.00431
2534.45694,0.00399
2533.42668,0.00386
2532.39641,0.00381
2531.36614,0.00354
2530.33588,0.00322
2529.30561,0.00307
2528.27534,0.00320
2527.24507,0.00346
2526.21481,0.00366
2525.18454,0.00373
2524.15427,0.00378
2523.12401,0.00396
2522.09374,0.00400
2521.06347,0.00384
2520.03320,0.00372
2519.00294,0.00358
2517.97267,0.00341
2516.94240,0.00347
2515.91214,0.00364
2514.88187,0.00330
2513.85160,0.00263
2512.82134,0.00231
2511.79107,0.00239
2510.76080,0.00266
2509.73053,0.00286
2508.70027,0.00318
2507.67000,0.00361
2506.63973,0.00359
2505.60947,0.00339
2504.57920,0.00339
2503.54893,0.00337
2502.51866,0.00313
2501.48840,0.00265
2500.45813,0.00238
2499.42786,0.00264
2498.39760,0.00296
2497.36733,0.00300
2496.33706,0.00285
2495.30680,0.00260
2494.27653,0.00281
2493.24626,0.00347
2492.21599,0.00393
2491.18573,0.00379
2490.15546,0.00289
2489.12519,0.00200
2488.09493,0.00185
2487.06466,0.00206
2486.03439,0.00242
2485.00413,0.00283
2483.97386,0.00303
2482.94359,0.00322
2481.91332,0.00340
2480.88306,0.00311
2479.85279,0.00277
2478.82252,0.00287
2477.79226,0.00292
2476.76199,0.00306
2475.73172,0.00365
2474.70145,0.00416
2473.67119,0.00424
2472.64092,0.00423
2471.61065,0.00420
2470.58039,0.00398
2469.55012,0.00362
2468.51985,0.00319
2467.48959,0.00288
2466.45932,0.00269
2465.42905,0.00246
2464.39878,0.00218
2463.36852,0.00197
2462.33825,0.00211
2461.30798,0.00240
2460.27772,0.00259
2459.24745,0.00281
2458.21718,0.00299
2457.18691,0.00288
2456.15665,0.00284
2455.12638,0.00309
2454.09611,0.00315
2453.06585,0.00292
2452.03558,0.00298
2451.00531,0.00330
2449.97505,0.00346
2448.94478,0.00346
2447.91451,0.00340
2446.88424,0.00347
2445.85398,0.00344
2444.82371,0.00317
2443.79344,0.00298
2442.76318,0.00279
2441.73291,0.00287
2440.70264,0.00344
2439.67237,0.00376
2438.64211,0.00355
2437.61184,0.00353
2436.58157,0.00366
2435.55131,0.00346
2434.52104,0.00335
2433.49077,0.00353
2432.46051,0.00384
2431.43024,0.00403
2430.39997,0.00382
2429.36970,0.00348
2428.33944,0.00341
2427.30917,0.00339
2426.27890,0.00323
2425.24864,0.00285
2424.21837,0.00234
2423.18810,0.00229
2422.15784,0.00269
2421.12757,0.00326
2420.09730,0.00399
2419.06703,0.00412
2418.03677,0.00350
2417.00650,0.00305
2415.97623,0.00300
2414.94597,0.00310
2413.91570,0.00338
2412.88543,0.00337
2411.85516,0.00251
2410.82490,0.00155
2409.79463,0.00163
2408.76436,0.00266
2407.73410,0.00373
2406.70383,0.00409
2405.67356,0.00366
2404.64330,0.00313
2403.61303,0.00301
2402.58276,0.00310
2401.55249,0.00317
2400.52223,0.00320
2399.49196,0.00315
2398.46169,0.00317
2397.43143,0.00328
2396.40116,0.00321
2395.37089,0.00328
2394.34062,0.00381
2393.31036,0.00406
2392.28009,0.00361
2391.24982,0.00301
2390.21956,0.00287
2389.18929,0.00308
2388.15902,0.00323
2387.12876,0.00346
2386.09849,0.00381
2385.06822,0.00380
2384.03795,0.00365
2383.00769,0.00389
2381.97742,0.00426
2380.94715,0.00424
2379.91689,0.00388
2378.88662,0.00352
2377.85635,0.00349
2376.82608,0.00383
2375.79582,0.00423
2374.76555,0.00439
2373.73528,0.00475
2372.70502,0.00557
2371.67475,0.00601
2370.64448,0.00579
2369.61422,0.00531
2368.58395,0.00491
2367.55368,0.00522
2366.52341,0.00589
2365.49315,0.00637
2364.46288,0.00732
2363.43261,0.00804
2362.40235,0.00691
2361.37208,0.00577
2360.34181,0.00637
2359.31154,0.00657
2358.28128,0.00557
2357.25101,0.00499
2356.22074,0.00478
2355.19048,0.00484
2354.16021,0.00519
2353.12994,0.00491
2352.09968,0.00467
2351.06941,0.00497
2350.03914,0.00486
2349.00887,0.00432
2347.97861,0.00412
2346.94834,0.00442
2345.91807,0.00474
2344.88781,0.00504
2343.85754,0.00565
2342.82727,0.00625
2341.79701,0.00643
2340.76674,0.00674
2339.73647,0.00679
2338.70620,0.00574
2337.67594,0.00459
2336.64567,0.00434
2335.61540,0.00474
2334.58514,0.00492
2333.55487,0.00470
2332.52460,0.00468
2331.49433,0.00506
2330.46407,0.00511
2329.43380,0.00480
2328.40353,0.00455
2327.37327,0.00446
2326.34300,0.00463
2325.31273,0.00480
2324.28247,0.00471
2323.25220,0.00470
2322.22193,0.00485
2321.19166,0.00478
2320.16140,0.00464
2319.13113,0.00492
2318.10086,0.00521
2317.07060,0.00512
2316.04033,0.00477
2315.01006,0.00428
2313.97979,0.00369
2312.94953,0.00312
2311.91926,0.00292
2310.88899,0.00295
2309.85873,0.00290
2308.82846,0.00330
2307.79819,0.00409
2306.76793,0.00435
2305.73766,0.00381
2304.70739,0.00323
2303.67712,0.00345
2302.64686,0.00450
2301.61659,0.00536
2300.58632,0.00503
2299.55606,0.00413
2298.52579,0.00371
2297.49552,0.00353
2296.46525,0.00321
2295.43499,0.00279
2294.40472,0.00221
2293.37445,0.00209
2292.34419,0.00283
2291.31392,0.00366
2290.28365,0.00443
2289.25339,0.00504
2288.22312,0.00469
2287.19285,0.00344
2286.16258,0.00224
2285.13232,0.00210
2284.10205,0.00289
2283.07178,0.00348
2282.04152,0.00344
2281.01125,0.00342
2279.98098,0.00350
2278.95072,0.00317
2277.92045,0.00306
2276.89018,0.00324
2275.85991,0.00278
2274.82965,0.00186
2273.79938,0.00127
2272.76911,0.00120
2271.73885,0.00159
2270.70858,0.00216
2269.67831,0.00238
2268.64804,0.00205
2267.61778,0.00158
2266.58751,0.00134
2265.55724,0.00153
2264.52698,0.00265
2263.49671,0.00378
2262.46644,0.00353
2261.43618,0.00273
2260.40591,0.00228
2259.37564,0.00183
2258.34537,0.00203
2257.31511,0.00340
2256.28484,0.00406
2255.25457,0.00362
2254.22431,0.00367
2253.19404,0.00386
2252.16377,0.00343
2251.13350,0.00294
2250.10324,0.00313
2249.07297,0.00350
2248.04270,0.00282
2247.01244,0.00172
2245.98217,0.00161
2244.95190,0.00166
2243.92164,0.00123
2242.89137,0.00120
2241.86110,0.00155
2240.83083,0.00164
2239.80057,0.00118
2238.77030,0.00047
2237.74003,0.00067
2236.70977,0.00183
2235.67950,0.00289
2234.64923,0.00384
2233.61896,0.00436
2232.58870,0.00379
2231.55843,0.00234
2230.52816,0.00085
2229.49790,0.00053
2228.46763,0.00170
2227.43736,0.00320
2226.40710,0.00404
2225.37683,0.00406
2224.34656,0.00328
2223.31629,0.00248
2222.28603,0.00243
2221.25576,0.00327
2220.22549,0.00439
2219.19523,0.00403
2218.16496,0.00241
2217.13469,0.00106
2216.10442,-0.00008
2215.07416,0.00006
2214.04389,0.00181
2213.01362,0.00251
2211.98336,0.00161
2210.95309,0.00057
2209.92282,0.00016
2208.89256,0.00073
2207.86229,0.00145
2206.83202,0.00211
2205.80175,0.00281
2204.77149,0.00198
2203.74122,0.00059
2202.71095,0.00096
2201.68069,0.00225
2200.65042,0.00323
2199.62015,0.00395
2198.58989,0.00429
2197.55962,0.00428
2196.52935,0.00415
2195.49908,0.00367
2194.46882,0.00303
2193.43855,0.00248
2192.40828,0.00191
2191.37802,0.00199
2190.34775,0.00238
2189.31748,0.00195
2188.28721,0.00147
2187.25695,0.00118
2186.22668,0.00019
2185.19641,-0.00050
2184.16615,-0.00026
2183.13588,0.00042
2182.10561,0.00050
2181.07535,-0.00091
2180.04508,-0.00201
2179.01481,-0.00121
2177.98454,0.00024
2176.95428,0.00113
2175.92401,0.00181
2174.89374,0.00233
2173.86348,0.00264
2172.83321,0.00286
2171.80294,0.00223
2170.77267,0.00169
2169.74241,0.00337
2168.71214,0.00544
2167.68187,0.00498
2166.65161,0.00298
2165.62134,0.00161
2164.59107,0.00162
2163.56081,0.00072
2162.53054,-0.00240
2161.50027,-0.00454
2160.47000,-0.00292
2159.43974,0.00098
2158.40947,0.00215
2157.37920,0.00030
2156.34894,0.00034
2155.31867,0.00203
2154.28840,0.00225
2153.25813,0.00216
2152.22787,0.00268
2151.19760,0.00282
2150.16733,0.00315
2149.13707,0.00408
2148.10680,0.00522
2147.07653,0.00578
2146.04627,0.00546
2145.01600,0.00480
2143.98573,0.00453
2142.95546,0.00427
2141.92520,0.00324
2140.89493,0.00319
2139.86466,0.00498
2138.83440,0.00611
2137.80413,0.00558
2136.77386,0.00499
2135.74360,0.00532
2134.71333,0.00592
2133.68306,0.00588
2132.65279,0.00529
2131.62253,0.00486
2130.59226,0.00507
2129.56199,0.00591
2128.53173,0.00607
2127.50146,0.00492
2126.47119,0.00357
2125.44092,0.00332
2124.41066,0.00490
2123.38039,0.00648
2122.35012,0.00631
2121.31986,0.00606
2120.28959,0.00658
2119.25932,0.00677
2118.22906,0.00634
2117.19879,0.00562
2116.16852,0.00514
2115.13825,0.00559
2114.10799,0.00697
2113.07772,0.00806
2112.04745,0.00779
2111.01719,0.00676
2109.98692,0.00592
2108.95665,0.00557
2107.92638,0.00598
2106.89612,0.00647
2105.86585,0.00571
2104.83558,0.00425
2103.80532,0.00392
2102.77505,0.00467
2101.74478,0.00533
2100.71452,0.00547
2099.68425,0.00546
2098.65398,0.00586
2097.62371,0.00650
2096.59345,0.00706
2095.56318,0.00758
2094.53291,0.00742
2093.50265,0.00607
2092.47238,0.00488
2091.44211,0.00499
2090.41184,0.00597
2089.38158,0.00679
2088.35131,0.00699
2087.32104,0.00693
2086.29078,0.00681
2085.26051,0.00629
2084.23024,0.00531
2083.19998,0.00488
2082.16971,0.00532
2081.13944,0.00607
2080.10917,0.00654
2079.07891,0.00594
2078.04864,0.00520
2077.01837,0.00574
2075.98811,0.00689
2074.95784,0.00697
2073.92757,0.00624
2072.89731,0.00609
2071.86704,0.00605
2070.83677,0.00564
2069.80650,0.00556
2068.77624,0.00571
2067.74597,0.00470
2066.71570,0.00297
2065.68544,0.00320
2064.65517,0.00532
2063.62490,0.00639
2062.59463,0.00545
2061.56437,0.00385
2060.53410,0.00299
2059.50383,0.00389
2058.47357,0.00590
2057.44330,0.00679
2056.41303,0.00592
2055.38277,0.00436
2054.35250,0.00341
2053.32223,0.00365
2052.29196,0.00425
2051.26170,0.00415
2050.23143,0.00338
2049.20116,0.00271
2048.17090,0.00321
2047.14063,0.00404
2046.11036,0.00368
2045.08009,0.00360
2044.04983,0.00442
2043.01956,0.00565
2041.98929,0.00710
2040.95903,0.00752
2039.92876,0.00690
2038.89849,0.00661
2037.86823,0.00614
2036.83796,0.00495
2035.80769,0.00392
2034.77742,0.00404
2033.74716,0.00522
2032.71689,0.00536
2031.68662,0.00418
2030.65636,0.00398
2029.62609,0.00521
2028.59582,0.00564
2027.56555,0.00444
2026.53529,0.00346
2025.50502,0.00381
2024.47475,0.00387
2023.44449,0.00249
2022.41422,0.00267
2021.38395,0.00532
2020.35369,0.00682
2019.32342,0.00597
2018.29315,0.00433
2017.26288,0.00328
2016.23262,0.00328
2015.20235,0.00397
2014.17208,0.00541
2013.14182,0.00619
2012.11155,0.00504
2011.08128,0.00367
2010.05101,0.00296
2009.02075,0.00235
2007.99048,0.00273
2006.96021,0.00424
2005.92995,0.00475
2004.89968,0.00387
2003.86941,0.00403
2002.83915,0.00607
2001.80888,0.00688
2000.77861,0.00546
1999.74834,0.00493
1998.71808,0.00606
1997.68781,0.00740
1996.65754,0.00794
1995.62728,0.00695
1994.59701,0.00565
1993.56674,0.00537
1992.53648,0.00481
1991.50621,0.00324
1990.47594,0.00275
1989.44567,0.00449
1988.41541,0.00718
1987.38514,0.00924
1986.35487,0.00967
1985.32461,0.00865
1984.29434,0.00712
1983.26407,0.00575
1982.23380,0.00488
1981.20354,0.00449
1980.17327,0.00559
1979.14300,0.00731
1978.11274,0.00661
1977.08247,0.00479
1976.05220,0.00564
1975.02194,0.00748
1973.99167,0.00726
1972.96140,0.00572
1971.93113,0.00512
1970.90087,0.00674
1969.87060,0.00771
1968.84033,0.00673
1967.81007,0.00677
1966.77980,0.00775
1965.74953,0.00799
1964.71926,0.00763
1963.68900,0.00652
1962.65873,0.00602
1961.62846,0.00718
1960.59820,0.00805
1959.56793,0.00807
1958.53766,0.00819
1957.50740,0.00893
1956.47713,0.00965
1955.44686,0.00874
1954.41659,0.00745
1953.38633,0.00782
1952.35606,0.00804
1951.32579,0.00711
1950.29553,0.00704
1949.26526,0.00815
1948.23499,0.00860
1947.20472,0.00791
1946.17446,0.00755
1945.14419,0.00728
1944.11392,0.00636
1943.08366,0.00582
1942.05339,0.00593
1941.02312,0.00587
1939.99286,0.00524
1938.96259,0.00452
1937.93232,0.00454
1936.90205,0.00508
1935.87179,0.00557
1934.84152,0.00652
1933.81125,0.00812
1932.78099,0.00855
1931.75072,0.00744
1930.72045,0.00658
1929.69019,0.00639
1928.65992,0.00638
1927.62965,0.00672
1926.59938,0.00725
1925.56912,0.00723
1924.53885,0.00661
1923.50858,0.00550
1922.47832,0.00454
1921.44805,0.00445
1920.41778,0.00459
1919.38751,0.00494
1918.35725,0.00513
1917.32698,0.00496
1916.29671,0.00544
1915.26645,0.00574
1914.23618,0.00512
1913.20591,0.00472
1912.17565,0.00494
1911.14538,0.00486
1910.11511,0.00423
1909.08484,0.00398
1908.05458,0.00453
1907.02431,0.00487
1905.99404,0.00442
1904.96378,0.00408
1903.93351,0.00449
1902.90324,0.00476
1901.87297,0.00439
1900.84271,0.00419
1899.81244,0.00418
1898.78217,0.00406
1897.75191,0.00438
1896.72164,0.00484
1895.69137,0.00463
1894.66111,0.00411
1893.63084,0.00402
1892.60057,0.00414
1891.57030,0.00417
1890.54004,0.00414
1889.50977,0.00428
1888.47950,0.00477
1887.44924,0.00520
1886.41897,0.00504
1885.38870,0.00441
1884.35843,0.00391
1883.32817,0.00380
1882.29790,0.00362
1881.26763,0.00333
1880.23737,0.00348
1879.20710,0.00381
1878.17683,0.00371
1877.14657,0.00342
1876.11630,0.00316
1875.08603,0.00299
1874.05576,0.00328
1873.02550,0.00373
1871.99523,0.00357
1870.96496,0.00279
1869.93470,0.00188
1868.90443,0.00179
1867.87416,0.00286
1866.84389,0.00369
1865.81363,0.00387
1864.78336,0.00396
1863.75309,0.00389
1862.72283,0.00374
1861.69256,0.00375
1860.66229,0.00370
1859.63203,0.00361
1858.60176,0.00358
1857.57149,0.00341
1856.54122,0.00309
1855.51096,0.00296
1854.48069,0.00324
1853.45042,0.00368
1852.42016,0.00395
1851.38989,0.00372
1850.35962,0.00307
1849.32936,0.00290
1848.29909,0.00331
1847.26882,0.00350
1846.23855,0.00356
1845.20829,0.00413
1844.17802,0.00490
1843.14775,0.00452
1842.11749,0.00350
1841.08722,0.00292
1840.05695,0.00311
1839.02668,0.00380
1837.99642,0.00431
1836.96615,0.00420
1835.93588,0.00366
1834.90562,0.00332
1833.87535,0.00344
1832.84508,0.00374
1831.81482,0.00394
1830.78455,0.00407
1829.75428,0.00406
1828.72401,0.00408
1827.69375,0.00450
1826.66348,0.00504
1825.63321,0.00508
1824.60295,0.00448
1823.57268,0.00405
1822.54241,0.00420
1821.51214,0.00456
1820.48188,0.00424
1819.45161,0.00344
1818.42134,0.00316
1817.39108,0.00351
1816.36081,0.00401
1815.33054,0.00433
1814.30028,0.00441
1813.27001,0.00447
1812.23974,0.00474
1811.20947,0.00515
1810.17921,0.00515
1809.14894,0.00494
1808.11867,0.00502
1807.08841,0.00484
1806.05814,0.00441
1805.02787,0.00446
1803.99760,0.00484
1802.96734,0.00521
1801.93707,0.00539
1800.90680,0.00519
1799.87654,0.00487
1798.84627,0.00458
1797.81600,0.00450
1796.78574,0.00483
1795.75547,0.00512
1794.72520,0.00523
1793.69493,0.00541
1792.66467,0.00568
1791.63440,0.00590
1790.60413,0.00580
1789.57387,0.00562
1788.54360,0.00546
1787.51333,0.00533
1786.48307,0.00536
1785.45280,0.00553
1784.42253,0.00564
1783.39226,0.00560
1782.36200,0.00566
1781.33173,0.00601
1780.30146,0.00623
1779.27120,0.00612
1778.24093,0.00585
1777.21066,0.00553
1776.18039,0.00562
1775.15013,0.00599
1774.11986,0.00608
1773.08959,0.00602
1772.05933,0.00624
1771.02906,0.00651
1769.99879,0.00655
1768.96853,0.00657
1767.93826,0.00662
1766.90799,0.00649
1765.87772,0.00639
1764.84746,0.00654
1763.81719,0.00677
1762.78692,0.00688
1761.75666,0.00688
1760.72639,0.00684
1759.69612,0.00679
1758.66585,0.00682
1757.63559,0.00679
1756.60532,0.00663
1755.57505,0.00667
1754.54479,0.00698
1753.51452,0.00740
1752.48425,0.00771
1751.45399,0.00768
1750.42372,0.00764
1749.39345,0.00804
1748.36318,0.00839
1747.33292,0.00817
1746.30265,0.00792
1745.27238,0.00808
1744.24212,0.00829
1743.21185,0.00820
1742.18158,0.00821
1741.15131,0.00864
1740.12105,0.00913
1739.09078,0.00903
1738.06051,0.00880
1737.03025,0.00883
1735.99998,0.00892
1734.96971,0.00900
1733.93945,0.00898
1732.90918,0.00893
1731.87891,0.00919
1730.84864,0.00965
1729.81838,0.01005
1728.78811,0.00992
1727.75784,0.00945
1726.72758,0.00931
1725.69731,0.00967
1724.66704,0.01024
1723.63677,0.01055
1722.60651,0.01047
1721.57624,0.01054
1720.54597,0.01097
1719.51571,0.01159
1718.48544,0.01202
1717.45517,0.01182
1716.42491,0.01172
1715.39464,0.01205
1714.36437,0.01232
1713.33410,0.01262
1712.30384,0.01300
1711.27357,0.01331
1710.24330,0.01358
1709.21304,0.01388
1708.18277,0.01431
1707.15250,0.01468
1706.12224,0.01487
1705.09197,0.01537
1704.06170,0.01603
1703.03143,0.01642
1702.00117,0.01675
1700.97090,0.01716
1699.94063,0.01782
1698.91037,0.01839
1697.88010,0.01872
1696.84983,0.01914
1695.81956,0.01998
1694.78930,0.02042
1693.75903,0.02052
1692.72876,0.02097
1691.69850,0.02177
1690.66823,0.02274
1689.63796,0.02375
1688.60770,0.02472
1687.57743,0.02573
1686.54716,0.02675
1685.51689,0.02783
1684.48663,0.02953
1683.45636,0.03146
1682.42609,0.03208
1681.39583,0.03247
1680.36556,0.03346
1679.33529,0.03481
1678.30502,0.03581
1677.27476,0.03674
1676.24449,0.03800
1675.21422,0.03977
1674.18396,0.04150
1673.15369,0.04306
1672.12342,0.04490
1671.09316,0.04663
1670.06289,0.04783
1669.03262,0.04933
1668.00235,0.05108
1666.97209,0.05240
1665.94182,0.05379
1664.91155,0.05543
1663.88129,0.05711
1662.85102,0.05888
1661.82075,0.06091
1660.79048,0.06280
1659.76022,0.06432
1658.72995,0.06559
1657.69968,0.06696
1656.66942,0.06849
1655.63915,0.07032
1654.60888,0.07262
1653.57862,0.07493
1652.54835,0.07564
1651.51808,0.07571
1650.48781,0.07588
1649.45755,0.07609
1648.42728,0.07670
1647.39701,0.07757
1646.36675,0.07729
1645.33648,0.07595
1644.30621,0.07547
1643.27595,0.07559
1642.24568,0.07550
1641.21541,0.07505
1640.18514,0.07435
1639.15488,0.07367
1638.12461,0.07340
1637.09434,0.07330
1636.06408,0.07246
1635.03381,0.07021
1634.00354,0.06847
1632.97327,0.06768
1631.94301,0.06701
1630.91274,0.06611
1629.88247,0.06488
1628.85221,0.06340
1627.82194,0.06143
1626.79167,0.05949
1625.76141,0.05815
1624.73114,0.05704
1623.70087,0.05543
1622.67060,0.05303
1621.64034,0.05104
1620.61007,0.04940
1619.57980,0.04791
1618.54954,0.04683
1617.51927,0.04573
1616.48900,0.04351
1615.45873,0.04141
1614.42847,0.04000
1613.39820,0.03849
1612.36793,0.03704
1611.33767,0.03587
1610.30740,0.03467
1609.27713,0.03327
1608.24687,0.03204
1607.21660,0.03097
1606.18633,0.02984
1605.15606,0.02884
1604.12580,0.02805
1603.09553,0.02728
1602.06526,0.02657
1601.03500,0.02570
1600.00473,0.02468
1598.97446,0.02394
1597.94419,0.02350
1596.91393,0.02302
1595.88366,0.02229
1594.85339,0.02156
1593.82313,0.02108
1592.79286,0.02087
1591.76259,0.02058
1590.73233,0.02011
1589.70206,0.01989
1588.67179,0.01998
1587.64152,0.01987
1586.61126,0.01957
1585.58099,0.01918
1584.55072,0.01873
1583.52046,0.01837
1582.49019,0.01808
1581.45992,0.01793
1580.42966,0.01790
1579.39939,0.01780
1578.36912,0.01775
1577.33885,0.01809
1576.30859,0.01849
1575.27832,0.01823
1574.24805,0.01794
1573.21779,0.01770
1572.18752,0.01743
1571.15725,0.01757
1570.12698,0.01818
1569.09672,0.01832
1568.06645,0.01798
1567.03618,0.01789
1566.00592,0.01798
1564.97565,0.01805
1563.94538,0.01811
1562.91512,0.01838
1561.88485,0.01883
1560.85458,0.01935
1559.82431,0.01972
1558.79405,0.01982
1557.76378,0.01944
1556.73351,0.01891
1555.70325,0.01877
1554.67298,0.01901
1553.64271,0.01933
1552.61244,0.01950
1551.58218,0.01970
1550.55191,0.02008
1549.52164,0.02048
1548.49138,0.02050
1547.46111,0.02032
1546.43084,0.02036
1545.40058,0.02071
1544.37031,0.02107
1543.34004,0.02118
1542.30977,0.02122
1541.27951,0.02153
1540.24924,0.02200
1539.21897,0.02150
1538.18871,0.02019
1537.15844,0.01956
1536.12817,0.01958
1535.09790,0.01987
1534.06764,0.02001
1533.03737,0.01989
1532.00710,0.01953
1530.97684,0.01909
1529.94657,0.01906
1528.91630,0.01961
1527.88604,0.02021
1526.85577,0.02017
1525.82550,0.01970
1524.79523,0.01943
1523.76497,0.01950
1522.73470,0.01969
1521.70443,0.02001
1520.67417,0.01987
1519.64390,0.01921
1518.61363,0.01908
1517.58336,0.01931
1516.55310,0.01923
1515.52283,0.01902
1514.49256,0.01891
1513.46230,0.01885
1512.43203,0.01889
1511.40176,0.01904
1510.37150,0.01924
1509.34123,0.01954
1508.31096,0.02016
1507.28069,0.02081
1506.25043,0.02045
1505.22016,0.01985
1504.18989,0.01966
1503.15963,0.01975
1502.12936,0.01991
1501.09909,0.02008
1500.06883,0.02062
1499.03856,0.02150
1498.00829,0.02211
1496.97802,0.02272
1495.94776,0.02374
1494.91749,0.02466
1493.88722,0.02567
1492.85696,0.02702
1491.82669,0.02861
1490.79642,0.03055
1489.76615,0.03282
1488.73589,0.03443
1487.70562,0.03530
1486.67535,0.03591
1485.64509,0.03652
1484.61482,0.03718
1483.58455,0.03811
1482.55429,0.03973
1481.52402,0.04168
1480.49375,0.04349
1479.46348,0.04563
1478.43322,0.04842
1477.40295,0.05171
1476.37268,0.05579
1475.34242,0.05977
1474.31215,0.06289
1473.28188,0.06623
1472.25161,0.06931
1471.22135,0.07084
1470.19108,0.07145
1469.16081,0.07190
1468.13055,0.07230
1467.10028,0.07273
1466.07001,0.07340
1465.03975,0.07446
1464.00948,0.07525
1462.97921,0.07572
1461.94894,0.07641
1460.91868,0.07732
1459.88841,0.07847
1458.85814,0.07988
1457.82788,0.08148
1456.79761,0.08253
1455.76734,0.08241
1454.73707,0.08194
1453.70681,0.08163
1452.67654,0.08114
1451.64627,0.08002
1450.61601,0.07824
1449.58574,0.07623
1448.55547,0.07402
1447.52521,0.07120
1446.49494,0.06865
1445.46467,0.06673
1444.43440,0.06511
1443.40414,0.06351
1442.37387,0.06167
1441.34360,0.05961
1440.31334,0.05754
1439.28307,0.05546
1438.25280,0.05361
1437.22254,0.05137
1436.19227,0.04758
1435.16200,0.04472
1434.13173,0.04310
1433.10147,0.04169
1432.07120,0.04036
1431.04093,0.03934
1430.01067,0.03849
1428.98040,0.03758
1427.95013,0.03685
1426.91986,0.03631
1425.88960,0.03591
1424.85933,0.03572
1423.82906,0.03565
1422.79880,0.03551
1421.76853,0.03536
1420.73826,0.03539
1419.70800,0.03543
1418.67773,0.03537
1417.64746,0.03553
1416.61719,0.03558
1415.58693,0.03533
1414.55666,0.03513
1413.52639,0.03511
1412.49613,0.03511
1411.46586,0.03513
1410.43559,0.03528
1409.40532,0.03552
1408.37506,0.03579
1407.34479,0.03605
1406.31452,0.03642
1405.28426,0.03687
1404.25399,0.03685
1403.22372,0.03652
1402.19346,0.03641
1401.16319,0.03664
1400.13292,0.03718
1399.10265,0.03777
1398.07239,0.03793
1397.04212,0.03785
1396.01185,0.03792
1394.98159,0.03812
1393.95132,0.03823
1392.92105,0.03820
1391.89078,0.03816
1390.86052,0.03819
1389.83025,0.03832
1388.79998,0.03880
1387.76972,0.03951
1386.73945,0.03981
1385.70918,0.03970
1384.67892,0.03971
1383.64865,0.03992
1382.61838,0.04022
1381.58811,0.04059
1380.55785,0.04114
1379.52758,0.04196
1378.49731,0.04291
1377.46705,0.04374
1376.43678,0.04462
1375.40651,0.04558
1374.37624,0.04634
1373.34598,0.04694
1372.31571,0.04785
1371.28544,0.04920
1370.25518,0.05063
1369.22491,0.05205
1368.19464,0.05372
1367.16438,0.05552
1366.13411,0.05737
1365.10384,0.05943
1364.07357,0.06182
1363.04331,0.06460
1362.01304,0.06751
1360.98277,0.07073
1359.95251,0.07457
1358.92224,0.07873
1357.89197,0.08320
1356.86171,0.08801
1355.83144,0.09308
1354.80117,0.09840
1353.77090,0.10390
1352.74064,0.10950
1351.71037,0.11502
1350.68010,0.11989
1349.64984,0.12347
1348.61957,0.12511
1347.58930,0.12380
1346.55903,0.11872
1345.52877,0.10984
1344.49850,0.09813
1343.46823,0.08558
1342.43797,0.07469
1341.40770,0.06643
1340.37743,0.06032
1339.34717,0.05628
1338.31690,0.05404
1337.28663,0.05296
1336.25636,0.05277
1335.22610,0.05296
1334.19583,0.05339
1333.16556,0.05421
1332.13530,0.05526
1331.10503,0.05645
1330.07476,0.05771
1329.04449,0.05862
1328.01423,0.05903
1326.98396,0.05919
1325.95369,0.05888
1324.92343,0.05791
1323.89316,0.05662
1322.86289,0.05529
1321.83263,0.05387
1320.80236,0.05258
1319.77209,0.05184
1318.74182,0.05173
1317.71156,0.05216
1316.68129,0.05301
1315.65102,0.05415
1314.62076,0.05565
1313.59049,0.05755
1312.56022,0.05966
1311.52995,0.06190
1310.49969,0.06442
1309.46942,0.06741
1308.43915,0.07059
1307.40889,0.07355
1306.37862,0.07631
1305.34835,0.07894
1304.31809,0.08130
1303.28782,0.08324
1302.25755,0.08469
1301.22728,0.08575
1300.19702,0.08670
1299.16675,0.08750
1298.13648,0.08792
1297.10622,0.08795
1296.07595,0.08783
1295.04568,0.08763
1294.01542,0.08723
1292.98515,0.08689
1291.95488,0.08662
1290.92461,0.08626
1289.89435,0.08580
1288.86408,0.08529
1287.83381,0.08476
1286.80355,0.08420
1285.77328,0.08338
1284.74301,0.08229
1283.71274,0.08122
1282.68248,0.08015
1281.65221,0.07891
1280.62194,0.07743
1279.59168,0.07580
1278.56141,0.07410
1277.53114,0.07237
1276.50088,0.07069
1275.47061,0.06914
1274.44034,0.06780
1273.41007,0.06659
1272.37981,0.06537
1271.34954,0.06426
1270.31927,0.06362
1269.28901,0.06359
1268.25874,0.06382
1267.22847,0.06430
1266.19820,0.06544
1265.16794,0.06683
1264.13767,0.06821
1263.10740,0.07014
1262.07714,0.07269
1261.04687,0.07537
1260.01660,0.07816
1258.98634,0.08133
1257.95607,0.08462
1256.92580,0.08759
1255.89553,0.09042
1254.86527,0.09345
1253.83500,0.09635
1252.80473,0.09862
1251.77447,0.10053
1250.74420,0.10219
1249.71393,0.10317
1248.68366,0.10330
1247.65340,0.10271
1246.62313,0.10154
1245.59286,0.09990
1244.56260,0.09773
1243.53233,0.09499
1242.50206,0.09187
1241.47180,0.08866
1240.44153,0.08550
1239.41126,0.08245
1238.38099,0.07937
1237.35073,0.07611
1236.32046,0.07282
1235.29019,0.06977
1234.25993,0.06701
1233.22966,0.06434
1232.19939,0.06158
1231.16912,0.05888
1230.13886,0.05653
1229.10859,0.05465
1228.07832,0.05312
1227.04806,0.05163
1226.01779,0.05013
1224.98752,0.04878
1223.95726,0.04752
1222.92699,0.04640
1221.89672,0.04555
1220.86645,0.04480
1219.83619,0.04404
1218.80592,0.04323
1217.77565,0.04235
1216.74539,0.04146
1215.71512,0.04050
1214.68485,0.03949
1213.65459,0.03856
1212.62432,0.03761
1211.59405,0.03685
1210.56378,0.03653
1209.53352,0.03646
1208.50325,0.03615
1207.47298,0.03544
1206.44272,0.03479
1205.41245,0.03444
1204.38218,0.03416
1203.35191,0.03386
1202.32165,0.03354
1201.29138,0.03332
1200.26111,0.03338
1199.23085,0.03359
1198.20058,0.03372
1197.17031,0.03368
1196.14005,0.03344
1195.10978,0.03322
1194.07951,0.03330
1193.04924,0.03361
1192.01898,0.03386
1190.98871,0.03394
1189.95844,0.03400
1188.92818,0.03406
1187.89791,0.03417
1186.86764,0.03448
1185.83737,0.03506
1184.80711,0.03579
1183.77684,0.03639
1182.74657,0.03679
1181.71631,0.03728
1180.68604,0.03783
1179.65577,0.03822
1178.62551,0.03872
1177.59524,0.03969
1176.56497,0.04108
1175.53470,0.04247
1174.50444,0.04355
1173.47417,0.04453
1172.44390,0.04593
1171.41364,0.04776
1170.38337,0.04947
1169.35310,0.05100
1168.32283,0.05285
1167.29257,0.05531
1166.26230,0.05836
1165.23203,0.06185
1164.20177,0.06577
1163.17150,0.07015
1162.14123,0.07494
1161.11097,0.08021
1160.08070,0.08611
1159.05043,0.09261
1158.02016,0.09972
1156.98990,0.10738
1155.95963,0.11552
1154.92936,0.12422
1153.89910,0.13312
1152.86883,0.14193
1151.83856,0.15090
1150.80830,0.16012
1149.77803,0.16927
1148.74776,0.17817
1147.71749,0.18692
1146.68723,0.19571
1145.65696,0.20435
1144.62669,0.21230
1143.59643,0.21944
1142.56616,0.22638
1141.53589,0.23341
1140.50562,0.24007
1139.47536,0.24589
1138.44509,0.25090
1137.41482,0.25570
1136.38456,0.26074
1135.35429,0.26578
1134.32402,0.27031
1133.29376,0.27422
1132.26349,0.27789
1131.23322,0.28190
1130.20295,0.28658
1129.17269,0.29143
1128.14242,0.29564
1127.11215,0.29966
1126.08189,0.30479
1125.05162,0.31125
1124.02135,0.31796
1122.99108,0.32413
1121.96082,0.32991
1120.93055,0.33584
1119.90028,0.34240
1118.87002,0.34934
1117.83975,0.35620
1116.80948,0.36305
1115.77922,0.37007
1114.74895,0.37732
1113.71868,0.38453
1112.68841,0.39143
1111.65815,0.39844
1110.62788,0.40574
1109.59761,0.41365
1108.56735,0.42266
1107.53708,0.43173
1106.50681,0.44004
1105.47654,0.44831
1104.44628,0.45677
1103.41601,0.46493
1102.38574,0.47265
1101.35548,0.48035
1100.32521,0.48848
1099.29494,0.49650
1098.26468,0.50400
1097.23441,0.51085
1096.20414,0.51692
1095.17387,0.52281
1094.14361,0.52865
1093.11334,0.53330
1092.08307,0.53631
1091.05281,0.53840
1090.02254,0.53965
1088.99227,0.54054
1087.96201,0.54151
1086.93174,0.54139
1085.90147,0.54001
1084.87120,0.53836
1083.84094,0.53615
1082.81067,0.53259
1081.78040,0.52796
1080.75014,0.52328
1079.71987,0.51927
1078.68960,0.51551
1077.65933,0.51076
1076.62907,0.50479
1075.59880,0.49890
1074.56853,0.49383
1073.53827,0.48926
1072.50800,0.48477
1071.47773,0.47971
1070.44747,0.47416
1069.41720,0.46896
1068.38693,0.46413
1067.35666,0.45883
1066.32640,0.45253
1065.29613,0.44587
1064.26586,0.43911
1063.23560,0.43121
1062.20533,0.42195
1061.17506,0.41182
1060.14479,0.40081
1059.11453,0.38882
1058.08426,0.37622
1057.05399,0.36332
1056.02373,0.35034
1054.99346,0.33778
1053.96319,0.32593
1052.93293,0.31498
1051.90266,0.30479
1050.87239,0.29499
1049.84212,0.28577
1048.81186,0.27788
1047.78159,0.27173
1046.75132,0.26683
1045.72106,0.26250
1044.69079,0.25893
1043.66052,0.25644
1042.63025,0.25492
1041.59999,0.25400
1040.56972,0.25328
1039.53945,0.25259
1038.50919,0.25230
1037.47892,0.25228
1036.44865,0.25168
1035.41839,0.25027
1034.38812,0.24829
1033.35785,0.24562
1032.32758,0.24231
1031.29732,0.23852
1030.26705,0.23398
1029.23678,0.22859
1028.20652,0.22286
1027.17625,0.21709
1026.14598,0.21075
1025.11571,0.20368
1024.08545,0.19681
1023.05518,0.19023
1022.02491,0.18325
1020.99465,0.17583
1019.96438,0.16854
1018.93411,0.16179
1017.90385,0.15548
1016.87358,0.14923
1015.84331,0.14314
1014.81304,0.13743
1013.78278,0.13220
1012.75251,0.12777
1011.72224,0.12420
1010.69198,0.12125
1009.66171,0.11831
1008.63144,0.11520
1007.60118,0.11284
1006.57091,0.11142
1005.54064,0.11023
1004.51037,0.10926
1003.48011,0.10836
1002.44984,0.10715
1001.41957,0.10622
1000.38931,0.10580
999.35904,0.10562
998.32877,0.10564
997.29850,0.10549
996.26824,0.10479
995.23797,0.10374
994.20770,0.10285
993.17744,0.10248
992.14717,0.10243
991.11690,0.10178
990.08664,0.10011
989.05637,0.09837
988.02610,0.09714
986.99583,0.09585
985.96557,0.09425
984.93530,0.09259
983.90503,0.09075
982.87477,0.08874
981.84450,0.08672
980.81423,0.08491
979.78396,0.08335
978.75370,0.08180
977.72343,0.08044
976.69316,0.07963
975.66290,0.07929
974.63263,0.07915
973.60236,0.07924
972.57210,0.07983
971.54183,0.08073
970.51156,0.08168
969.48129,0.08290
968.45103,0.08484
967.42076,0.08768
966.39049,0.09110
965.36023,0.09482
964.32996,0.09930
963.29969,0.10482
962.26942,0.11093
961.23916,0.11743
960.20889,0.12451
959.17862,0.13211
958.14836,0.14008
957.11809,0.14818
956.08782,0.15612
955.05756,0.16393
954.02729,0.17148
952.99702,0.17839
951.96675,0.18439
950.93649,0.18950
949.90622,0.19387
948.87595,0.19680
947.84569,0.19820
946.81542,0.19925
945.78515,0.20013
944.75489,0.20006
943.72462,0.19887
942.69435,0.19694
941.66408,0.19462
940.63382,0.19217
939.60355,0.18961
938.57328,0.18716
937.54302,0.18482
936.51275,0.18218
935.48248,0.17908
934.45221,0.17563
933.42195,0.17198
932.39168,0.16818
931.36141,0.16456
930.33115,0.16145
929.30088,0.15846
928.27061,0.15533
927.24035,0.15213
926.21008,0.14912
925.17981,0.14649
924.14954,0.14377
923.11928,0.14077
922.08901,0.13800
921.05874,0.13584
920.02848,0.13407
918.99821,0.13186
917.96794,0.12927
916.93767,0.12694
915.90741,0.12473
914.87714,0.12247
913.84687,0.12013
912.81661,0.11777
911.78634,0.11553
910.75607,0.11320
909.72581,0.11039
908.69554,0.10724
907.66527,0.10457
906.63500,0.10273
905.60474,0.10105
904.57447,0.09888
903.54420,0.09656
902.51394,0.09473
901.48367,0.09373
900.45340,0.09351
899.42313,0.09340
898.39287,0.09319
897.36260,0.09351
896.33233,0.09437
895.30207,0.09559
894.27180,0.09743
893.24153,0.09975
892.21127,0.10221
891.18100,0.10492
890.15073,0.10785
889.12046,0.11054
888.09020,0.11284
887.05993,0.11502
886.02966,0.11693
884.99940,0.11795
883.96913,0.11766
882.93886,0.11672
881.90859,0.11557
880.87833,0.11388
879.84806,0.11191
878.81779,0.10996
877.78753,0.10789
876.75726,0.10613
875.72699,0.10516
874.69673,0.10485
873.66646,0.10516
872.63619,0.10591
871.60592,0.10662
870.57566,0.10716
869.54539,0.10777
868.51512,0.10877
867.48486,0.11011
866.45459,0.11146
865.42432,0.11303
864.39406,0.11485
863.36379,0.11607
862.33352,0.11664
861.30325,0.11738
860.27299,0.11874
859.24272,0.12036
858.21245,0.12191
857.18219,0.12330
856.15192,0.12463
855.12165,0.12635
854.09138,0.12867
853.06112,0.13121
852.03085,0.13332
851.00058,0.13511
849.97032,0.13722
848.94005,0.13928
847.90978,0.14104
846.87952,0.14284
845.84925,0.14441
844.81898,0.14541
843.78871,0.14602
842.75845,0.14666
841.72818,0.14750
840.69791,0.14804
839.66765,0.14782
838.63738,0.14737
837.60711,0.14699
836.57684,0.14636
835.54658,0.14546
834.51631,0.14410
833.48604,0.14244
832.45578,0.14095
831.42551,0.13924
830.39524,0.13685
829.36498,0.13397
828.33471,0.13135
827.30444,0.12929
826.27417,0.12736
825.24391,0.12519
824.21364,0.12281
823.18337,0.12054
822.15311,0.11902
821.12284,0.11800
820.09257,0.11675
819.06230,0.11559
818.03204,0.11483
817.00177,0.11424
815.97150,0.11348
814.94124,0.11230
813.91097,0.11098
812.88070,0.10996
811.85044,0.10943
810.82017,0.10938
809.78990,0.10969
808.75963,0.10971
807.72937,0.10886
806.69910,0.10789
805.66883,0.10752
804.63857,0.10698
803.60830,0.10586
802.57803,0.10489
801.54777,0.10402
800.51750,0.10318
799.48723,0.10269
798.45696,0.10249
797.42670,0.10240
796.39643,0.10208
795.36616,0.10160
794.33590,0.10119
793.30563,0.10051
792.27536,0.09977
791.24509,0.09933
790.21483,0.09904
789.18456,0.09899
788.15429,0.09909
787.12403,0.09898
786.09376,0.09864
785.06349,0.09824
784.03323,0.09781
783.00296,0.09714
781.97269,0.09647
780.94242,0.09660
779.91216,0.09747
778.88189,0.09813
777.85162,0.09812
776.82136,0.09746
775.79109,0.09701
774.76082,0.09744
773.73055,0.09800
772.70029,0.09835
771.67002,0.09904
770.63975,0.09971
769.60949,0.10002
768.57922,0.10053
767.54895,0.10120
766.51869,0.10172
765.48842,0.10241
764.45815,0.10317
763.42788,0.10354
762.39762,0.10373
761.36735,0.10416
760.33708,0.10465
759.30682,0.10524
758.27655,0.10613
757.24628,0.10707
756.21601,0.10778
755.18575,0.10825
754.15548,0.10885
753.12521,0.10990
752.09495,0.11103
751.06468,0.11200
750.03441,0.11286
749.00415,0.11356
747.97388,0.11408
746.94361,0.11417
745.91334,0.11419
744.88308,0.11495
743.85281,0.11668
742.82254,0.11865
741.79228,0.11997
740.76201,0.12053
739.73174,0.12081
738.70147,0.12135
737.67121,0.12213
736.64094,0.12280
735.61067,0.12343
734.58041,0.12417
733.55014,0.12493
732.51987,0.12566
731.48961,0.12639
730.45934,0.12708
729.42907,0.12801
728.39880,0.12913
727.36854,0.12978
726.33827,0.13031
725.30800,0.13155
724.27774,0.13290
723.24747,0.13359
722.21720,0.13425
721.18694,0.13545
720.15667,0.13676
719.12640,0.13752
718.09613,0.13775
717.06587,0.13800
716.03560,0.13854
715.00533,0.13944
713.97507,0.14052
712.94480,0.14147
711.91453,0.14253
710.88426,0.14370
709.85400,0.14419
708.82373,0.14425
707.79346,0.14492
706.76320,0.14619
705.73293,0.14763
704.70266,0.14889
703.67240,0.14969
702.64213,0.15035
701.61186,0.15124
700.58159,0.15244
699.55133,0.15373
698.52106,0.15479
697.49079,0.15518
696.46053,0.15510
695.43026,0.15587
694.39999,0.15757
693.36972,0.15870
692.33946,0.15873
691.30919,0.15856
690.27892,0.15876
689.24866,0.15934
688.21839,0.16063
687.18812,0.16207
686.15786,0.16334
685.12759,0.16508
684.09732,0.16667
683.06705,0.16757
682.03679,0.16801
681.00652,0.16820
679.97625,0.16898
678.94599,0.17010
677.91572,0.17087
676.88545,0.17182
675.85518,0.17284
674.82492,0.17371
673.79465,0.17481
672.76438,0.17537
671.73412,0.17506
670.70385,0.17511
669.67358,0.17563
668.64332,0.17612
667.61305,0.17754
666.58278,0.17875
665.55251,0.17933
664.52225,0.18013
663.49198,0.18167
662.46171,0.18368
661.43145,0.18447
660.40118,0.18377
659.37091,0.18386
658.34065,0.18499
657.31038,0.18572
656.28011,0.18667
655.24984,0.18793
654.21958,0.18842
653.18931,0.18887
652.15904,0.18987
651.12878,0.19075
650.09851,0.19192
649.06824,0.19342
648.03797,0.19400
647.00771,0.19348
645.97744,0.19355
644.94717,0.19471
643.91691,0.19563
642.88664,0.19614
641.85637,0.19668
640.82611,0.19725
639.79584,0.19813
638.76557,0.19934
637.73530,0.20052
636.70504,0.20143
635.67477,0.20178
634.64450,0.20235
633.61424,0.20333
632.58397,0.20353
631.55370,0.20307
630.52343,0.20271
629.49317,0.20357
628.46290,0.20567
627.43263,0.20720
626.40237,0.20750
625.37210,0.20772
624.34183,0.20885
623.31157,0.20980
622.28130,0.20985
621.25103,0.21025
620.22076,0.21131
619.19050,0.21235
618.16023,0.21332
617.12996,0.21436
616.09970,0.21545
615.06943,0.21698
614.03916,0.21879
613.00889,0.21969
611.97863,0.21953
610.94836,0.21990
609.91809,0.22132
608.88783,0.22203
607.85756,0.22187
606.82729,0.22288
605.79703,0.22454
604.76676,0.22481
603.73649,0.22445
602.70622,0.22548
601.67596,0.22714
600.64569,0.22850
599.61542,0.23042
598.58516,0.23214
597.55489,0.23262
596.52462,0.23290
595.49436,0.23318
594.46409,0.23300
593.43382,0.23324
592.40355,0.23402
591.37329,0.23489
590.34302,0.23661
589.31275,0.23942
588.28249,0.24164
587.25222,0.24247
586.22195,0.24336
585.19168,0.24524
584.16142,0.24665
583.13115,0.24661
582.10088,0.24698
581.07062,0.24851
580.04035,0.25065
579.01008,0.25260
577.97982,0.25292
576.94955,0.25242
575.91928,0.25278
574.88901,0.25427
573.85875,0.25517
572.82848,0.25397
571.79821,0.25283
570.76795,0.25408
569.73768,0.25670
568.70741,0.25820
567.67714,0.25782
566.64688,0.25746
565.61661,0.25819
564.58634,0.25903
563.55608,0.25936
562.52581,0.25972
561.49554,0.26102
560.46528,0.26234
559.43501,0.26230
558.40474,0.26281
557.37447,0.26425
556.34421,0.26439
555.31394,0.26392
554.28367,0.26435
553.25341,0.26565
552.22314,0.26718
551.19287,0.26869
550.16260,0.27011
549.13234,0.27084
548.10207,0.27113
547.07180,0.27147
546.04154,0.27161
545.01127,0.27174
543.98100,0.27274
542.95074,0.27438
541.92047,0.27368
540.89020,0.27115
539.85993,0.27151
538.82967,0.27393
537.79940,0.27541
536.76913,0.27624
535.73887,0.27666
534.70860,0.27649
533.67833,0.27736
532.64806,0.27995
531.61780,0.28184
530.58753,0.28213
529.55726,0.28202
528.52700,0.28197
527.49673,0.28238
526.46646,0.28364
525.43620,0.28353
524.40593,0.28215
523.37566,0.28391
522.34539,0.28779
521.31513,0.28925
520.28486,0.28853
519.25459,0.28810
518.22433,0.28812
517.19406,0.28703
516.16379,0.28508
515.13353,0.28632
514.10326,0.29068
513.07299,0.29237
512.04272,0.29104
511.01246,0.29076
509.98219,0.29060
508.95192,0.28821
507.92166,0.28618
506.89139,0.28636
505.86112,0.28680
504.83085,0.28803
503.80059,0.28932
502.77032,0.28803
501.74005,0.28543
500.70979,0.28423
499.67952,0.28423
498.64925,0.28358
497.61899,0.28274
496.58872,0.28291
495.55845,0.28309
494.52818,0.28285
493.49792,0.28326
492.46765,0.28370
491.43738,0.28221
490.40712,0.28151
489.37685,0.28328
488.34658,0.28389
487.31631,0.28179
486.28605,0.28078
485.25578,0.28231
484.22551,0.28205
483.19525,0.28072
482.16498,0.28169
481.13471,0.28276
480.10445,0.28272
479.07418,0.28346
478.04391,0.28483
477.01364,0.28513
475.98338,0.28323
474.95311,0.28026
473.92284,0.27850
472.89258,0.27630
471.86231,0.27356
470.83204,0.27464
469.80177,0.27932
468.77151,0.28193
467.74124,0.27912
466.71097,0.27704
465.68071,0.27850
464.65044,0.27838
463.62017,0.27656
462.58991,0.27717
461.55964,0.27830
460.52937,0.27629
459.49910,0.27387
458.46884,0.27432
457.43857,0.27533
456.40830,0.27470
455.37804,0.27497
454.34777,0.27529
453.31750,0.27388
452.28724,0.27183
451.25697,0.27072
450.22670,0.27043
449.19643,0.27322
448.16617,0.27839
447.13590,0.28116
446.10563,0.28084
445.07537,0.27670
444.04510,0.27084
443.01483,0.26867
441.98456,0.27088
440.95430,0.27478
439.92403,0.27618
438.89376,0.27463
437.86350,0.27181
436.83323,0.26713
435.80296,0.26399
434.77270,0.26614
433.74243,0.27038
432.71216,0.27097
431.68189,0.26530
430.65163,0.25919
429.62136,0.25868
428.59109,0.26058
427.56083,0.26184
426.53056,0.26392
425.50029,0.26440
424.47002,0.26179
423.43976,0.26152
422.40949,0.26418
421.37922,0.26667
420.34896,0.26805
419.31869,0.26549
418.28842,0.25850
417.25816,0.25863
416.22789,0.26545
415.19762,0.26997
414.16735,0.26966
413.13709,0.26927
412.10682,0.26763
411.07655,0.26020
410.04629,0.25231
409.01602,0.25193
407.98575,0.25466
406.95548,0.25565
405.92522,0.25819
404.89495,0.26209
403.86468,0.26357
402.83442,0.26282
401.80415,0.26428
400.77388,0.26930
399.74362,0.26747
