4998.85573,-0.00135
4997.82546,-0.00030
4996.79519,0.00138
4995.76493,0.00279
4994.73466,0.00252
4993.70439,0.00178
4992.67413,0.00212
4991.64386,0.00192
4990.61359,0.00054
4989.58332,0.00008
4988.55306,0.00011
4987.52279,-0.00082
4986.49252,-0.00119
4985.46226,-0.00021
4984.43199,0.00051
4983.40172,0.00095
4982.37145,0.00170
4981.34119,0.00132
4980.31092,-0.00008
4979.28065,-0.00064
4978.25039,-0.00067
4977.22012,-0.00065
4976.18985,-0.00042
4975.15959,-0.00041
4974.12932,-0.00069
4973.09905,-0.00086
4972.06878,-0.00036
4971.03852,0.00081
4970.00825,0.00119
4968.97798,0.00021
4967.94772,-0.00045
4966.91745,-0.00021
4965.88718,0.00033
4964.85691,0.00061
4963.82665,-0.00030
4962.79638,-0.00154
4961.76611,-0.00180
4960.73585,-0.00134
4959.70558,-0.00091
4958.67531,-0.00091
4957.64505,-0.00094
4956.61478,-0.00068
4955.58451,-0.00043
4954.55424,-0.00024
4953.52398,0.00025
4952.49371,0.00078
4951.46344,0.00068
4950.43318,0.00029
4949.40291,0.00004
4948.37264,0.00025
4947.34238,0.00096
4946.31211,0.00081
4945.28184,-0.00012
4944.25157,0.00003
4943.22131,0.00080
4942.19104,0.00122
4941.16077,0.00147
4940.13051,0.00078
4939.10024,-0.00001
4938.06997,0.00055
4937.03970,0.00087
4936.00944,0.00017
4934.97917,-0.00026
4933.94890,-0.00048
4932.91864,-0.00075
4931.88837,-0.00089
4930.85810,-0.00091
4929.82784,-0.00088
4928.79757,-0.00087
4927.76730,-0.00054
4926.73703,0.00001
4925.70677,0.00005
4924.67650,0.00006
4923.64623,0.00083
4922.61597,0.00131
4921.58570,0.00076
4920.55543,-0.00020
4919.52516,-0.00040
4918.49490,0.00081
4917.46463,0.00163
4916.43436,0.00101
4915.40410,0.00051
4914.37383,0.00059
4913.34356,0.00056
4912.31330,0.00025
4911.28303,-0.00036
4910.25276,-0.00088
4909.22249,-0.00061
4908.19223,0.00047
4907.16196,0.00108
4906.13169,0.00066
4905.10143,0.00011
4904.07116,-0.00026
4903.04089,-0.00049
4902.01062,-0.00041
4900.98036,-0.00000
4899.95009,0.00034
4898.91982,0.00029
4897.88956,0.00053
4896.85929,0.00114
4895.82902,0.00069
4894.79876,-0.00003
4893.76849,0.00081
4892.73822,0.00155
4891.70795,0.00061
4890.67769,-0.00036
4889.64742,0.00010
4888.61715,0.00080
4887.58689,0.00055
4886.55662,0.00031
4885.52635,0.00072
4884.49609,0.00089
4883.46582,0.00098
4882.43555,0.00128
4881.40528,0.00068
4880.37502,-0.00035
4879.34475,-0.00038
4878.31448,0.00023
4877.28422,0.00053
4876.25395,0.00062
4875.22368,0.00040
4874.19341,0.00011
4873.16315,0.00056
4872.13288,0.00098
4871.10261,0.00079
4870.07235,0.00058
4869.04208,0.00088
4868.01181,0.00166
4866.98155,0.00197
4865.95128,0.00124
4864.92101,0.00009
4863.89074,-0.00054
4862.86048,-0.00010
4861.83021,0.00071
4860.79994,0.00092
4859.76968,0.00068
4858.73941,0.00032
4857.70914,0.00017
4856.67887,0.00004
4855.64861,-0.00051
4854.61834,-0.00065
4853.58807,0.00010
4852.55781,0.00057
4851.52754,0.00023
4850.49727,-0.00036
4849.46701,-0.00058
4848.43674,-0.00061
4847.40647,-0.00053
4846.37620,0.00003
4845.34594,0.00010
4844.31567,-0.00064
4843.28540,-0.00093
4842.25514,-0.00044
4841.22487,-0.00003
4840.19460,-0.00020
4839.16433,-0.00058
4838.13407,-0.00097
4837.10380,-0.00098
4836.07353,-0.00059
4835.04327,-0.00063
4834.01300,-0.00094
4832.98273,-0.00097
4831.95247,-0.00062
4830.92220,-0.00006
4829.89193,0.00047
4828.86166,0.00048
4827.83140,-0.00015
4826.80113,-0.00026
4825.77086,0.00068
4824.74060,0.00129
4823.71033,0.00080
4822.68006,0.00013
4821.64979,0.00007
4820.61953,0.00026
4819.58926,0.00052
4818.55899,0.00068
4817.52873,0.00018
4816.49846,-0.00013
4815.46819,0.00036
4814.43793,0.00053
4813.40766,0.00049
4812.37739,0.00066
4811.34712,0.00034
4810.31686,-0.00037
4809.28659,-0.00060
4808.25632,0.00024
4807.22606,0.00117
4806.19579,0.00108
4805.16552,0.00064
4804.13526,0.00032
4803.10499,-0.00024
4802.07472,-0.00061
4801.04445,-0.00025
4800.01419,0.00033
4798.98392,0.00065
4797.95365,0.00055
4796.92339,-0.00003
4795.89312,-0.00034
4794.86285,0.00006
4793.83258,0.00069
4792.80232,0.00119
4791.77205,0.00153
4790.74178,0.00134
4789.71152,0.00069
4788.68125,0.00008
4787.65098,-0.00021
4786.62072,0.00014
4785.59045,0.00027
4784.56018,-0.00012
4783.52991,-0.00001
4782.49965,0.00009
4781.46938,-0.00038
4780.43911,-0.00092
4779.40885,-0.00094
4778.37858,-0.00016
4777.34831,0.00079
4776.31804,0.00106
4775.28778,0.00098
4774.25751,0.00135
4773.22724,0.00172
4772.19698,0.00139
4771.16671,0.00049
4770.13644,-0.00001
4769.10618,0.00029
4768.07591,0.00048
4767.04564,0.00022
4766.01537,-0.00014
4764.98511,-0.00034
4763.95484,-0.00041
4762.92457,-0.00033
4761.89431,-0.00018
4760.86404,0.00002
4759.83377,0.00055
4758.80350,0.00108
4757.77324,0.00108
4756.74297,0.00093
4755.71270,0.00169
4754.68244,0.00289
4753.65217,0.00314
4752.62190,0.00237
4751.59164,0.00149
4750.56137,0.00136
4749.53110,0.00157
4748.50083,0.00128
4747.47057,0.00098
4746.44030,0.00132
4745.41003,0.00127
4744.37977,0.00010
4743.34950,-0.00074
4742.31923,-0.00042
4741.28897,0.00038
4740.25870,0.00106
4739.22843,0.00122
4738.19816,0.00112
4737.16790,0.00113
4736.13763,0.00122
4735.10736,0.00116
4734.07710,0.00064
4733.04683,0.00012
4732.01656,0.00028
4730.98629,0.00086
4729.95603,0.00121
4728.92576,0.00098
4727.89549,0.00072
4726.86523,0.00092
4725.83496,0.00055
4724.80469,-0.00028
4723.77443,-0.00022
4722.74416,-0.00009
4721.71389,-0.00032
4720.68362,0.00023
4719.65336,0.00101
4718.62309,0.00101
4717.59282,0.00047
4716.56256,0.00003
4715.53229,0.00004
4714.50202,0.00006
4713.47175,-0.00041
4712.44149,-0.00044
4711.41122,0.00069
4710.38095,0.00153
4709.35069,0.00130
4708.32042,0.00141
4707.29015,0.00212
4706.25989,0.00227
4705.22962,0.00129
4704.19935,0.00011
4703.16908,0.00009
4702.13882,0.00057
4701.10855,0.00064
4700.07828,0.00066
4699.04802,0.00096
4698.01775,0.00114
4696.98748,0.00098
4695.95721,0.00060
4694.92695,-0.00014
4693.89668,-0.00034
4692.86641,0.00054
4691.83615,0.00132
4690.80588,0.00102
4689.77561,0.00046
4688.74535,0.00088
4687.71508,0.00144
4686.68481,0.00127
4685.65454,0.00099
4684.62428,0.00079
4683.59401,0.00053
4682.56374,0.00036
4681.53348,0.00010
4680.50321,-0.00050
4679.47294,-0.00123
4678.44267,-0.00159
4677.41241,-0.00081
4676.38214,0.00073
4675.35187,0.00159
4674.32161,0.00146
4673.29134,0.00107
4672.26107,0.00123
4671.23081,0.00170
4670.20054,0.00178
4669.17027,0.00174
4668.14000,0.00162
4667.10974,0.00113
4666.07947,0.00007
4665.04920,-0.00093
4664.01894,-0.00059
4662.98867,0.00017
4661.95840,-0.00001
4660.92814,0.00004
4659.89787,0.00089
4658.86760,0.00151
4657.83733,0.00168
4656.80707,0.00158
4655.77680,0.00092
4654.74653,-0.00012
4653.71627,-0.00060
4652.68600,0.00001
4651.65573,0.00098
4650.62546,0.00110
4649.59520,0.00061
4648.56493,0.00044
4647.53466,0.00045
4646.50440,0.00071
4645.47413,0.00095
4644.44386,0.00071
4643.41360,0.00077
4642.38333,0.00081
4641.35306,0.00009
4640.32279,-0.00029
4639.29253,0.00033
4638.26226,0.00087
4637.23199,0.00086
4636.20173,0.00088
4635.17146,0.00089
4634.14119,0.00073
4633.11092,0.00062
4632.08066,0.00068
4631.05039,0.00086
4630.02012,0.00098
4628.98986,0.00115
4627.95959,0.00125
4626.92932,0.00128
4625.89906,0.00167
4624.86879,0.00180
4623.83852,0.00130
4622.80825,0.00084
4621.77799,0.00063
4620.74772,0.00072
4619.71745,0.00105
4618.68719,0.00114
4617.65692,0.00088
4616.62665,0.00067
4615.59638,0.00073
4614.56612,0.00145
4613.53585,0.00235
4612.50558,0.00213
4611.47532,0.00124
4610.44505,0.00056
4609.41478,0.00024
4608.38452,0.00004
4607.35425,-0.00021
4606.32398,0.00000
4605.29371,0.00025
4604.26345,-0.00020
4603.23318,-0.00062
4602.20291,-0.00068
4601.17265,-0.00076
4600.14238,-0.00083
4599.11211,-0.00084
4598.08185,-0.00053
4597.05158,-0.00034
4596.02131,-0.00065
4594.99104,-0.00038
4593.96078,0.00014
4592.93051,-0.00003
4591.90024,-0.00008
4590.86998,0.00056
4589.83971,0.00139
4588.80944,0.00207
4587.77917,0.00220
4586.74891,0.00155
4585.71864,0.00078
4584.68837,0.00029
4583.65811,0.00036
4582.62784,0.00066
4581.59757,0.00060
4580.56731,0.00044
4579.53704,0.00009
4578.50677,-0.00049
4577.47650,-0.00102
4576.44624,-0.00096
4575.41597,0.00007
4574.38570,0.00067
4573.35544,0.00004
4572.32517,-0.00054
4571.29490,-0.00063
4570.26463,-0.00065
4569.23437,-0.00036
4568.20410,0.00050
4567.17383,0.00123
4566.14357,0.00154
4565.11330,0.00168
4564.08303,0.00110
4563.05277,0.00010
4562.02250,-0.00020
4560.99223,-0.00001
4559.96196,0.00007
4558.93170,0.00048
4557.90143,0.00105
4556.87116,0.00081
4555.84090,0.00049
4554.81063,0.00085
4553.78036,0.00118
4552.75009,0.00090
4551.71983,0.00032
4550.68956,0.00047
4549.65929,0.00132
4548.62903,0.00154
4547.59876,0.00084
4546.56849,0.00037
4545.53823,0.00014
4544.50796,-0.00056
4543.47769,-0.00084
4542.44742,-0.00010
4541.41716,0.00048
4540.38689,0.00047
4539.35662,0.00035
4538.32636,0.00039
4537.29609,0.00098
4536.26582,0.00130
4535.23556,0.00069
4534.20529,0.00046
4533.17502,0.00067
4532.14475,0.00055
4531.11449,0.00107
4530.08422,0.00194
4529.05395,0.00179
4528.02369,0.00108
4526.99342,0.00065
4525.96315,0.00039
4524.93288,0.00015
4523.90262,0.00031
4522.87235,0.00088
4521.84208,0.00112
4520.81182,0.00109
4519.78155,0.00157
4518.75128,0.00167
4517.72102,0.00065
4516.69075,0.00019
4515.66048,0.00062
4514.63021,0.00053
4513.59995,0.00028
4512.56968,0.00040
4511.53941,0.00011
4510.50915,-0.00032
4509.47888,0.00013
4508.44861,0.00107
4507.41834,0.00141
4506.38808,0.00100
4505.35781,0.00044
4504.32754,0.00023
4503.29728,0.00041
4502.26701,0.00072
4501.23674,0.00117
4500.20648,0.00198
4499.17621,0.00243
4498.14594,0.00166
4497.11567,0.00052
4496.08541,0.00014
4495.05514,0.00039
4494.02487,0.00055
4492.99461,0.00039
4491.96434,0.00019
4490.93407,0.00025
4489.90380,0.00056
4488.87354,0.00047
4487.84327,0.00006
4486.81300,0.00009
4485.78274,0.00055
4484.75247,0.00087
4483.72220,0.00054
4482.69194,-0.00005
4481.66167,-0.00006
4480.63140,0.00046
4479.60113,0.00078
4478.57087,0.00068
4477.54060,0.00033
4476.51033,-0.00019
4475.48007,-0.00033
4474.44980,0.00005
4473.41953,0.00051
4472.38926,0.00090
4471.35900,0.00097
4470.32873,0.00032
4469.29846,-0.00065
4468.26820,-0.00105
4467.23793,-0.00060
4466.20766,-0.00003
4465.17740,0.00018
4464.14713,0.00029
4463.11686,0.00051
4462.08659,0.00086
4461.05633,0.00115
4460.02606,0.00081
4458.99579,0.00001
4457.96553,-0.00035
4456.93526,-0.00008
4455.90499,0.00040
4454.87473,0.00041
4453.84446,0.00016
4452.81419,0.00043
4451.78392,0.00096
4450.75366,0.00104
4449.72339,0.00062
4448.69312,0.00058
4447.66286,0.00102
4446.63259,0.00120
4445.60232,0.00132
4444.57205,0.00152
4443.54179,0.00139
4442.51152,0.00135
4441.48125,0.00157
4440.45099,0.00140
4439.42072,0.00068
4438.39045,0.00045
4437.36019,0.00056
4436.32992,0.00036
4435.29965,0.00044
4434.26938,0.00087
4433.23912,0.00127
4432.20885,0.00131
4431.17858,0.00124
4430.14832,0.00146
4429.11805,0.00140
4428.08778,0.00094
4427.05751,0.00098
4426.02725,0.00141
4424.99698,0.00113
4423.96671,0.00031
4422.93645,-0.00001
4421.90618,0.00050
4420.87591,0.00094
4419.84565,0.00078
4418.81538,0.00066
4417.78511,0.00091
4416.75484,0.00099
4415.72458,0.00058
4414.69431,0.00016
4413.66404,0.00037
4412.63378,0.00119
4411.60351,0.00168
4410.57324,0.00153
4409.54297,0.00125
4408.51271,0.00098
4407.48244,0.00061
4406.45217,0.00029
4405.42191,0.00024
4404.39164,0.00061
4403.36137,0.00121
4402.33111,0.00181
4401.30084,0.00239
4400.27057,0.00224
4399.24030,0.00151
4398.21004,0.00141
4397.17977,0.00166
4396.14950,0.00148
4395.11924,0.00146
4394.08897,0.00167
4393.05870,0.00142
4392.02844,0.00118
4390.99817,0.00121
4389.96790,0.00116
4388.93763,0.00117
4387.90737,0.00133
4386.87710,0.00123
4385.84683,0.00078
4384.81657,0.00101
4383.78630,0.00199
4382.75603,0.00215
4381.72576,0.00147
4380.69550,0.00138
4379.66523,0.00154
4378.63496,0.00100
4377.60470,0.00070
4376.57443,0.00148
4375.54416,0.00243
4374.51390,0.00261
4373.48363,0.00223
4372.45336,0.00213
4371.42309,0.00259
4370.39283,0.00278
4369.36256,0.00216
4368.33229,0.00142
4367.30203,0.00114
4366.27176,0.00154
4365.24149,0.00222
4364.21122,0.00215
4363.18096,0.00181
4362.15069,0.00211
4361.12042,0.00237
4360.09016,0.00196
4359.05989,0.00132
4358.02962,0.00125
4356.99936,0.00164
4355.96909,0.00193
4354.93882,0.00228
4353.90855,0.00253
4352.87829,0.00239
4351.84802,0.00214
4350.81775,0.00184
4349.78749,0.00179
4348.75722,0.00214
4347.72695,0.00229
4346.69668,0.00209
4345.66642,0.00218
4344.63615,0.00266
4343.60588,0.00287
4342.57562,0.00275
4341.54535,0.00299
4340.51508,0.00333
4339.48482,0.00284
4338.45455,0.00186
4337.42428,0.00142
4336.39401,0.00142
4335.36375,0.00164
4334.33348,0.00223
4333.30321,0.00238
4332.27295,0.00175
4331.24268,0.00111
4330.21241,0.00077
4329.18214,0.00090
4328.15188,0.00169
4327.12161,0.00241
4326.09134,0.00245
4325.06108,0.00226
4324.03081,0.00202
4323.00054,0.00152
4321.97028,0.00100
4320.94001,0.00074
4319.90974,0.00090
4318.87947,0.00134
4317.84921,0.00163
4316.81894,0.00174
4315.78867,0.00195
4314.75841,0.00182
4313.72814,0.00114
4312.69787,0.00083
4311.66761,0.00110
4310.63734,0.00096
4309.60707,0.00027
4308.57680,-0.00006
4307.54654,0.00035
4306.51627,0.00106
4305.48600,0.00168
4304.45574,0.00195
4303.42547,0.00183
4302.39520,0.00172
4301.36493,0.00195
4300.33467,0.00230
4299.30440,0.00266
4298.27413,0.00291
4297.24387,0.00251
4296.21360,0.00165
4295.18333,0.00133
4294.15307,0.00145
4293.12280,0.00138
4292.09253,0.00138
4291.06226,0.00143
4290.03200,0.00107
4289.00173,0.00064
4287.97146,0.00069
4286.94120,0.00085
4285.91093,0.00096
4284.88066,0.00113
4283.85039,0.00094
4282.82013,0.00057
4281.78986,0.00041
4280.75959,0.00053
4279.72933,0.00117
4278.69906,0.00156
4277.66879,0.00080
4276.63853,0.00020
4275.60826,0.00057
4274.57799,0.00093
4273.54772,0.00082
4272.51746,0.00069
4271.48719,0.00108
4270.45692,0.00159
4269.42666,0.00188
4268.39639,0.00202
4267.36612,0.00176
4266.33585,0.00173
4265.30559,0.00202
4264.27532,0.00176
4263.24505,0.00153
4262.21479,0.00184
4261.18452,0.00202
4260.15425,0.00212
4259.12399,0.00243
4258.09372,0.00227
4257.06345,0.00169
4256.03318,0.00156
4255.00292,0.00153
4253.97265,0.00130
4252.94238,0.00167
4251.91212,0.00240
4250.88185,0.00272
4249.85158,0.00275
4248.82132,0.00246
4247.79105,0.00169
4246.76078,0.00108
4245.73051,0.00113
4244.70025,0.00118
4243.66998,0.00109
4242.63971,0.00125
4241.60945,0.00133
4240.57918,0.00079
4239.54891,0.00006
4238.51864,0.00026
4237.48838,0.00112
4236.45811,0.00121
4235.42784,0.00092
4234.39758,0.00133
4233.36731,0.00180
4232.33704,0.00171
4231.30678,0.00128
4230.27651,0.00115
4229.24624,0.00143
4228.21597,0.00157
4227.18571,0.00140
4226.15544,0.00105
4225.12517,0.00091
4224.09491,0.00127
4223.06464,0.00157
4222.03437,0.00117
4221.00410,0.00057
4219.97384,0.00065
4218.94357,0.00092
4217.91330,0.00067
4216.88304,0.00023
4215.85277,-0.00001
4214.82250,0.00026
4213.79224,0.00080
4212.76197,0.00095
4211.73170,0.00098
4210.70143,0.00142
4209.67117,0.00198
4208.64090,0.00210
4207.61063,0.00165
4206.58037,0.00096
4205.55010,0.00048
4204.51983,0.00035
4203.48956,0.00046
4202.45930,0.00080
4201.42903,0.00132
4200.39876,0.00150
4199.36850,0.00127
4198.33823,0.00107
4197.30796,0.00111
4196.27770,0.00145
4195.24743,0.00190
4194.21716,0.00218
4193.18689,0.00212
4192.15663,0.00180
4191.12636,0.00143
4190.09609,0.00119
4189.06583,0.00128
4188.03556,0.00161
4187.00529,0.00177
4185.97502,0.00154
4184.94476,0.00142
4183.91449,0.00182
4182.88422,0.00205
4181.85396,0.00159
4180.82369,0.00109
4179.79342,0.00109
4178.76316,0.00145
4177.73289,0.00185
4176.70262,0.00207
4175.67235,0.00216
4174.64209,0.00218
4173.61182,0.00201
4172.58155,0.00138
4171.55129,0.00069
4170.52102,0.00059
4169.49075,0.00058
4168.46049,0.00004
4167.43022,-0.00009
4166.39995,0.00081
4165.36968,0.00156
4164.33942,0.00178
4163.30915,0.00212
4162.27888,0.00242
4161.24862,0.00231
4160.21835,0.00186
4159.18808,0.00139
4158.15781,0.00120
4157.12755,0.00136
4156.09728,0.00165
4155.06701,0.00186
4154.03675,0.00194
4153.00648,0.00190
4151.97621,0.00162
4150.94595,0.00122
4149.91568,0.00123
4148.88541,0.00184
4147.85514,0.00263
4146.82488,0.00293
4145.79461,0.00253
4144.76434,0.00203
4143.73408,0.00176
4142.70381,0.00166
4141.67354,0.00196
4140.64327,0.00227
4139.61301,0.00201
4138.58274,0.00157
4137.55247,0.00131
4136.52221,0.00129
4135.49194,0.00156
4134.46167,0.00138
4133.43141,0.00081
4132.40114,0.00092
4131.37087,0.00159
4130.34060,0.00202
4129.31034,0.00209
4128.28007,0.00180
4127.24980,0.00154
4126.21954,0.00154
4125.18927,0.00133
4124.15900,0.00101
4123.12873,0.00104
4122.09847,0.00129
4121.06820,0.00144
4120.03793,0.00146
4119.00767,0.00150
4117.97740,0.00145
4116.94713,0.00121
4115.91687,0.00132
4114.88660,0.00194
4113.85633,0.00220
4112.82606,0.00223
4111.79580,0.00251
4110.76553,0.00248
4109.73526,0.00183
4108.70500,0.00100
4107.67473,0.00049
4106.64446,0.00059
4105.61420,0.00108
4104.58393,0.00164
4103.55366,0.00210
4102.52339,0.00227
4101.49313,0.00205
4100.46286,0.00147
4099.43259,0.00092
4098.40233,0.00087
4097.37206,0.00144
4096.34179,0.00230
4095.31152,0.00297
4094.28126,0.00312
4093.25099,0.00276
4092.22072,0.00239
4091.19046,0.00237
4090.16019,0.00263
4089.12992,0.00243
4088.09966,0.00150
4087.06939,0.00105
4086.03912,0.00158
4085.00885,0.00202
4083.97859,0.00192
4082.94832,0.00195
4081.91805,0.00213
4080.88779,0.00221
4079.85752,0.00232
4078.82725,0.00241
4077.79698,0.00223
4076.76672,0.00198
4075.73645,0.00217
4074.70618,0.00251
4073.67592,0.00252
4072.64565,0.00236
4071.61538,0.00240
4070.58512,0.00279
4069.55485,0.00305
4068.52458,0.00267
4067.49431,0.00226
4066.46405,0.00232
4065.43378,0.00237
4064.40351,0.00215
4063.37325,0.00230
4062.34298,0.00281
4061.31271,0.00294
4060.28244,0.00283
4059.25218,0.00264
4058.22191,0.00253
4057.19164,0.00256
4056.16138,0.00224
4055.13111,0.00197
4054.10084,0.00214
4053.07058,0.00221
4052.04031,0.00221
4051.01004,0.00247
4049.97977,0.00268
4048.94951,0.00251
4047.91924,0.00228
4046.88897,0.00231
4045.85871,0.00265
4044.82844,0.00336
4043.79817,0.00386
4042.76791,0.00353
4041.73764,0.00284
4040.70737,0.00266
4039.67710,0.00299
4038.64684,0.00322
4037.61657,0.00318
4036.58630,0.00310
4035.55604,0.00321
4034.52577,0.00309
4033.49550,0.00247
4032.46523,0.00218
4031.43497,0.00261
4030.40470,0.00321
4029.37443,0.00350
4028.34417,0.00351
4027.31390,0.00326
4026.28363,0.00310
4025.25337,0.00345
4024.22310,0.00383
4023.19283,0.00388
4022.16256,0.00377
4021.13230,0.00341
4020.10203,0.00310
4019.07176,0.00340
4018.04150,0.00375
4017.01123,0.00358
4015.98096,0.00341
4014.95069,0.00348
4013.92043,0.00325
4012.89016,0.00282
4011.85989,0.00278
4010.82963,0.00301
4009.79936,0.00312
4008.76909,0.00331
4007.73883,0.00347
4006.70856,0.00325
4005.67829,0.00307
4004.64802,0.00317
4003.61776,0.00338
4002.58749,0.00351
4001.55722,0.00327
4000.52696,0.00285
3999.49669,0.00269
3998.46642,0.00284
3997.43615,0.00323
3996.40589,0.00354
3995.37562,0.00343
3994.34535,0.00320
3993.31509,0.00325
3992.28482,0.00339
3991.25455,0.00328
3990.22429,0.00293
3989.19402,0.00281
3988.16375,0.00292
3987.13348,0.00272
3986.10322,0.00237
3985.07295,0.00242
3984.04268,0.00256
3983.01242,0.00266
3981.98215,0.00300
3980.95188,0.00286
3979.92161,0.00228
3978.89135,0.00241
3977.86108,0.00317
3976.83081,0.00350
3975.80055,0.00319
3974.77028,0.00271
3973.74001,0.00241
3972.70975,0.00258
3971.67948,0.00299
3970.64921,0.00305
3969.61894,0.00290
3968.58868,0.00304
3967.55841,0.00304
3966.52814,0.00243
3965.49788,0.00201
3964.46761,0.00243
3963.43734,0.00285
3962.40708,0.00281
3961.37681,0.00290
3960.34654,0.00326
3959.31627,0.00334
3958.28601,0.00312
3957.25574,0.00306
3956.22547,0.00283
3955.19521,0.00229
3954.16494,0.00198
3953.13467,0.00209
3952.10440,0.00245
3951.07414,0.00288
3950.04387,0.00301
3949.01360,0.00269
3947.98334,0.00258
3946.95307,0.00267
3945.92280,0.00281
3944.89254,0.00312
3943.86227,0.00316
3942.83200,0.00308
3941.80173,0.00323
3940.77147,0.00306
3939.74120,0.00258
3938.71093,0.00236
3937.68067,0.00240
3936.65040,0.00253
3935.62013,0.00260
3934.58986,0.00260
3933.55960,0.00257
3932.52933,0.00269
3931.49906,0.00305
3930.46880,0.00327
3929.43853,0.00301
3928.40826,0.00217
3927.37800,0.00124
3926.34773,0.00108
3925.31746,0.00179
3924.28719,0.00238
3923.25693,0.00238
3922.22666,0.00235
3921.19639,0.00255
3920.16613,0.00274
3919.13586,0.00306
3918.10559,0.00346
3917.07532,0.00319
3916.04506,0.00235
3915.01479,0.00171
3913.98452,0.00153
3912.95426,0.00197
3911.92399,0.00266
3910.89372,0.00293
3909.86346,0.00287
3908.83319,0.00273
3907.80292,0.00260
3906.77265,0.00266
3905.74239,0.00270
3904.71212,0.00231
3903.68185,0.00159
3902.65159,0.00133
3901.62132,0.00182
3900.59105,0.00241
3899.56079,0.00259
3898.53052,0.00239
3897.50025,0.00218
3896.46998,0.00201
3895.43972,0.00175
3894.40945,0.00159
3893.37918,0.00176
3892.34892,0.00198
3891.31865,0.00181
3890.28838,0.00163
3889.25811,0.00194
3888.22785,0.00254
3887.19758,0.00293
3886.16731,0.00246
3885.13705,0.00128
3884.10678,0.00084
3883.07651,0.00107
3882.04625,0.00118
3881.01598,0.00140
3879.98571,0.00178
3878.95544,0.00185
3877.92518,0.00194
3876.89491,0.00208
3875.86464,0.00212
3874.83438,0.00205
3873.80411,0.00181
3872.77384,0.00166
3871.74357,0.00181
3870.71331,0.00241
3869.68304,0.00311
3868.65277,0.00271
3867.62251,0.00201
3866.59224,0.00197
3865.56197,0.00218
3864.53171,0.00195
3863.50144,0.00143
3862.47117,0.00098
3861.44090,0.00098
3860.41064,0.00142
3859.38037,0.00178
3858.35010,0.00182
3857.31984,0.00153
3856.28957,0.00134
3855.25930,0.00171
3854.22903,0.00250
3853.19877,0.00225
3852.16850,0.00184
3851.13823,0.00250
3850.10797,0.00276
3849.07770,0.00220
3848.04743,0.00183
3847.01717,0.00206
3845.98690,0.00227
3844.95663,0.00228
3843.92636,0.00210
3842.89610,0.00191
3841.86583,0.00183
3840.83556,0.00180
3839.80530,0.00199
3838.77503,0.00244
3837.74476,0.00307
3836.71449,0.00299
3835.68423,0.00233
3834.65396,0.00217
3833.62369,0.00241
3832.59343,0.00227
3831.56316,0.00164
3830.53289,0.00105
3829.50263,0.00091
3828.47236,0.00106
3827.44209,0.00133
3826.41182,0.00186
3825.38156,0.00211
3824.35129,0.00178
3823.32102,0.00163
3822.29076,0.00195
3821.26049,0.00241
3820.23022,0.00221
3819.19996,0.00174
3818.16969,0.00157
3817.13942,0.00137
3816.10915,0.00139
3815.07889,0.00195
3814.04862,0.00206
3813.01835,0.00174
3811.98809,0.00154
3810.95782,0.00152
3809.92755,0.00155
3808.89728,0.00183
3807.86702,0.00212
3806.83675,0.00209
3805.80648,0.00201
3804.77622,0.00203
3803.74595,0.00207
3802.71568,0.00206
3801.68542,0.00213
3800.65515,0.00221
3799.62488,0.00213
3798.59461,0.00222
3797.56435,0.00233
3796.53408,0.00208
3795.50381,0.00157
3794.47355,0.00128
3793.44328,0.00147
3792.41301,0.00181
3791.38274,0.00206
3790.35248,0.00235
3789.32221,0.00252
3788.29194,0.00239
3787.26168,0.00220
3786.23141,0.00235
3785.20114,0.00263
3784.17088,0.00246
3783.14061,0.00203
3782.11034,0.00203
3781.08007,0.00249
3780.04981,0.00275
3779.01954,0.00239
3777.98927,0.00181
3776.95901,0.00129
3775.92874,0.00102
3774.89847,0.00112
3773.86820,0.00141
3772.83794,0.00157
3771.80767,0.00150
3770.77740,0.00151
3769.74714,0.00195
3768.71687,0.00256
3767.68660,0.00284
3766.65634,0.00283
3765.62607,0.00288
3764.59580,0.00260
3763.56553,0.00177
3762.53527,0.00110
3761.50500,0.00119
3760.47473,0.00187
3759.44447,0.00256
3758.41420,0.00296
3757.38393,0.00300
3756.35367,0.00269
3755.32340,0.00231
3754.29313,0.00198
3753.26286,0.00196
3752.23260,0.00225
3751.20233,0.00222
3750.17206,0.00231
3749.14180,0.00252
3748.11153,0.00248
3747.08126,0.00271
3746.05099,0.00316
3745.02073,0.00338
3743.99046,0.00274
3742.96019,0.00215
3741.92993,0.00185
3740.89966,0.00166
3739.86939,0.00194
3738.83913,0.00257
3737.80886,0.00279
3736.77859,0.00271
3735.74832,0.00367
3734.71806,0.00467
3733.68779,0.00412
3732.65752,0.00314
3731.62726,0.00243
3730.59699,0.00258
3729.56672,0.00304
3728.53645,0.00301
3727.50619,0.00266
3726.47592,0.00213
3725.44565,0.00141
3724.41539,0.00131
3723.38512,0.00188
3722.35485,0.00230
3721.32459,0.00245
3720.29432,0.00270
3719.26405,0.00295
3718.23378,0.00284
3717.20352,0.00238
3716.17325,0.00214
3715.14298,0.00245
3714.11272,0.00323
3713.08245,0.00411
3712.05218,0.00448
3711.02191,0.00412
3709.99165,0.00358
3708.96138,0.00302
3707.93111,0.00275
3706.90085,0.00269
3705.87058,0.00241
3704.84031,0.00232
3703.81005,0.00277
3702.77978,0.00294
3701.74951,0.00268
3700.71924,0.00304
3699.68898,0.00362
3698.65871,0.00336
3697.62844,0.00292
3696.59818,0.00323
3695.56791,0.00366
3694.53764,0.00387
3693.50737,0.00420
3692.47711,0.00477
3691.44684,0.00538
3690.41657,0.00552
3689.38631,0.00561
3688.35604,0.00566
3687.32577,0.00550
3686.29551,0.00579
3685.26524,0.00621
3684.23497,0.00622
3683.20470,0.00613
3682.17444,0.00634
3681.14417,0.00661
3680.11390,0.00645
3679.08364,0.00617
3678.05337,0.00622
3677.02310,0.00621
3675.99284,0.00634
3674.96257,0.00708
3673.93230,0.00760
3672.90203,0.00784
3671.87177,0.00852
3670.84150,0.00998
3669.81123,0.01071
3668.78097,0.00955
3667.75070,0.00886
3666.72043,0.00945
3665.69016,0.01020
3664.65990,0.01062
3663.62963,0.01075
3662.59936,0.01097
3661.56910,0.01131
3660.53883,0.01136
3659.50856,0.01139
3658.47830,0.01172
3657.44803,0.01221
3656.41776,0.01269
3655.38749,0.01310
3654.35723,0.01357
3653.32696,0.01414
3652.29669,0.01477
3651.26643,0.01560
3650.23616,0.01595
3649.20589,0.01543
3648.17562,0.01516
3647.14536,0.01554
3646.11509,0.01613
3645.08482,0.01656
3644.05456,0.01683
3643.02429,0.01712
3641.99402,0.01761
3640.96376,0.01815
3639.93349,0.01878
3638.90322,0.01975
3637.87295,0.02086
3636.84269,0.02134
3635.81242,0.02129
3634.78215,0.02171
3633.75189,0.02252
3632.72162,0.02265
3631.69135,0.02247
3630.66108,0.02267
3629.63082,0.02292
3628.60055,0.02336
3627.57028,0.02453
3626.54002,0.02575
3625.50975,0.02662
3624.47948,0.02696
3623.44922,0.02695
3622.41895,0.02701
3621.38868,0.02728
3620.35841,0.02758
3619.32815,0.02815
3618.29788,0.02883
3617.26761,0.02934
3616.23735,0.03008
3615.20708,0.03105
3614.17681,0.03207
3613.14655,0.03289
3612.11628,0.03358
3611.08601,0.03455
3610.05574,0.03592
3609.02548,0.03722
3607.99521,0.03750
3606.96494,0.03772
3605.93468,0.03846
3604.90441,0.03897
3603.87414,0.03930
3602.84387,0.03990
3601.81361,0.04086
3600.78334,0.04175
3599.75307,0.04258
3598.72281,0.04354
3597.69254,0.04446
3596.66227,0.04524
3595.63201,0.04560
3594.60174,0.04595
3593.57147,0.04682
3592.54120,0.04768
3591.51094,0.04850
3590.48067,0.04929
3589.45040,0.04966
3588.42014,0.04994
3587.38987,0.05109
3586.35960,0.05277
3585.32933,0.05369
3584.29907,0.05409
3583.26880,0.05469
3582.23853,0.05557
3581.20827,0.05668
3580.17800,0.05770
3579.14773,0.05840
3578.11747,0.05906
3577.08720,0.05982
3576.05693,0.06062
3575.02666,0.06138
3573.99640,0.06221
3572.96613,0.06338
3571.93586,0.06457
3570.90560,0.06543
3569.87533,0.06620
3568.84506,0.06715
3567.81479,0.06800
3566.78453,0.06856
3565.75426,0.06926
3564.72399,0.07019
3563.69373,0.07107
3562.66346,0.07172
3561.63319,0.07226
3560.60293,0.07266
3559.57266,0.07305
3558.54239,0.07374
3557.51212,0.07483
3556.48186,0.07605
3555.45159,0.07682
3554.42132,0.07695
3553.39106,0.07701
3552.36079,0.07756
3551.33052,0.07852
3550.30026,0.07954
3549.26999,0.08041
3548.23972,0.08120
3547.20945,0.08177
3546.17919,0.08226
3545.14892,0.08301
3544.11865,0.08349
3543.08839,0.08405
3542.05812,0.08497
3541.02785,0.08557
3539.99758,0.08593
3538.96732,0.08644
3537.93705,0.08695
3536.90678,0.08736
3535.87652,0.08791
3534.84625,0.08890
3533.81598,0.09000
3532.78572,0.09075
3531.75545,0.09091
3530.72518,0.09079
3529.69491,0.09118
3528.66465,0.09243
3527.63438,0.09349
3526.60411,0.09326
3525.57385,0.09302
3524.54358,0.09377
3523.51331,0.09478
3522.48304,0.09567
3521.45278,0.09608
3520.42251,0.09608
3519.39224,0.09632
3518.36198,0.09704
3517.33171,0.09784
3516.30144,0.09842
3515.27118,0.09886
3514.24091,0.09927
3513.21064,0.09977
3512.18037,0.10019
3511.15011,0.10066
3510.11984,0.10152
3509.08957,0.10191
3508.05931,0.10149
3507.02904,0.10136
3505.99877,0.10193
3504.96850,0.10261
3503.93824,0.10298
3502.90797,0.10309
3501.87770,0.10322
3500.84744,0.10357
3499.81717,0.10372
3498.78690,0.10352
3497.75664,0.10338
3496.72637,0.10344
3495.69610,0.10370
3494.66583,0.10427
3493.63557,0.10491
3492.60530,0.10540
3491.57503,0.10594
3490.54477,0.10618
3489.51450,0.10611
3488.48423,0.10639
3487.45396,0.10682
3486.42370,0.10696
3485.39343,0.10694
3484.36316,0.10699
3483.33290,0.10704
3482.30263,0.10725
3481.27236,0.10782
3480.24210,0.10813
3479.21183,0.10786
3478.18156,0.10743
3477.15129,0.10721
3476.12103,0.10752
3475.09076,0.10801
3474.06049,0.10804
3473.03023,0.10792
3471.99996,0.10837
3470.96969,0.10926
3469.93943,0.10960
3468.90916,0.10908
3467.87889,0.10875
3466.84862,0.10906
3465.81836,0.10950
3464.78809,0.10958
3463.75782,0.10945
3462.72756,0.10965
3461.69729,0.10977
3460.66702,0.10956
3459.63675,0.10988
3458.60649,0.11065
3457.57622,0.11103
3456.54595,0.11101
3455.51569,0.11122
3454.48542,0.11169
3453.45515,0.11168
3452.42489,0.11118
3451.39462,0.11086
3450.36435,0.11094
3449.33408,0.11139
3448.30382,0.11171
3447.27355,0.11142
3446.24328,0.11138
3445.21302,0.11200
3444.18275,0.11249
3443.15248,0.11255
3442.12221,0.11233
3441.09195,0.11207
3440.06168,0.11205
3439.03141,0.11237
3438.00115,0.11256
3436.97088,0.11212
3435.94061,0.11143
3434.91035,0.11144
3433.88008,0.11227
3432.84981,0.11286
3431.81954,0.11263
3430.78928,0.11220
3429.75901,0.11229
3428.72874,0.11268
3427.69848,0.11270
3426.66821,0.11260
3425.63794,0.11282
3424.60767,0.11323
3423.57741,0.11382
3422.54714,0.11404
3421.51687,0.11355
3420.48661,0.11293
3419.45634,0.11233
3418.42607,0.11191
3417.39581,0.11213
3416.36554,0.11293
3415.33527,0.11341
3414.30500,0.11273
3413.27474,0.11172
3412.24447,0.11133
3411.21420,0.11130
3410.18394,0.11129
3409.15367,0.11152
3408.12340,0.11204
3407.09314,0.11227
3406.06287,0.11206
3405.03260,0.11187
3404.00233,0.11156
3402.97207,0.11080
3401.94180,0.11002
3400.91153,0.10966
3399.88127,0.10937
3398.85100,0.10905
3397.82073,0.10903
3396.79046,0.10902
3395.76020,0.10881
3394.72993,0.10856
3393.69966,0.10839
3392.66940,0.10817
3391.63913,0.10783
3390.60886,0.10766
3389.57860,0.10767
3388.54833,0.10767
3387.51806,0.10716
3386.48779,0.10614
3385.45753,0.10577
3384.42726,0.10594
3383.39699,0.10566
3382.36673,0.10513
3381.33646,0.10495
3380.30619,0.10499
3379.27592,0.10488
3378.24566,0.10466
3377.21539,0.10435
3376.18512,0.10379
3375.15486,0.10312
3374.12459,0.10254
3373.09432,0.10220
3372.06406,0.10213
3371.03379,0.10173
3370.00352,0.10088
3368.97325,0.10015
3367.94299,0.09961
3366.91272,0.09919
3365.88245,0.09878
3364.85219,0.09828
3363.82192,0.09795
3362.79165,0.09780
3361.76138,0.09745
3360.73112,0.09680
3359.70085,0.09633
3358.67058,0.09625
3357.64032,0.09599
3356.61005,0.09530
3355.57978,0.09468
3354.54952,0.09415
3353.51925,0.09344
3352.48898,0.09300
3351.45871,0.09293
3350.42845,0.09251
3349.39818,0.09178
3348.36791,0.09147
3347.33765,0.09156
3346.30738,0.09153
3345.27711,0.09097
3344.24684,0.09005
3343.21658,0.08911
3342.18631,0.08836
3341.15604,0.08805
3340.12578,0.08776
3339.09551,0.08732
3338.06524,0.08712
3337.03498,0.08693
3336.00471,0.08652
3334.97444,0.08618
3333.94417,0.08608
3332.91391,0.08572
3331.88364,0.08484
3330.85337,0.08406
3329.82311,0.08377
3328.79284,0.08356
3327.76257,0.08342
3326.73231,0.08351
3325.70204,0.08329
3324.67177,0.08254
3323.64150,0.08185
3322.61124,0.08165
3321.58097,0.08183
3320.55070,0.08210
3319.52044,0.08201
3318.49017,0.08130
3317.45990,0.08052
3316.42963,0.08004
3315.39937,0.07968
3314.36910,0.07929
3313.33883,0.07866
3312.30857,0.07788
3311.27830,0.07788
3310.24803,0.07875
3309.21777,0.07920
3308.18750,0.07867
3307.15723,0.07797
3306.12696,0.07787
3305.09670,0.07805
3304.06643,0.07810
3303.03616,0.07775
3302.00590,0.07683
3300.97563,0.07622
3299.94536,0.07617
3298.91509,0.07604
3297.88483,0.07592
3296.85456,0.07606
3295.82429,0.07618
3294.79403,0.07607
3293.76376,0.07588
3292.73349,0.07568
3291.70323,0.07526
3290.67296,0.07491
3289.64269,0.07461
3288.61242,0.07418
3287.58216,0.07397
3286.55189,0.07364
3285.52162,0.07299
3284.49136,0.07274
3283.46109,0.07285
3282.43082,0.07284
3281.40055,0.07270
3280.37029,0.07253
3279.34002,0.07232
3278.30975,0.07218
3277.27949,0.07196
3276.24922,0.07148
3275.21895,0.07116
3274.18869,0.07124
3273.15842,0.07130
3272.12815,0.07097
3271.09788,0.07041
3270.06762,0.07017
3269.03735,0.07033
3268.00708,0.07011
3266.97682,0.06944
3265.94655,0.06914
3264.91628,0.06906
3263.88602,0.06832
3262.85575,0.06718
3261.82548,0.06687
3260.79521,0.06742
3259.76495,0.06788
3258.73468,0.06777
3257.70441,0.06704
3256.67415,0.06613
3255.64388,0.06586
3254.61361,0.06599
3253.58334,0.06528
3252.55308,0.06417
3251.52281,0.06377
3250.49254,0.06373
3249.46228,0.06368
3248.43201,0.06361
3247.40174,0.06335
3246.37148,0.06289
3245.34121,0.06256
3244.31094,0.06233
3243.28067,0.06181
3242.25041,0.06112
3241.22014,0.06076
3240.18987,0.06060
3239.15961,0.06014
3238.12934,0.05958
3237.09907,0.05928
3236.06880,0.05910
3235.03854,0.05888
3234.00827,0.05862
3232.97800,0.05856
3231.94774,0.05864
3230.91747,0.05823
3229.88720,0.05720
3228.85694,0.05619
3227.82667,0.05580
3226.79640,0.05594
3225.76613,0.05577
3224.73587,0.05523
3223.70560,0.05478
3222.67533,0.05450
3221.64507,0.05433
3220.61480,0.05397
3219.58453,0.05317
3218.55426,0.05206
3217.52400,0.05093
3216.49373,0.05012
3215.46346,0.04965
3214.43320,0.04941
3213.40293,0.04956
3212.37266,0.05002
3211.34240,0.05009
3210.31213,0.04924
3209.28186,0.04804
3208.25159,0.04741
3207.22133,0.04710
3206.19106,0.04639
3205.16079,0.04555
3204.13053,0.04504
3203.10026,0.04487
3202.06999,0.04470
3201.03972,0.04427
3200.00946,0.04374
3198.97919,0.04312
3197.94892,0.04272
3196.91866,0.04277
3195.88839,0.04259
3194.85812,0.04193
3193.82786,0.04141
3192.79759,0.04123
3191.76732,0.04077
3190.73705,0.03982
3189.70679,0.03908
3188.67652,0.03909
3187.64625,0.03926
3186.61599,0.03878
3185.58572,0.03815
3184.55545,0.03801
3183.52519,0.03771
3182.49492,0.03693
3181.46465,0.03637
3180.43438,0.03614
3179.40412,0.03587
3178.37385,0.03560
3177.34358,0.03550
3176.31332,0.03542
3175.28305,0.03520
3174.25278,0.03489
3173.22251,0.03449
3172.19225,0.03412
3171.16198,0.03376
3170.13171,0.03320
3169.10145,0.03270
3168.07118,0.03253
3167.04091,0.03243
3166.01065,0.03220
3164.98038,0.03174
3163.95011,0.03108
3162.91984,0.03048
3161.88958,0.03008
3160.85931,0.03015
3159.82904,0.03038
3158.79878,0.03004
3157.76851,0.02931
3156.73824,0.02887
3155.70797,0.02864
3154.67771,0.02812
3153.64744,0.02751
3152.61717,0.02708
3151.58691,0.02677
3150.55664,0.02658
3149.52637,0.02645
3148.49611,0.02652
3147.46584,0.02673
3146.43557,0.02655
3145.40530,0.02609
3144.37504,0.02584
3143.34477,0.02570
3142.31450,0.02535
3141.28424,0.02471
3140.25397,0.02397
3139.22370,0.02357
3138.19343,0.02354
3137.16317,0.02333
3136.13290,0.02296
3135.10263,0.02269
3134.07237,0.02245
3133.04210,0.02213
3132.01183,0.02199
3130.98157,0.02215
3129.95130,0.02201
3128.92103,0.02141
3127.89076,0.02112
3126.86050,0.02124
3125.83023,0.02126
3124.79996,0.02104
3123.76970,0.02058
3122.73943,0.02025
3121.70916,0.02041
3120.67890,0.02065
3119.64863,0.02064
3118.61836,0.02039
3117.58809,0.01993
3116.55783,0.01950
3115.52756,0.01934
3114.49729,0.01935
3113.46703,0.01944
3112.43676,0.01921
3111.40649,0.01859
3110.37622,0.01826
3109.34596,0.01832
3108.31569,0.01835
3107.28542,0.01806
3106.25516,0.01768
3105.22489,0.01757
3104.19462,0.01768
3103.16436,0.01764
3102.13409,0.01729
3101.10382,0.01705
3100.07355,0.01715
3099.04329,0.01703
3098.01302,0.01653
3096.98275,0.01637
3095.95249,0.01651
3094.92222,0.01627
3093.89195,0.01600
3092.86168,0.01596
3091.83142,0.01571
3090.80115,0.01537
3089.77088,0.01540
3088.74062,0.01540
3087.71035,0.01505
3086.68008,0.01495
3085.64982,0.01510
3084.61955,0.01520
3083.58928,0.01540
3082.55901,0.01548
3081.52875,0.01516
3080.49848,0.01469
3079.46821,0.01454
3078.43795,0.01462
3077.40768,0.01435
3076.37741,0.01383
3075.34714,0.01355
3074.31688,0.01341
3073.28661,0.01326
3072.25634,0.01336
3071.22608,0.01349
3070.19581,0.01329
3069.16554,0.01297
3068.13528,0.01284
3067.10501,0.01283
3066.07474,0.01291
3065.04447,0.01294
3064.01421,0.01268
3062.98394,0.01245
3061.95367,0.01255
3060.92341,0.01270
3059.89314,0.01274
3058.86287,0.01275
3057.83261,0.01270
3056.80234,0.01254
3055.77207,0.01225
3054.74180,0.01218
3053.71154,0.01250
3052.68127,0.01271
3051.65100,0.01246
3050.62074,0.01192
3049.59047,0.01153
3048.56020,0.01151
3047.52993,0.01162
3046.49967,0.01152
3045.46940,0.01151
3044.43913,0.01176
3043.40887,0.01175
3042.37860,0.01148
3041.34833,0.01143
3040.31807,0.01160
3039.28780,0.01164
3038.25753,0.01146
3037.22726,0.01119
3036.19700,0.01099
3035.16673,0.01111
3034.13646,0.01130
3033.10620,0.01102
3032.07593,0.01047
3031.04566,0.01019
3030.01539,0.01019
3028.98513,0.01026
3027.95486,0.01049
3026.92459,0.01081
3025.89433,0.01076
3024.86406,0.01045
3023.83379,0.01024
3022.80353,0.01012
3021.77326,0.01021
3020.74299,0.01055
3019.71272,0.01063
3018.68246,0.01029
3017.65219,0.01002
3016.62192,0.01013
3015.59166,0.01047
3014.56139,0.01074
3013.53112,0.01077
3012.50085,0.01063
3011.47059,0.01051
3010.44032,0.01056
3009.41005,0.01075
3008.37979,0.01081
3007.34952,0.01067
3006.31925,0.01074
3005.28899,0.01094
3004.25872,0.01093
3003.22845,0.01104
3002.19818,0.01134
3001.16792,0.01135
3000.13765,0.01125
2999.10738,0.01150
2998.07712,0.01168
2997.04685,0.01162
2996.01658,0.01172
2994.98631,0.01214
2993.95605,0.01268
2992.92578,0.01295
2991.89551,0.01298
2990.86525,0.01306
2989.83498,0.01329
2988.80471,0.01394
2987.77445,0.01493
2986.74418,0.01580
2985.71391,0.01650
2984.68364,0.01724
2983.65338,0.01805
2982.62311,0.01872
2981.59284,0.01941
2980.56258,0.02045
2979.53231,0.02161
2978.50204,0.02284
2977.47178,0.02408
2976.44151,0.02515
2975.41124,0.02640
2974.38097,0.02789
2973.35071,0.02937
2972.32044,0.03079
2971.29017,0.03221
2970.25991,0.03394
2969.22964,0.03598
2968.19937,0.03782
2967.16910,0.03928
2966.13884,0.04063
2965.10857,0.04229
2964.07830,0.04423
2963.04804,0.04595
2962.01777,0.04760
2960.98750,0.04965
2959.95724,0.05188
2958.92697,0.05387
2957.89670,0.05570
2956.86643,0.05773
2955.83617,0.05972
2954.80590,0.06119
2953.77563,0.06241
2952.74537,0.06399
2951.71510,0.06581
2950.68483,0.06741
2949.65456,0.06870
2948.62430,0.06987
2947.59403,0.07100
2946.56376,0.07208
2945.53350,0.07317
2944.50323,0.07424
2943.47296,0.07530
2942.44270,0.07623
2941.41243,0.07688
2940.38216,0.07743
2939.35189,0.07820
2938.32163,0.07923
2937.29136,0.08015
2936.26109,0.08097
2935.23083,0.08198
2934.20056,0.08304
2933.17029,0.08417
2932.14002,0.08550
2931.10976,0.08675
2930.07949,0.08781
2929.04922,0.08886
2928.01896,0.09000
2926.98869,0.09131
2925.95842,0.09257
2924.92816,0.09356
2923.89789,0.09450
2922.86762,0.09572
2921.83735,0.09721
2920.80709,0.09874
2919.77682,0.10011
2918.74655,0.10132
2917.71629,0.10275
2916.68602,0.10437
2915.65575,0.10571
2914.62549,0.10706
2913.59522,0.10853
2912.56495,0.10989
2911.53468,0.11117
2910.50442,0.11219
2909.47415,0.11262
2908.44388,0.11256
2907.41362,0.11282
2906.38335,0.11359
2905.35308,0.11438
2904.32281,0.11515
2903.29255,0.11576
2902.26228,0.11618
2901.23201,0.11671
2900.20175,0.11771
2899.17148,0.11916
2898.14121,0.12018
2897.11095,0.12041
2896.08068,0.12086
2895.05041,0.12198
2894.02014,0.12296
2892.98988,0.12355
2891.95961,0.12444
2890.92934,0.12577
2889.89908,0.12696
2888.86881,0.12799
2887.83854,0.12956
2886.80827,0.13156
2885.77801,0.13302
2884.74774,0.13405
2883.71747,0.13563
2882.68721,0.13745
2881.65694,0.13870
2880.62667,0.13988
2879.59641,0.14157
2878.56614,0.14321
2877.53587,0.14465
2876.50560,0.14630
2875.47534,0.14779
2874.44507,0.14877
2873.41480,0.14953
2872.38454,0.15030
2871.35427,0.15104
2870.32400,0.15142
2869.29373,0.15123
2868.26347,0.15072
2867.23320,0.15002
2866.20293,0.14902
2865.17267,0.14740
2864.14240,0.14530
2863.11213,0.14314
2862.08187,0.14048
2861.05160,0.13727
2860.02133,0.13409
2858.99106,0.13103
2857.96080,0.12797
2856.93053,0.12493
2855.90026,0.12150
2854.87000,0.11730
2853.83973,0.11298
2852.80946,0.10926
2851.77919,0.10578
2850.74893,0.10205
2849.71866,0.09825
2848.68839,0.09471
2847.65813,0.09144
2846.62786,0.08820
2845.59759,0.08506
2844.56733,0.08214
2843.53706,0.07925
2842.50679,0.07634
2841.47652,0.07355
2840.44626,0.07076
2839.41599,0.06803
2838.38572,0.06584
2837.35546,0.06419
2836.32519,0.06245
2835.29492,0.06048
2834.26466,0.05879
2833.23439,0.05751
2832.20412,0.05625
2831.17385,0.05481
2830.14359,0.05335
2829.11332,0.05207
2828.08305,0.05102
2827.05279,0.05005
2826.02252,0.04878
2824.99225,0.04767
2823.96198,0.04733
2822.93172,0.04699
2821.90145,0.04590
2820.87118,0.04438
2819.84092,0.04313
2818.81065,0.04245
2817.78038,0.04190
2816.75012,0.04117
2815.71985,0.04059
2814.68958,0.04023
2813.65931,0.03978
2812.62905,0.03902
2811.59878,0.03808
2810.56851,0.03726
2809.53825,0.03650
2808.50798,0.03565
2807.47771,0.03494
2806.44744,0.03425
2805.41718,0.03328
2804.38691,0.03241
2803.35664,0.03198
2802.32638,0.03155
2801.29611,0.03095
2800.26584,0.03032
2799.23558,0.02946
2798.20531,0.02850
2797.17504,0.02772
2796.14477,0.02723
2795.11451,0.02703
2794.08424,0.02678
2793.05397,0.02631
2792.02371,0.02578
2790.99344,0.02519
2789.96317,0.02452
2788.93290,0.02391
2787.90264,0.02350
2786.87237,0.02341
2785.84210,0.02337
2784.81184,0.02294
2783.78157,0.02231
2782.75130,0.02187
2781.72104,0.02152
2780.69077,0.02117
2779.66050,0.02073
2778.63023,0.02022
2777.59997,0.02000
2776.56970,0.02000
2775.53943,0.01995
2774.50917,0.01964
2773.47890,0.01913
2772.44863,0.01885
2771.41837,0.01875
2770.38810,0.01831
2769.35783,0.01770
2768.32756,0.01752
2767.29730,0.01764
2766.26703,0.01763
2765.23676,0.01745
2764.20650,0.01730
2763.17623,0.01717
2762.14596,0.01696
2761.11569,0.01676
2760.08543,0.01667
2759.05516,0.01655
2758.02489,0.01654
2756.99463,0.01670
2755.96436,0.01667
2754.93409,0.01636
2753.90383,0.01610
2752.87356,0.01609
2751.84329,0.01627
2750.81302,0.01648
2749.78276,0.01665
2748.75249,0.01659
2747.72222,0.01632
2746.69196,0.01611
2745.66169,0.01614
2744.63142,0.01632
2743.60115,0.01637
2742.57089,0.01610
2741.54062,0.01569
2740.51035,0.01536
2739.48009,0.01518
2738.44982,0.01514
2737.41955,0.01518
2736.38929,0.01518
2735.35902,0.01505
2734.32875,0.01480
2733.29848,0.01459
2732.26822,0.01452
2731.23795,0.01447
2730.20768,0.01432
2729.17742,0.01406
2728.14715,0.01389
2727.11688,0.01408
2726.08661,0.01434
2725.05635,0.01421
2724.02608,0.01382
2722.99581,0.01347
2721.96555,0.01303
2720.93528,0.01259
2719.90501,0.01250
2718.87475,0.01265
2717.84448,0.01270
2716.81421,0.01257
2715.78394,0.01249
2714.75368,0.01271
2713.72341,0.01290
2712.69314,0.01258
2711.66288,0.01190
2710.63261,0.01137
2709.60234,0.01133
2708.57207,0.01170
2707.54181,0.01191
2706.51154,0.01157
2705.48127,0.01108
2704.45101,0.01090
2703.42074,0.01085
2702.39047,0.01075
2701.36021,0.01078
2700.32994,0.01074
2699.29967,0.01037
2698.26940,0.01023
2697.23914,0.01048
2696.20887,0.01039
2695.17860,0.00987
2694.14834,0.00939
2693.11807,0.00906
2692.08780,0.00882
2691.05754,0.00871
2690.02727,0.00881
2688.99700,0.00890
2687.96673,0.00845
2686.93647,0.00761
2685.90620,0.00705
2684.87593,0.00673
2683.84567,0.00656
2682.81540,0.00672
2681.78513,0.00692
2680.75486,0.00685
2679.72460,0.00658
2678.69433,0.00626
2677.66406,0.00615
2676.63380,0.00630
2675.60353,0.00647
2674.57326,0.00641
2673.54300,0.00633
2672.51273,0.00629
2671.48246,0.00602
2670.45219,0.00557
2669.42193,0.00537
2668.39166,0.00552
2667.36139,0.00564
2666.33113,0.00561
2665.30086,0.00553
2664.27059,0.00541
2663.24032,0.00531
2662.21006,0.00529
2661.17979,0.00537
2660.14952,0.00540
2659.11926,0.00535
2658.08899,0.00532
2657.05872,0.00517
2656.02846,0.00493
2654.99819,0.00502
2653.96792,0.00530
2652.93765,0.00540
2651.90739,0.00519
2650.87712,0.00478
2649.84685,0.00458
2648.81659,0.00475
2647.78632,0.00481
2646.75605,0.00457
2645.72578,0.00447
2644.69552,0.00461
2643.66525,0.00472
2642.63498,0.00477
2641.60472,0.00477
2640.57445,0.00473
2639.54418,0.00473
2638.51392,0.00468
2637.48365,0.00443
2636.45338,0.00421
2635.42311,0.00452
2634.39285,0.00495
2633.36258,0.00473
2632.33231,0.00400
2631.30205,0.00352
2630.27178,0.00358
2629.24151,0.00377
2628.21125,0.00386
2627.18098,0.00396
2626.15071,0.00396
2625.12044,0.00371
2624.09018,0.00349
2623.05991,0.00357
2622.02964,0.00378
2620.99938,0.00391
2619.96911,0.00384
2618.93884,0.00369
2617.90857,0.00368
2616.87831,0.00362
2615.84804,0.00349
2614.81777,0.00353
2613.78751,0.00347
2612.75724,0.00310
2611.72697,0.00308
2610.69671,0.00354
2609.66644,0.00401
2608.63617,0.00416
2607.60590,0.00391
2606.57564,0.00354
2605.54537,0.00319
2604.51510,0.00280
2603.48484,0.00268
2602.45457,0.00296
2601.42430,0.00326
2600.39403,0.00332
2599.36377,0.00315
2598.33350,0.00297
2597.30323,0.00285
2596.27297,0.00278
2595.24270,0.00300
2594.21243,0.00341
2593.18217,0.00352
2592.15190,0.00332
2591.12163,0.00309
2590.09136,0.00291
2589.06110,0.00291
2588.03083,0.00301
2587.00056,0.00297
2585.97030,0.00296
2584.94003,0.00275
2583.90976,0.00234
2582.87949,0.00234
2581.84923,0.00279
2580.81896,0.00336
2579.78869,0.00385
2578.75843,0.00381
2577.72816,0.00331
2576.69789,0.00302
2575.66763,0.00300
2574.63736,0.00294
2573.60709,0.00301
2572.57682,0.00343
2571.54656,0.00384
2570.51629,0.00351
2569.48602,0.00250
2568.45576,0.00226
2567.42549,0.00299
2566.39522,0.00350
2565.36496,0.00338
2564.33469,0.00290
2563.30442,0.00231
2562.27415,0.00179
2561.24389,0.00187
2560.21362,0.00269
2559.18335,0.00319
2558.15309,0.00290
2557.12282,0.00240
2556.09255,0.00212
2555.06228,0.00228
2554.03202,0.00274
2553.00175,0.00301
2551.97148,0.00290
2550.94122,0.00273
2549.91095,0.00265
2548.88068,0.00261
2547.85042,0.00288
2546.82015,0.00332
2545.78988,0.00349
2544.75961,0.00321
2543.72935,0.00282
2542.69908,0.00290
2541.66881,0.00312
2540.63855,0.00282
2539.60828,0.00244
2538.57801,0.00270
2537.54774,0.00321
2536.51748,0.00327
2535.48721,0.00290
2534.45694,0.00260
2533.42668,0.00264
2532.39641,0.00286
2531.36614,0.00276
2530.33588,0.00230
2529.30561,0.00203
2528.27534,0.00229
2527.24507,0.00286
2526.21481,0.00314
2525.18454,0.00299
2524.15427,0.00276
2523.12401,0.00283
2522.09374,0.00309
2521.06347,0.00303
2520.03320,0.00269
2519.00294,0.00235
2517.97267,0.00229
2516.94240,0.00270
2515.91214,0.00314
2514.88187,0.00304
2513.85160,0.00258
2512.82134,0.00243
2511.79107,0.00238
2510.76080,0.00206
2509.73053,0.00183
2508.70027,0.00188
2507.67000,0.00207
2506.63973,0.00232
2505.60947,0.00252
2504.57920,0.00291
2503.54893,0.00356
2502.51866,0.00374
2501.48840,0.00328
2500.45813,0.00270
2499.42786,0.00222
2498.39760,0.00195
2497.36733,0.00199
2496.33706,0.00216
2495.30680,0.00230
2494.27653,0.00254
2493.24626,0.00304
2492.21599,0.00358
2491.18573,0.00352
2490.15546,0.00280
2489.12519,0.00222
2488.09493,0.00215
2487.06466,0.00220
2486.03439,0.00231
2485.00413,0.00272
2483.97386,0.00303
2482.94359,0.00276
2481.91332,0.00224
2480.88306,0.00202
2479.85279,0.00230
2478.82252,0.00250
2477.79226,0.00219
2476.76199,0.00220
2475.73172,0.00279
2474.70145,0.00323
2473.67119,0.00326
2472.64092,0.00316
2471.61065,0.00291
2470.58039,0.00269
2469.55012,0.00253
2468.51985,0.00225
2467.48959,0.00241
2466.45932,0.00295
2465.42905,0.00295
2464.39878,0.00243
2463.36852,0.00213
2462.33825,0.00193
2461.30798,0.00146
2460.27772,0.00136
2459.24745,0.00195
2458.21718,0.00270
2457.18691,0.00308
2456.15665,0.00279
2455.12638,0.00231
2454.09611,0.00224
2453.06585,0.00223
2452.03558,0.00213
2451.00531,0.00234
2449.97505,0.00272
2448.94478,0.00293
2447.91451,0.00308
2446.88424,0.00335
2445.85398,0.00331
2444.82371,0.00290
2443.79344,0.00268
2442.76318,0.00270
2441.73291,0.00275
2440.70264,0.00272
2439.67237,0.00264
2438.64211,0.00256
2437.61184,0.00249
2436.58157,0.00249
2435.55131,0.00272
2434.52104,0.00315
2433.49077,0.00338
2432.46051,0.00313
2431.43024,0.00292
2430.39997,0.00320
2429.36970,0.00351
2428.33944,0.00353
2427.30917,0.00341
2426.27890,0.00322
2425.24864,0.00266
2424.21837,0.00200
2423.18810,0.00205
2422.15784,0.00229
2421.12757,0.00239
2420.09730,0.00303
2419.06703,0.00355
2418.03677,0.00317
2417.00650,0.00258
2415.97623,0.00239
2414.94597,0.00237
2413.91570,0.00243
2412.88543,0.00238
2411.85516,0.00219
2410.82490,0.00219
2409.79463,0.00240
2408.76436,0.00263
2407.73410,0.00264
2406.70383,0.00225
2405.67356,0.00180
2404.64330,0.00172
2403.61303,0.00207
2402.58276,0.00244
2401.55249,0.00271
2400.52223,0.00324
2399.49196,0.00379
2398.46169,0.00385
2397.43143,0.00342
2396.40116,0.00285
2395.37089,0.00254
2394.34062,0.00272
2393.31036,0.00307
2392.28009,0.00293
2391.24982,0.00240
2390.21956,0.00228
2389.18929,0.00257
2388.15902,0.00275
2387.12876,0.00294
2386.09849,0.00313
2385.06822,0.00315
2384.03795,0.00323
2383.00769,0.00335
2381.97742,0.00353
2380.94715,0.00364
2379.91689,0.00332
2378.88662,0.00291
2377.85635,0.00287
2376.82608,0.00296
2375.79582,0.00281
2374.76555,0.00252
2373.73528,0.00281
2372.70502,0.00366
2371.67475,0.00416
2370.64448,0.00392
2369.61422,0.00316
2368.58395,0.00311
2367.55368,0.00391
2366.52341,0.00399
2365.49315,0.00365
2364.46288,0.00440
2363.43261,0.00547
2362.40235,0.00444
2361.37208,0.00225
2360.34181,0.00201
2359.31154,0.00316
2358.28128,0.00386
2357.25101,0.00408
2356.22074,0.00371
2355.19048,0.00304
2354.16021,0.00311
2353.12994,0.00351
2352.09968,0.00350
2351.06941,0.00306
2350.03914,0.00248
2349.00887,0.00228
2347.97861,0.00272
2346.94834,0.00351
2345.91807,0.00388
2344.88781,0.00389
2343.85754,0.00460
2342.82727,0.00525
2341.79701,0.00473
2340.76674,0.00428
2339.73647,0.00484
2338.70620,0.00515
2337.67594,0.00429
2336.64567,0.00334
2335.61540,0.00296
2334.58514,0.00263
2333.55487,0.00269
2332.52460,0.00295
2331.49433,0.00287
2330.46407,0.00292
2329.43380,0.00328
2328.40353,0.00368
2327.37327,0.00372
2326.34300,0.00356
2325.31273,0.00372
2324.28247,0.00368
2323.25220,0.00324
2322.22193,0.00300
2321.19166,0.00311
2320.16140,0.00337
2319.13113,0.00354
2318.10086,0.00378
2317.07060,0.00405
2316.04033,0.00395
2315.01006,0.00373
2313.97979,0.00344
2312.94953,0.00287
2311.91926,0.00275
2310.88899,0.00296
2309.85873,0.00285
2308.82846,0.00276
2307.79819,0.00292
2306.76793,0.00303
2305.73766,0.00267
2304.70739,0.00234
2303.67712,0.00263
2302.64686,0.00325
2301.61659,0.00372
2300.58632,0.00368
2299.55606,0.00339
2298.52579,0.00334
2297.49552,0.00338
2296.46525,0.00314
2295.43499,0.00297
2294.40472,0.00300
2293.37445,0.00296
2292.34419,0.00286
2291.31392,0.00285
2290.28365,0.00300
2289.25339,0.00302
2288.22312,0.00292
2287.19285,0.00270
2286.16258,0.00231
2285.13232,0.00233
2284.10205,0.00271
2283.07178,0.00276
2282.04152,0.00263
2281.01125,0.00277
2279.98098,0.00293
2278.95072,0.00278
2277.92045,0.00270
2276.89018,0.00279
2275.85991,0.00262
2274.82965,0.00221
2273.79938,0.00181
2272.76911,0.00177
2271.73885,0.00197
2270.70858,0.00199
2269.67831,0.00213
2268.64804,0.00230
2267.61778,0.00201
2266.58751,0.00178
2265.55724,0.00201
2264.52698,0.00240
2263.49671,0.00290
2262.46644,0.00341
2261.43618,0.00340
2260.40591,0.00269
2259.37564,0.00197
2258.34537,0.00194
2257.31511,0.00226
2256.28484,0.00225
2255.25457,0.00192
2254.22431,0.00161
2253.19404,0.00165
2252.16377,0.00201
2251.13350,0.00231
2250.10324,0.00265
2249.07297,0.00284
2248.04270,0.00185
2247.01244,0.00037
2245.98217,0.00043
2244.95190,0.00143
2243.92164,0.00149
2242.89137,0.00162
2241.86110,0.00261
2240.83083,0.00265
2239.80057,0.00164
2238.77030,0.00146
2237.74003,0.00243
2236.70977,0.00335
2235.67950,0.00377
2234.64923,0.00396
2233.61896,0.00388
2232.58870,0.00365
2231.55843,0.00300
2230.52816,0.00172
2229.49790,0.00081
2228.46763,0.00124
2227.43736,0.00215
2226.40710,0.00253
2225.37683,0.00246
2224.34656,0.00185
2223.31629,0.00168
2222.28603,0.00243
2221.25576,0.00267
2220.22549,0.00276
2219.19523,0.00314
2218.16496,0.00211
2217.13469,0.00051
2216.10442,0.00036
2215.07416,0.00087
2214.04389,0.00168
2213.01362,0.00257
2211.98336,0.00190
2210.95309,0.00007
2209.92282,-0.00074
2208.89256,0.00014
2207.86229,0.00099
2206.83202,0.00064
2205.80175,0.00065
2204.77149,0.00097
2203.74122,0.00081
2202.71095,0.00154
2201.68069,0.00264
2200.65042,0.00295
2199.62015,0.00328
2198.58989,0.00319
2197.55962,0.00242
2196.52935,0.00238
2195.49908,0.00250
2194.46882,0.00274
2193.43855,0.00414
2192.40828,0.00480
2191.37802,0.00359
2190.34775,0.00248
2189.31748,0.00242
2188.28721,0.00259
2187.25695,0.00222
2186.22668,0.00108
2185.19641,-0.00005
2184.16615,-0.00085
2183.13588,-0.00114
2182.10561,-0.00005
2181.07535,0.00095
2180.04508,-0.00039
2179.01481,-0.00200
2177.98454,-0.00107
2176.95428,0.00037
2175.92401,-0.00003
2174.89374,-0.00143
2173.86348,-0.00180
2172.83321,-0.00055
2171.80294,0.00059
2170.77267,0.00148
2169.74241,0.00328
2168.71214,0.00483
2167.68187,0.00446
2166.65161,0.00276
2165.62134,0.00063
2164.59107,-0.00097
2163.56081,-0.00170
2162.53054,-0.00229
2161.50027,-0.00206
2160.47000,-0.00066
2159.43974,0.00082
2158.40947,0.00186
2157.37920,0.00271
2156.34894,0.00299
2155.31867,0.00209
2154.28840,0.00110
2153.25813,0.00135
2152.22787,0.00205
2151.19760,0.00280
2150.16733,0.00406
2149.13707,0.00510
2148.10680,0.00579
2147.07653,0.00658
2146.04627,0.00645
2145.01600,0.00504
2143.98573,0.00417
2142.95546,0.00401
2141.92520,0.00365
2140.89493,0.00384
2139.86466,0.00468
2138.83440,0.00489
2137.80413,0.00406
2136.77386,0.00353
2135.74360,0.00452
2134.71333,0.00663
2133.68306,0.00816
2132.65279,0.00763
2131.62253,0.00572
2130.59226,0.00436
2129.56199,0.00401
2128.53173,0.00359
2127.50146,0.00339
2126.47119,0.00387
2125.44092,0.00463
2124.41066,0.00579
2123.38039,0.00648
2122.35012,0.00627
2121.31986,0.00630
2120.28959,0.00650
2119.25932,0.00606
2118.22906,0.00553
2117.19879,0.00546
2116.16852,0.00518
2115.13825,0.00515
2114.10799,0.00598
2113.07772,0.00634
2112.04745,0.00621
2111.01719,0.00676
2109.98692,0.00724
2108.95665,0.00668
2107.92638,0.00610
2106.89612,0.00629
2105.86585,0.00629
2104.83558,0.00557
2103.80532,0.00515
2102.77505,0.00579
2101.74478,0.00658
2100.71452,0.00665
2099.68425,0.00617
2098.65398,0.00605
2097.62371,0.00703
2096.59345,0.00779
2095.56318,0.00722
2094.53291,0.00632
2093.50265,0.00565
2092.47238,0.00508
2091.44211,0.00464
2090.41184,0.00431
2089.38158,0.00467
2088.35131,0.00565
2087.32104,0.00613
2086.29078,0.00607
2085.26051,0.00608
2084.23024,0.00582
2083.19998,0.00562
2082.16971,0.00608
2081.13944,0.00593
2080.10917,0.00487
2079.07891,0.00426
2078.04864,0.00445
2077.01837,0.00540
2075.98811,0.00678
2074.95784,0.00697
2073.92757,0.00578
2072.89731,0.00566
2071.86704,0.00706
2070.83677,0.00773
2069.80650,0.00681
2068.77624,0.00596
2067.74597,0.00554
2066.71570,0.00483
2065.68544,0.00473
2064.65517,0.00524
2063.62490,0.00559
2062.59463,0.00513
2061.56437,0.00400
2060.53410,0.00351
2059.50383,0.00429
2058.47357,0.00532
2057.44330,0.00507
2056.41303,0.00437
2055.38277,0.00426
2054.35250,0.00406
2053.32223,0.00351
2052.29196,0.00270
2051.26170,0.00197
2050.23143,0.00209
2049.20116,0.00248
2048.17090,0.00266
2047.14063,0.00285
2046.11036,0.00247
2045.08009,0.00212
2044.04983,0.00260
2043.01956,0.00375
2041.98929,0.00469
2040.95903,0.00477
2039.92876,0.00477
2038.89849,0.00525
2037.86823,0.00464
2036.83796,0.00285
2035.80769,0.00260
2034.77742,0.00457
2033.74716,0.00674
2032.71689,0.00655
2031.68662,0.00484
2030.65636,0.00454
2029.62609,0.00587
2028.59582,0.00631
2027.56555,0.00426
2026.53529,0.00228
2025.50502,0.00334
2024.47475,0.00546
2023.44449,0.00571
2022.41422,0.00543
2021.38395,0.00547
2020.35369,0.00538
2019.32342,0.00455
2018.29315,0.00271
2017.26288,0.00226
2016.23262,0.00377
2015.20235,0.00507
2014.17208,0.00493
2013.14182,0.00392
2012.11155,0.00337
2011.08128,0.00361
2010.05101,0.00323
2009.02075,0.00160
2007.99048,0.00067
2006.96021,0.00248
2005.92995,0.00494
2004.89968,0.00423
2003.86941,0.00292
2002.83915,0.00450
2001.80888,0.00632
2000.77861,0.00607
1999.74834,0.00499
1998.71808,0.00385
1997.68781,0.00350
1996.65754,0.00467
1995.62728,0.00546
1994.59701,0.00479
1993.56674,0.00388
1992.53648,0.00377
1991.50621,0.00347
1990.47594,0.00242
1989.44567,0.00241
1988.41541,0.00407
1987.38514,0.00573
1986.35487,0.00591
1985.32461,0.00572
1984.29434,0.00601
1983.26407,0.00565
1982.23380,0.00439
1981.20354,0.00302
1980.17327,0.00299
1979.14300,0.00389
1978.11274,0.00341
1977.08247,0.00310
1976.05220,0.00471
1975.02194,0.00639
1973.99167,0.00713
1972.96140,0.00723
1971.93113,0.00751
1970.90087,0.00825
1969.87060,0.00761
1968.84033,0.00604
1967.81007,0.00602
1966.77980,0.00649
1965.74953,0.00602
1964.71926,0.00560
1963.68900,0.00571
1962.65873,0.00723
1961.62846,0.00948
1960.59820,0.00890
1959.56793,0.00579
1958.53766,0.00427
1957.50740,0.00556
1956.47713,0.00726
1955.44686,0.00765
1954.41659,0.00759
1953.38633,0.00776
1952.35606,0.00754
1951.32579,0.00668
1950.29553,0.00615
1949.26526,0.00658
1948.23499,0.00717
1947.20472,0.00703
1946.17446,0.00658
1945.14419,0.00657
1944.11392,0.00655
1943.08366,0.00626
1942.05339,0.00671
1941.02312,0.00780
1939.99286,0.00818
1938.96259,0.00783
1937.93232,0.00753
1936.90205,0.00773
1935.87179,0.00802
1934.84152,0.00790
1933.81125,0.00774
1932.78099,0.00750
1931.75072,0.00715
1930.72045,0.00700
1929.69019,0.00681
1928.65992,0.00635
1927.62965,0.00593
1926.59938,0.00593
1925.56912,0.00594
1924.53885,0.00546
1923.50858,0.00484
1922.47832,0.00479
1921.44805,0.00488
1920.41778,0.00457
1919.38751,0.00466
1918.35725,0.00546
1917.32698,0.00583
1916.29671,0.00538
1915.26645,0.00472
1914.23618,0.00396
1913.20591,0.00342
1912.17565,0.00383
1911.14538,0.00473
1910.11511,0.00469
1909.08484,0.00372
1908.05458,0.00338
1907.02431,0.00381
1905.99404,0.00385
1904.96378,0.00339
1903.93351,0.00333
1902.90324,0.00363
1901.87297,0.00363
1900.84271,0.00370
1899.81244,0.00401
1898.78217,0.00421
1897.75191,0.00437
1896.72164,0.00433
1895.69137,0.00406
1894.66111,0.00391
1893.63084,0.00370
1892.60057,0.00332
1891.57030,0.00305
1890.54004,0.00280
1889.50977,0.00279
1888.47950,0.00364
1887.44924,0.00452
1886.41897,0.00467
1885.38870,0.00437
1884.35843,0.00406
1883.32817,0.00398
1882.29790,0.00394
1881.26763,0.00373
1880.23737,0.00349
1879.20710,0.00312
1878.17683,0.00295
1877.14657,0.00329
1876.11630,0.00350
1875.08603,0.00331
1874.05576,0.00327
1873.02550,0.00324
1871.99523,0.00282
1870.96496,0.00212
1869.93470,0.00139
1868.90443,0.00141
1867.87416,0.00230
1866.84389,0.00301
1865.81363,0.00335
1864.78336,0.00336
1863.75309,0.00299
1862.72283,0.00283
1861.69256,0.00330
1860.66229,0.00369
1859.63203,0.00355
1858.60176,0.00325
1857.57149,0.00289
1856.54122,0.00276
1855.51096,0.00314
1854.48069,0.00350
1853.45042,0.00334
1852.42016,0.00315
1851.38989,0.00306
1850.35962,0.00276
1849.32936,0.00271
1848.29909,0.00291
1847.26882,0.00296
1846.23855,0.00317
1845.20829,0.00396
1844.17802,0.00476
1843.14775,0.00417
1842.11749,0.00314
1841.08722,0.00263
1840.05695,0.00250
1839.02668,0.00266
1837.99642,0.00291
1836.96615,0.00296
1835.93588,0.00311
1834.90562,0.00343
1833.87535,0.00368
1832.84508,0.00370
1831.81482,0.00369
1830.78455,0.00380
1829.75428,0.00382
1828.72401,0.00403
1827.69375,0.00443
1826.66348,0.00459
1825.63321,0.00441
1824.60295,0.00405
1823.57268,0.00391
1822.54241,0.00422
1821.51214,0.00452
1820.48188,0.00428
1819.45161,0.00379
1818.42134,0.00363
1817.39108,0.00368
1816.36081,0.00373
1815.33054,0.00391
1814.30028,0.00406
1813.27001,0.00419
1812.23974,0.00441
1811.20947,0.00462
1810.17921,0.00444
1809.14894,0.00409
1808.11867,0.00404
1807.08841,0.00392
1806.05814,0.00370
1805.02787,0.00395
1803.99760,0.00431
1802.96734,0.00441
1801.93707,0.00479
1800.90680,0.00518
1799.87654,0.00482
1798.84627,0.00416
1797.81600,0.00416
1796.78574,0.00456
1795.75547,0.00459
1794.72520,0.00450
1793.69493,0.00485
1792.66467,0.00532
1791.63440,0.00506
1790.60413,0.00448
1789.57387,0.00443
1788.54360,0.00461
1787.51333,0.00469
1786.48307,0.00476
1785.45280,0.00479
1784.42253,0.00489
1783.39226,0.00510
1782.36200,0.00534
1781.33173,0.00567
1780.30146,0.00570
1779.27120,0.00537
1778.24093,0.00520
1777.21066,0.00520
1776.18039,0.00534
1775.15013,0.00562
1774.11986,0.00567
1773.08959,0.00537
1772.05933,0.00517
1771.02906,0.00534
1769.99879,0.00548
1768.96853,0.00550
1767.93826,0.00556
1766.90799,0.00572
1765.87772,0.00588
1764.84746,0.00602
1763.81719,0.00609
1762.78692,0.00601
1761.75666,0.00593
1760.72639,0.00619
1759.69612,0.00643
1758.66585,0.00650
1757.63559,0.00651
1756.60532,0.00649
1755.57505,0.00651
1754.54479,0.00661
1753.51452,0.00693
1752.48425,0.00735
1751.45399,0.00741
1750.42372,0.00724
1749.39345,0.00736
1748.36318,0.00743
1747.33292,0.00722
1746.30265,0.00710
1745.27238,0.00723
1744.24212,0.00737
1743.21185,0.00746
1742.18158,0.00768
1741.15131,0.00797
1740.12105,0.00800
1739.09078,0.00775
1738.06051,0.00771
1737.03025,0.00786
1735.99998,0.00785
1734.96971,0.00751
1733.93945,0.00744
1732.90918,0.00820
1731.87891,0.00888
1730.84864,0.00941
1729.81838,0.00954
1728.78811,0.00933
1727.75784,0.00930
1726.72758,0.00949
1725.69731,0.00977
1724.66704,0.01005
1723.63677,0.01011
1722.60651,0.01014
1721.57624,0.01025
1720.54597,0.01027
1719.51571,0.01045
1718.48544,0.01082
1717.45517,0.01089
1716.42491,0.01081
1715.39464,0.01102
1714.36437,0.01148
1713.33410,0.01201
1712.30384,0.01236
1711.27357,0.01255
1710.24330,0.01286
1709.21304,0.01322
1708.18277,0.01333
1707.15250,0.01331
1706.12224,0.01365
1705.09197,0.01424
1704.06170,0.01462
1703.03143,0.01504
1702.00117,0.01559
1700.97090,0.01598
1699.94063,0.01633
1698.91037,0.01668
1697.88010,0.01682
1696.84983,0.01705
1695.81956,0.01777
1694.78930,0.01841
1693.75903,0.01872
1692.72876,0.01925
1691.69850,0.01993
1690.66823,0.02062
1689.63796,0.02142
1688.60770,0.02245
1687.57743,0.02342
1686.54716,0.02403
1685.51689,0.02469
1684.48663,0.02586
1683.45636,0.02713
1682.42609,0.02816
1681.39583,0.02915
1680.36556,0.03023
1679.33529,0.03126
1678.30502,0.03206
1677.27476,0.03292
1676.24449,0.03397
1675.21422,0.03552
1674.18396,0.03729
1673.15369,0.03883
1672.12342,0.04061
1671.09316,0.04241
1670.06289,0.04337
1669.03262,0.04403
1668.00235,0.04531
1666.97209,0.04675
1665.94182,0.04811
1664.91155,0.04947
1663.88129,0.05109
1662.85102,0.05305
1661.82075,0.05468
1660.79048,0.05599
1659.76022,0.05739
1658.72995,0.05867
1657.69968,0.05971
1656.66942,0.06078
1655.63915,0.06228
1654.60888,0.06429
1653.57862,0.06585
1652.54835,0.06590
1651.51808,0.06630
1650.48781,0.06691
1649.45755,0.06751
1648.42728,0.06815
1647.39701,0.06851
1646.36675,0.06816
1645.33648,0.06761
1644.30621,0.06768
1643.27595,0.06785
1642.24568,0.06761
1641.21541,0.06709
1640.18514,0.06660
1639.15488,0.06627
1638.12461,0.06602
1637.09434,0.06560
1636.06408,0.06464
1635.03381,0.06302
1634.00354,0.06210
1632.97327,0.06162
1631.94301,0.06079
1630.91274,0.05954
1629.88247,0.05816
1628.85221,0.05674
1627.82194,0.05494
1626.79167,0.05333
1625.76141,0.05220
1624.73114,0.05106
1623.70087,0.04929
1622.67060,0.04692
1621.64034,0.04534
1620.61007,0.04413
1619.57980,0.04260
1618.54954,0.04121
1617.51927,0.04009
1616.48900,0.03827
1615.45873,0.03658
1614.42847,0.03548
1613.39820,0.03424
1612.36793,0.03296
1611.33767,0.03171
1610.30740,0.03029
1609.27713,0.02885
1608.24687,0.02773
1607.21660,0.02671
1606.18633,0.02565
1605.15606,0.02482
1604.12580,0.02419
1603.09553,0.02344
1602.06526,0.02269
1601.03500,0.02205
1600.00473,0.02143
1598.97446,0.02083
1597.94419,0.02029
1596.91393,0.01976
1595.88366,0.01923
1594.85339,0.01861
1593.82313,0.01791
1592.79286,0.01734
1591.76259,0.01703
1590.73233,0.01680
1589.70206,0.01658
1588.67179,0.01645
1587.64152,0.01628
1586.61126,0.01596
1585.58099,0.01546
1584.55072,0.01496
1583.52046,0.01470
1582.49019,0.01450
1581.45992,0.01427
1580.42966,0.01417
1579.39939,0.01408
1578.36912,0.01391
1577.33885,0.01397
1576.30859,0.01408
1575.27832,0.01378
1574.24805,0.01342
1573.21779,0.01319
1572.18752,0.01308
1571.15725,0.01318
1570.12698,0.01339
1569.09672,0.01306
1568.06645,0.01256
1567.03618,0.01235
1566.00592,0.01240
1564.97565,0.01253
1563.94538,0.01256
1562.91512,0.01284
1561.88485,0.01333
1560.85458,0.01372
1559.82431,0.01356
1558.79405,0.01293
1557.76378,0.01263
1556.73351,0.01252
1555.70325,0.01249
1554.67298,0.01233
1553.64271,0.01227
1552.61244,0.01265
1551.58218,0.01284
1550.55191,0.01254
1549.52164,0.01220
1548.49138,0.01212
1547.46111,0.01220
1546.43084,0.01235
1545.40058,0.01238
1544.37031,0.01219
1543.34004,0.01211
1542.30977,0.01203
1541.27951,0.01166
1540.24924,0.01101
1539.21897,0.01070
1538.18871,0.01114
1537.15844,0.01137
1536.12817,0.01152
1535.09790,0.01162
1534.06764,0.01165
1533.03737,0.01189
1532.00710,0.01198
1530.97684,0.01174
1529.94657,0.01157
1528.91630,0.01174
1527.88604,0.01216
1526.85577,0.01238
1525.82550,0.01227
1524.79523,0.01215
1523.76497,0.01214
1522.73470,0.01221
1521.70443,0.01249
1520.67417,0.01260
1519.64390,0.01232
1518.61363,0.01240
1517.58336,0.01275
1516.55310,0.01275
1515.52283,0.01247
1514.49256,0.01216
1513.46230,0.01199
1512.43203,0.01222
1511.40176,0.01258
1510.37150,0.01279
1509.34123,0.01307
1508.31096,0.01350
1507.28069,0.01380
1506.25043,0.01369
1505.22016,0.01377
1504.18989,0.01406
1503.15963,0.01437
1502.12936,0.01458
1501.09909,0.01480
1500.06883,0.01547
1499.03856,0.01663
1498.00829,0.01758
1496.97802,0.01823
1495.94776,0.01915
1494.91749,0.02018
1493.88722,0.02147
1492.85696,0.02308
1491.82669,0.02481
1490.79642,0.02674
1489.76615,0.02866
1488.73589,0.03008
1487.70562,0.03123
1486.67535,0.03221
1485.64509,0.03299
1484.61482,0.03383
1483.58455,0.03475
1482.55429,0.03605
1481.52402,0.03792
1480.49375,0.04017
1479.46348,0.04270
1478.43322,0.04558
1477.40295,0.04870
1476.37268,0.05234
1475.34242,0.05600
1474.31215,0.05898
1473.28188,0.06212
1472.25161,0.06513
1471.22135,0.06685
1470.19108,0.06772
1469.16081,0.06835
1468.13055,0.06890
1467.10028,0.06970
1466.07001,0.07061
1465.03975,0.07129
1464.00948,0.07191
1462.97921,0.07259
1461.94894,0.07342
1460.91868,0.07428
1459.88841,0.07506
1458.85814,0.07590
1457.82788,0.07701
1456.79761,0.07769
1455.76734,0.07776
1454.73707,0.07769
1453.70681,0.07740
1452.67654,0.07673
1451.64627,0.07552
1450.61601,0.07384
1449.58574,0.07201
1448.55547,0.06989
1447.52521,0.06719
1446.49494,0.06474
1445.46467,0.06269
1444.43440,0.06091
1443.40414,0.05937
1442.37387,0.05766
1441.34360,0.05575
1440.31334,0.05379
1439.28307,0.05174
1438.25280,0.04981
1437.22254,0.04737
1436.19227,0.04367
1435.16200,0.04119
1434.13173,0.03976
1433.10147,0.03845
1432.07120,0.03723
1431.04093,0.03614
1430.01067,0.03509
1428.98040,0.03419
1427.95013,0.03358
1426.91986,0.03302
1425.88960,0.03266
1424.85933,0.03258
1423.82906,0.03252
1422.79880,0.03229
1421.76853,0.03210
1420.73826,0.03212
1419.70800,0.03198
1418.67773,0.03163
1417.64746,0.03174
1416.61719,0.03181
1415.58693,0.03162
1414.55666,0.03143
1413.52639,0.03138
1412.49613,0.03155
1411.46586,0.03180
1410.43559,0.03180
1409.40532,0.03173
1408.37506,0.03198
1407.34479,0.03242
1406.31452,0.03270
1405.28426,0.03276
1404.25399,0.03268
1403.22372,0.03246
1402.19346,0.03212
1401.16319,0.03194
1400.13292,0.03214
1399.10265,0.03262
1398.07239,0.03298
1397.04212,0.03319
1396.01185,0.03340
1394.98159,0.03346
1393.95132,0.03336
1392.92105,0.03336
1391.89078,0.03358
1390.86052,0.03388
1389.83025,0.03427
1388.79998,0.03476
1387.76972,0.03524
1386.73945,0.03553
1385.70918,0.03559
1384.67892,0.03569
1383.64865,0.03604
1382.61838,0.03641
1381.58811,0.03675
1380.55785,0.03730
1379.52758,0.03807
1378.49731,0.03886
1377.46705,0.03966
1376.43678,0.04066
1375.40651,0.04174
1374.37624,0.04265
1373.34598,0.04346
1372.31571,0.04455
1371.28544,0.04600
1370.25518,0.04754
1369.22491,0.04899
1368.19464,0.05054
1367.16438,0.05225
1366.13411,0.05407
1365.10384,0.05609
1364.07357,0.05829
1363.04331,0.06096
1362.01304,0.06405
1360.98277,0.06752
1359.95251,0.07146
1358.92224,0.07566
1357.89197,0.08038
1356.86171,0.08542
1355.83144,0.09043
1354.80117,0.09567
1353.77090,0.10116
1352.74064,0.10665
1351.71037,0.11199
1350.68010,0.11671
1349.64984,0.12029
1348.61957,0.12194
1347.58930,0.12047
1346.55903,0.11535
1345.52877,0.10669
1344.49850,0.09524
1343.46823,0.08293
1342.43797,0.07225
1341.40770,0.06396
1340.37743,0.05755
1339.34717,0.05325
1338.31690,0.05096
1337.28663,0.05003
1336.25636,0.04994
1335.22610,0.05023
1334.19583,0.05084
1333.16556,0.05162
1332.13530,0.05237
1331.10503,0.05331
1330.07476,0.05446
1329.04449,0.05539
1328.01423,0.05589
1326.98396,0.05603
1325.95369,0.05574
1324.92343,0.05487
1323.89316,0.05355
1322.86289,0.05210
1321.83263,0.05066
1320.80236,0.04940
1319.77209,0.04865
1318.74182,0.04861
1317.71156,0.04897
1316.68129,0.04946
1315.65102,0.05024
1314.62076,0.05165
1313.59049,0.05378
1312.56022,0.05622
1311.52995,0.05847
1310.49969,0.06093
1309.46942,0.06409
1308.43915,0.06731
1307.40889,0.07003
1306.37862,0.07257
1305.34835,0.07509
1304.31809,0.07738
1303.28782,0.07926
1302.25755,0.08077
1301.22728,0.08203
1300.19702,0.08302
1299.16675,0.08369
1298.13648,0.08398
1297.10622,0.08398
1296.07595,0.08389
1295.04568,0.08362
1294.01542,0.08315
1292.98515,0.08283
1291.95488,0.08266
1290.92461,0.08242
1289.89435,0.08206
1288.86408,0.08165
1287.83381,0.08110
1286.80355,0.08033
1285.77328,0.07943
1284.74301,0.07848
1283.71274,0.07748
1282.68248,0.07628
1281.65221,0.07498
1280.62194,0.07365
1279.59168,0.07202
1278.56141,0.07014
1277.53114,0.06842
1276.50088,0.06692
1275.47061,0.06547
1274.44034,0.06394
1273.41007,0.06246
1272.37981,0.06149
1271.34954,0.06096
1270.31927,0.06041
1269.28901,0.06000
1268.25874,0.06006
1267.22847,0.06066
1266.19820,0.06176
1265.16794,0.06305
1264.13767,0.06447
1263.10740,0.06645
1262.07714,0.06884
1261.04687,0.07130
1260.01660,0.07415
1258.98634,0.07755
1257.95607,0.08102
1256.92580,0.08418
1255.89553,0.08708
1254.86527,0.09005
1253.83500,0.09288
1252.80473,0.09507
1251.77447,0.09672
1250.74420,0.09809
1249.71393,0.09898
1248.68366,0.09924
1247.65340,0.09870
1246.62313,0.09736
1245.59286,0.09560
1244.56260,0.09353
1243.53233,0.09093
1242.50206,0.08792
1241.47180,0.08473
1240.44153,0.08150
1239.41126,0.07835
1238.38099,0.07513
1237.35073,0.07186
1236.32046,0.06883
1235.29019,0.06598
1234.25993,0.06322
1233.22966,0.06057
1232.19939,0.05792
1231.16912,0.05533
1230.13886,0.05313
1229.10859,0.05138
1228.07832,0.04984
1227.04806,0.04813
1226.01779,0.04650
1224.98752,0.04522
1223.95726,0.04417
1222.92699,0.04328
1221.89672,0.04244
1220.86645,0.04155
1219.83619,0.04075
1218.80592,0.04007
1217.77565,0.03934
1216.74539,0.03849
1215.71512,0.03751
1214.68485,0.03655
1213.65459,0.03572
1212.62432,0.03483
1211.59405,0.03401
1210.56378,0.03367
1209.53352,0.03354
1208.50325,0.03321
1207.47298,0.03264
1206.44272,0.03203
1205.41245,0.03155
1204.38218,0.03120
1203.35191,0.03097
1202.32165,0.03083
1201.29138,0.03070
1200.26111,0.03060
1199.23085,0.03068
1198.20058,0.03095
1197.17031,0.03110
1196.14005,0.03099
1195.10978,0.03089
1194.07951,0.03094
1193.04924,0.03111
1192.01898,0.03131
1190.98871,0.03142
1189.95844,0.03153
1188.92818,0.03184
1187.89791,0.03214
1186.86764,0.03240
1185.83737,0.03293
1184.80711,0.03362
1183.77684,0.03400
1182.74657,0.03417
1181.71631,0.03454
1180.68604,0.03508
1179.65577,0.03571
1178.62551,0.03667
1177.59524,0.03776
1176.56497,0.03884
1175.53470,0.03992
1174.50444,0.04086
1173.47417,0.04203
1172.44390,0.04353
1171.41364,0.04485
1170.38337,0.04628
1169.35310,0.04833
1168.32283,0.05070
1167.29257,0.05316
1166.26230,0.05604
1165.23203,0.05935
1164.20177,0.06316
1163.17150,0.06761
1162.14123,0.07246
1161.11097,0.07766
1160.08070,0.08351
1159.05043,0.09000
1158.02016,0.09706
1156.98990,0.10465
1155.95963,0.11272
1154.92936,0.12117
1153.89910,0.12983
1152.86883,0.13860
1151.83856,0.14764
1150.80830,0.15702
1149.77803,0.16635
1148.74776,0.17541
1147.71749,0.18425
1146.68723,0.19279
1145.65696,0.20100
1144.62669,0.20883
1143.59643,0.21633
1142.56616,0.22366
1141.53589,0.23064
1140.50562,0.23698
1139.47536,0.24275
1138.44509,0.24818
1137.41482,0.25322
1136.38456,0.25793
1135.35429,0.26264
1134.32402,0.26707
1133.29376,0.27101
1132.26349,0.27501
1131.23322,0.27927
1130.20295,0.28359
1129.17269,0.28807
1128.14242,0.29261
1127.11215,0.29733
1126.08189,0.30274
1125.05162,0.30866
1124.02135,0.31441
1122.99108,0.32007
1121.96082,0.32612
1120.93055,0.33262
1119.90028,0.33926
1118.87002,0.34608
1117.83975,0.35327
1116.80948,0.36022
1115.77922,0.36676
1114.74895,0.37346
1113.71868,0.38036
1112.68841,0.38759
1111.65815,0.39534
1110.62788,0.40329
1109.59761,0.41121
1108.56735,0.41906
1107.53708,0.42711
1106.50681,0.43531
1105.47654,0.44346
1104.44628,0.45164
1103.41601,0.45984
1102.38574,0.46853
1101.35548,0.47725
1100.32521,0.48508
1099.29494,0.49253
1098.26468,0.49992
1097.23441,0.50711
1096.20414,0.51381
1095.17387,0.51945
1094.14361,0.52445
1093.11334,0.52918
1092.08307,0.53267
1091.05281,0.53470
1090.02254,0.53644
1088.99227,0.53832
1087.96201,0.53939
1086.93174,0.53925
1085.90147,0.53828
1084.87120,0.53662
1083.84094,0.53373
1082.81067,0.52959
1081.78040,0.52488
1080.75014,0.52012
1079.71987,0.51556
1078.68960,0.51097
1077.65933,0.50637
1076.62907,0.50169
1075.59880,0.49647
1074.56853,0.49114
1073.53827,0.48618
1072.50800,0.48093
1071.47773,0.47570
1070.44747,0.47099
1069.41720,0.46623
1068.38693,0.46138
1067.35666,0.45646
1066.32640,0.45071
1065.29613,0.44371
1064.26586,0.43613
1063.23560,0.42796
1062.20533,0.41827
1061.17506,0.40736
1060.14479,0.39622
1059.11453,0.38479
1058.08426,0.37264
1057.05399,0.36013
1056.02373,0.34787
1054.99346,0.33597
1053.96319,0.32446
1052.93293,0.31342
1051.90266,0.30270
1050.87239,0.29255
1049.84212,0.28346
1048.81186,0.27559
1047.78159,0.26885
1046.75132,0.26345
1045.72106,0.25936
1044.69079,0.25607
1043.66052,0.25364
1042.63025,0.25220
1041.59999,0.25145
1040.56972,0.25095
1039.53945,0.25050
1038.50919,0.25001
1037.47892,0.24903
1036.44865,0.24772
1035.41839,0.24634
1034.38812,0.24468
1033.35785,0.24253
1032.32758,0.23941
1031.29732,0.23534
1030.26705,0.23064
1029.23678,0.22505
1028.20652,0.21892
1027.17625,0.21337
1026.14598,0.20785
1025.11571,0.20120
1024.08545,0.19416
1023.05518,0.18740
1022.02491,0.18027
1020.99465,0.17273
1019.96438,0.16548
1018.93411,0.15863
1017.90385,0.15217
1016.87358,0.14599
1015.84331,0.14023
1014.81304,0.13490
1013.78278,0.12964
1012.75251,0.12490
1011.72224,0.12114
1010.69198,0.11807
1009.66171,0.11517
1008.63144,0.11236
1007.60118,0.11012
1006.57091,0.10851
1005.54064,0.10705
1004.51037,0.10588
1003.48011,0.10517
1002.44984,0.10459
1001.41957,0.10411
1000.38931,0.10359
999.35904,0.10295
998.32877,0.10272
997.29850,0.10276
996.26824,0.10243
995.23797,0.10183
994.20770,0.10120
993.17744,0.10073
992.14717,0.10028
991.11690,0.09924
990.08664,0.09749
989.05637,0.09559
988.02610,0.09409
986.99583,0.09267
985.96557,0.09100
984.93530,0.08940
983.90503,0.08776
982.87477,0.08578
981.84450,0.08384
980.81423,0.08215
979.78396,0.08058
978.75370,0.07923
977.72343,0.07811
976.69316,0.07715
975.66290,0.07652
974.63263,0.07634
973.60236,0.07657
972.57210,0.07717
971.54183,0.07804
970.51156,0.07929
969.48129,0.08105
968.45103,0.08311
967.42076,0.08534
966.39049,0.08812
965.36023,0.09188
964.32996,0.09661
963.29969,0.10207
962.26942,0.10820
961.23916,0.11509
960.20889,0.12255
959.17862,0.13024
958.14836,0.13798
957.11809,0.14567
956.08782,0.15333
955.05756,0.16118
954.02729,0.16897
952.99702,0.17589
951.96675,0.18168
950.93649,0.18672
949.90622,0.19096
948.87595,0.19415
947.84569,0.19636
946.81542,0.19759
945.78515,0.19791
944.75489,0.19727
943.72462,0.19576
942.69435,0.19382
941.66408,0.19182
940.63382,0.18957
939.60355,0.18683
938.57328,0.18395
937.54302,0.18108
936.51275,0.17824
935.48248,0.17544
934.45221,0.17257
933.42195,0.16938
932.39168,0.16551
931.36141,0.16139
930.33115,0.15778
929.30088,0.15487
928.27061,0.15207
927.24035,0.14889
926.21008,0.14575
925.17981,0.14294
924.14954,0.14024
923.11928,0.13756
922.08901,0.13497
921.05874,0.13289
920.02848,0.13116
918.99821,0.12890
917.96794,0.12623
916.93767,0.12387
915.90741,0.12181
914.87714,0.11980
913.84687,0.11778
912.81661,0.11560
911.78634,0.11315
910.75607,0.11054
909.72581,0.10799
908.69554,0.10555
907.66527,0.10289
906.63500,0.10024
905.60474,0.09797
904.57447,0.09567
903.54420,0.09338
902.51394,0.09174
901.48367,0.09099
900.45340,0.09090
899.42313,0.09088
898.39287,0.09076
897.36260,0.09095
896.33233,0.09154
895.30207,0.09252
894.27180,0.09438
893.24153,0.09706
892.21127,0.09976
891.18100,0.10205
890.15073,0.10437
889.12046,0.10740
888.09020,0.11051
887.05993,0.11269
886.02966,0.11409
884.99940,0.11484
883.96913,0.11488
882.93886,0.11433
881.90859,0.11297
880.87833,0.11088
879.84806,0.10870
878.81779,0.10646
877.78753,0.10441
876.75726,0.10340
875.72699,0.10297
874.69673,0.10242
873.66646,0.10234
872.63619,0.10278
871.60592,0.10325
870.57566,0.10409
869.54539,0.10543
868.51512,0.10668
867.48486,0.10751
866.45459,0.10836
865.42432,0.10973
864.39406,0.11142
863.36379,0.11284
862.33352,0.11394
861.30325,0.11467
860.27299,0.11534
859.24272,0.11657
858.21245,0.11818
857.18219,0.11985
856.15192,0.12158
855.12165,0.12367
854.09138,0.12608
853.06112,0.12838
852.03085,0.13049
851.00058,0.13247
849.97032,0.13411
848.94005,0.13545
847.90978,0.13694
846.87952,0.13880
845.84925,0.14084
844.81898,0.14261
843.78871,0.14361
842.75845,0.14394
841.72818,0.14439
840.69791,0.14496
839.66765,0.14483
838.63738,0.14396
837.60711,0.14316
836.57684,0.14307
835.54658,0.14284
834.51631,0.14117
833.48604,0.13879
832.45578,0.13689
831.42551,0.13532
830.39524,0.13347
829.36498,0.13085
828.33471,0.12789
827.30444,0.12534
826.27417,0.12309
825.24391,0.12088
824.21364,0.11880
823.18337,0.11713
822.15311,0.11606
821.12284,0.11489
820.09257,0.11342
819.06230,0.11239
818.03204,0.11149
817.00177,0.11059
815.97150,0.10985
814.94124,0.10892
813.91097,0.10801
812.88070,0.10727
811.85044,0.10677
810.82017,0.10657
809.78990,0.10605
808.75963,0.10544
807.72937,0.10534
806.69910,0.10494
805.66883,0.10380
804.63857,0.10259
803.60830,0.10211
802.57803,0.10187
801.54777,0.10078
800.51750,0.09953
799.48723,0.09897
798.45696,0.09864
797.42670,0.09796
796.39643,0.09705
795.36616,0.09671
794.33590,0.09688
793.30563,0.09679
792.27536,0.09622
791.24509,0.09530
790.21483,0.09461
789.18456,0.09454
788.15429,0.09440
787.12403,0.09388
786.09376,0.09350
785.06349,0.09341
784.03323,0.09336
783.00296,0.09297
781.97269,0.09242
780.94242,0.09250
779.91216,0.09290
778.88189,0.09320
777.85162,0.09364
776.82136,0.09369
775.79109,0.09319
774.76082,0.09331
773.73055,0.09394
772.70029,0.09399
771.67002,0.09387
770.63975,0.09398
769.60949,0.09448
768.57922,0.09557
767.54895,0.09661
766.51869,0.09722
765.48842,0.09754
764.45815,0.09790
763.42788,0.09861
762.39762,0.09936
761.36735,0.10005
760.33708,0.10065
759.30682,0.10076
758.27655,0.10095
757.24628,0.10179
756.21601,0.10284
755.18575,0.10386
754.15548,0.10478
753.12521,0.10507
752.09495,0.10530
751.06468,0.10638
750.03441,0.10714
749.00415,0.10706
747.97388,0.10757
746.94361,0.10855
745.91334,0.10883
744.88308,0.10883
743.85281,0.10966
742.82254,0.11139
741.79228,0.11320
740.76201,0.11440
739.73174,0.11487
738.70147,0.11517
737.67121,0.11572
736.64094,0.11663
735.61067,0.11806
734.58041,0.11898
733.55014,0.11895
732.51987,0.11943
731.48961,0.12040
730.45934,0.12111
729.42907,0.12187
728.39880,0.12257
727.36854,0.12301
726.33827,0.12345
725.30800,0.12431
724.27774,0.12566
723.24747,0.12690
722.21720,0.12808
721.18694,0.12950
720.15667,0.13069
719.12640,0.13121
718.09613,0.13134
717.06587,0.13177
716.03560,0.13249
715.00533,0.13331
713.97507,0.13460
712.94480,0.13582
711.91453,0.13625
710.88426,0.13660
709.85400,0.13735
708.82373,0.13798
707.79346,0.13880
706.76320,0.14027
705.73293,0.14167
704.70266,0.14225
703.67240,0.14253
702.64213,0.14317
701.61186,0.14413
700.58159,0.14527
699.55133,0.14622
698.52106,0.14647
697.49079,0.14588
696.46053,0.14538
695.43026,0.14646
694.39999,0.14861
693.36972,0.15015
692.33946,0.15071
691.30919,0.15088
690.27892,0.15138
689.24866,0.15251
688.21839,0.15366
687.18812,0.15472
686.15786,0.15632
685.12759,0.15810
684.09732,0.15892
683.06705,0.15928
682.03679,0.16012
681.00652,0.16069
679.97625,0.16098
678.94599,0.16158
677.91572,0.16238
676.88545,0.16377
675.85518,0.16498
674.82492,0.16513
673.79465,0.16546
672.76438,0.16605
671.73412,0.16651
670.70385,0.16740
669.67358,0.16838
668.64332,0.16844
667.61305,0.16747
666.58278,0.16803
665.55251,0.16921
664.52225,0.17037
663.49198,0.17186
662.46171,0.17390
661.43145,0.17509
660.40118,0.17466
659.37091,0.17462
658.34065,0.17613
657.31038,0.17772
656.28011,0.17863
655.24984,0.17912
654.21958,0.17883
653.18931,0.17822
652.15904,0.17839
651.12878,0.17887
650.09851,0.17921
649.06824,0.18029
648.03797,0.18210
647.00771,0.18366
645.97744,0.18474
644.94717,0.18566
643.91691,0.18681
642.88664,0.18796
641.85637,0.18806
640.82611,0.18754
639.79584,0.18776
638.76557,0.18860
637.73530,0.18963
636.70504,0.19086
635.67477,0.19179
634.64450,0.19211
633.61424,0.19233
632.58397,0.19306
631.55370,0.19412
630.52343,0.19421
629.49317,0.19368
628.46290,0.19433
627.43263,0.19607
626.40237,0.19786
625.37210,0.19864
624.34183,0.19804
623.31157,0.19741
622.28130,0.19820
621.25103,0.19999
620.22076,0.20100
619.19050,0.20103
618.16023,0.20096
617.12996,0.20113
616.09970,0.20209
615.06943,0.20428
614.03916,0.20657
613.00889,0.20771
611.97863,0.20781
610.94836,0.20766
609.91809,0.20752
608.88783,0.20716
607.85756,0.20767
606.82729,0.21026
605.79703,0.21321
604.76676,0.21422
603.73649,0.21412
602.70622,0.21493
601.67596,0.21596
600.64569,0.21587
599.61542,0.21610
598.58516,0.21779
597.55489,0.21950
596.52462,0.21991
595.49436,0.21993
594.46409,0.22044
593.43382,0.22112
592.40355,0.22217
591.37329,0.22365
590.34302,0.22522
589.31275,0.22634
588.28249,0.22706
587.25222,0.22826
586.22195,0.22963
585.19168,0.23058
584.16142,0.23230
583.13115,0.23421
582.10088,0.23457
581.07062,0.23442
580.04035,0.23526
579.01008,0.23699
577.97982,0.23904
576.94955,0.24076
575.91928,0.24114
574.88901,0.24055
573.85875,0.24030
572.82848,0.24060
571.79821,0.24074
570.76795,0.24005
569.73768,0.23924
568.70741,0.23954
567.67714,0.24043
566.64688,0.24070
565.61661,0.24118
564.58634,0.24289
563.55608,0.24468
562.52581,0.24529
561.49554,0.24607
560.46528,0.24887
559.43501,0.25155
558.40474,0.25107
557.37447,0.24918
556.34421,0.24979
555.31394,0.25214
554.28367,0.25301
553.25341,0.25210
552.22314,0.25079
551.19287,0.25116
550.16260,0.25320
549.13234,0.25370
548.10207,0.25323
547.07180,0.25422
546.04154,0.25551
545.01127,0.25603
543.98100,0.25635
542.95074,0.25719
541.92047,0.25912
540.89020,0.26026
539.85993,0.25918
538.82967,0.25850
537.79940,0.26032
536.76913,0.26346
535.73887,0.26467
534.70860,0.26289
533.67833,0.26152
532.64806,0.26242
531.61780,0.26377
530.58753,0.26445
529.55726,0.26539
528.52700,0.26692
527.49673,0.26833
526.46646,0.26894
525.43620,0.26729
524.40593,0.26470
523.37566,0.26458
522.34539,0.26762
521.31513,0.27189
520.28486,0.27477
519.25459,0.27462
518.22433,0.27183
517.19406,0.26947
516.16379,0.26973
515.13353,0.27031
514.10326,0.27006
513.07299,0.27068
512.04272,0.27134
511.01246,0.26999
509.98219,0.26777
508.95192,0.26617
507.92166,0.26578
506.89139,0.26749
505.86112,0.26978
504.83085,0.26999
503.80059,0.26863
502.77032,0.26870
501.74005,0.26994
500.70979,0.26955
499.67952,0.26824
498.64925,0.26672
497.61899,0.26530
496.58872,0.26487
495.55845,0.26433
494.52818,0.26283
493.49792,0.26273
492.46765,0.26402
491.43738,0.26396
490.40712,0.26367
489.37685,0.26311
488.34658,0.26113
487.31631,0.25976
486.28605,0.25947
485.25578,0.25994
484.22551,0.26074
483.19525,0.25944
482.16498,0.25565
481.13471,0.25248
480.10445,0.25083
479.07418,0.25058
478.04391,0.25422
477.01364,0.25932
475.98338,0.26057
474.95311,0.26029
473.92284,0.26189
472.89258,0.26170
471.86231,0.25702
470.83204,0.25483
469.80177,0.25694
468.77151,0.25841
467.74124,0.25844
466.71097,0.25831
465.68071,0.25692
464.65044,0.25465
463.62017,0.25160
462.58991,0.24996
461.55964,0.25256
460.52937,0.25597
459.49910,0.25693
458.46884,0.25596
457.43857,0.25421
456.40830,0.25527
455.37804,0.25788
454.34777,0.25751
453.31750,0.25326
452.28724,0.25016
451.25697,0.25062
450.22670,0.25062
449.19643,0.25128
448.16617,0.25427
447.13590,0.25526
446.10563,0.25220
445.07537,0.24769
444.04510,0.24581
443.01483,0.24948
441.98456,0.25483
440.95430,0.25657
439.92403,0.25660
438.89376,0.25545
437.86350,0.25117
436.83323,0.24732
435.80296,0.24614
434.77270,0.24504
433.74243,0.24490
432.71216,0.24561
431.68189,0.24353
430.65163,0.24161
429.62136,0.24167
428.59109,0.23968
427.56083,0.23815
426.53056,0.23785
425.50029,0.23620
424.47002,0.23663
423.43976,0.23984
422.40949,0.23940
421.37922,0.23519
420.34896,0.23179
419.31869,0.22880
418.28842,0.22807
417.25816,0.23262
416.22789,0.23899
415.19762,0.24327
414.16735,0.24345
413.13709,0.24053
412.10682,0.23649
411.07655,0.23465
410.04629,0.23546
409.01602,0.23645
407.98575,0.23717
406.95548,0.24028
405.92522,0.24550
404.89495,0.24651
403.86468,0.24144
402.83442,0.23548
401.80415,0.23111
400.77388,0.23017
399.74362,0.22942
