4998.81105,0.00299
4997.78079,0.00293
4996.75054,0.00245
4995.72028,0.00126
4994.69002,0.00095
4993.65976,0.00185
4992.62951,0.00238
4991.59925,0.00270
4990.56899,0.00286
4989.53873,0.00227
4988.50847,0.00190
4987.47822,0.00223
4986.44796,0.00252
4985.41770,0.00257
4984.38744,0.00228
4983.35718,0.00196
4982.32693,0.00205
4981.29667,0.00210
4980.26641,0.00232
4979.23615,0.00352
4978.20590,0.00473
4977.17564,0.00497
4976.14538,0.00439
4975.11512,0.00305
4974.08486,0.00171
4973.05461,0.00132
4972.02435,0.00149
4970.99409,0.00093
4969.96383,-0.00011
4968.93357,0.00036
4967.90332,0.00191
4966.87306,0.00253
4965.84280,0.00216
4964.81254,0.00203
4963.78229,0.00253
4962.75203,0.00219
4961.72177,0.00130
4960.69151,0.00167
4959.66125,0.00240
4958.63100,0.00248
4957.60074,0.00232
4956.57048,0.00218
4955.54022,0.00219
4954.50997,0.00230
4953.47971,0.00243
4952.44945,0.00231
4951.41919,0.00187
4950.38893,0.00189
4949.35868,0.00264
4948.32842,0.00304
4947.29816,0.00272
4946.26790,0.00220
4945.23764,0.00165
4944.20739,0.00147
4943.17713,0.00214
4942.14687,0.00283
4941.11661,0.00251
4940.08636,0.00173
4939.05610,0.00070
4938.02584,-0.00060
4936.99558,-0.00059
4935.96532,0.00129
4934.93507,0.00334
4933.90481,0.00420
4932.87455,0.00361
4931.84429,0.00208
4930.81403,0.00044
4929.78378,-0.00024
4928.75352,0.00059
4927.72326,0.00126
4926.69300,0.00042
4925.66275,-0.00077
4924.63249,-0.00126
4923.60223,-0.00074
4922.57197,0.00080
4921.54171,0.00192
4920.51146,0.00182
4919.48120,0.00161
4918.45094,0.00210
4917.42068,0.00297
4916.39042,0.00367
4915.36017,0.00398
4914.32991,0.00384
4913.29965,0.00336
4912.26939,0.00313
4911.23914,0.00356
4910.20888,0.00406
4909.17862,0.00322
4908.14836,0.00085
4907.11810,-0.00039
4906.08785,0.00080
4905.05759,0.00214
4904.02733,0.00208
4902.99707,0.00134
4901.96682,0.00078
4900.93656,0.00044
4899.90630,0.00031
4898.87604,0.00061
4897.84578,0.00156
4896.81553,0.00228
4895.78527,0.00168
4894.75501,0.00083
4893.72475,0.00079
4892.69449,0.00088
4891.66424,0.00160
4890.63398,0.00298
4889.60372,0.00326
4888.57346,0.00320
4887.54321,0.00363
4886.51295,0.00306
4885.48269,0.00186
4884.45243,0.00163
4883.42217,0.00237
4882.39192,0.00293
4881.36166,0.00232
4880.33140,0.00177
4879.30114,0.00228
4878.27088,0.00261
4877.24063,0.00296
4876.21037,0.00301
4875.18011,0.00180
4874.14985,0.00099
4873.11960,0.00123
4872.08934,0.00159
4871.05908,0.00178
4870.02882,0.00175
4868.99856,0.00169
4867.96831,0.00169
4866.93805,0.00175
4865.90779,0.00223
4864.87753,0.00304
4863.84727,0.00364
4862.81702,0.00395
4861.78676,0.00406
4860.75650,0.00386
4859.72624,0.00327
4858.69599,0.00255
4857.66573,0.00224
4856.63547,0.00189
4855.60521,0.00138
4854.57495,0.00136
4853.54470,0.00133
4852.51444,0.00116
4851.48418,0.00132
4850.45392,0.00172
4849.42367,0.00226
4848.39341,0.00235
4847.36315,0.00210
4846.33289,0.00214
4845.30263,0.00228
4844.27238,0.00248
4843.24212,0.00211
4842.21186,0.00123
4841.18160,0.00106
4840.15134,0.00145
4839.12109,0.00207
4838.09083,0.00252
4837.06057,0.00223
4836.03031,0.00171
4835.00006,0.00131
4833.96980,0.00106
4832.93954,0.00144
4831.90928,0.00228
4830.87902,0.00248
4829.84877,0.00165
4828.81851,0.00086
4827.78825,0.00080
4826.75799,0.00116
4825.72773,0.00170
4824.69748,0.00179
4823.66722,0.00138
4822.63696,0.00144
4821.60670,0.00172
4820.57645,0.00182
4819.54619,0.00219
4818.51593,0.00241
4817.48567,0.00232
4816.45541,0.00254
4815.42516,0.00282
4814.39490,0.00256
4813.36464,0.00183
4812.33438,0.00079
4811.30412,0.00033
4810.27387,0.00112
4809.24361,0.00199
4808.21335,0.00225
4807.18309,0.00213
4806.15284,0.00114
4805.12258,-0.00001
4804.09232,0.00000
4803.06206,0.00046
4802.03180,0.00070
4801.00155,0.00123
4799.97129,0.00183
4798.94103,0.00216
4797.91077,0.00217
4796.88052,0.00191
4795.85026,0.00182
4794.82000,0.00227
4793.78974,0.00301
4792.75948,0.00323
4791.72923,0.00227
4790.69897,0.00083
4789.66871,0.00062
4788.63845,0.00177
4787.60819,0.00219
4786.57794,0.00126
4785.54768,0.00059
4784.51742,0.00085
4783.48716,0.00144
4782.45691,0.00191
4781.42665,0.00201
4780.39639,0.00171
4779.36613,0.00140
4778.33587,0.00146
4777.30562,0.00201
4776.27536,0.00243
4775.24510,0.00203
4774.21484,0.00155
4773.18458,0.00147
4772.15433,0.00133
4771.12407,0.00131
4770.09381,0.00108
4769.06355,0.00014
4768.03330,-0.00076
4767.00304,-0.00049
4765.97278,0.00128
4764.94252,0.00295
4763.91226,0.00268
4762.88201,0.00120
4761.85175,0.00049
4760.82149,0.00081
4759.79123,0.00141
4758.76098,0.00188
4757.73072,0.00184
4756.70046,0.00177
4755.67020,0.00215
4754.63994,0.00202
4753.60969,0.00132
4752.57943,0.00135
4751.54917,0.00172
4750.51891,0.00163
4749.48865,0.00153
4748.45840,0.00158
4747.42814,0.00179
4746.39788,0.00244
4745.36762,0.00301
4744.33737,0.00223
4743.30711,0.00105
4742.27685,0.00114
4741.24659,0.00154
4740.21633,0.00125
4739.18608,0.00057
4738.15582,-0.00023
4737.12556,-0.00037
4736.09530,0.00021
4735.06504,0.00048
4734.03479,0.00080
4733.00453,0.00145
4731.97427,0.00150
4730.94401,0.00083
4729.91376,0.00056
4728.88350,0.00096
4727.85324,0.00124
4726.82298,0.00165
4725.79272,0.00225
4724.76247,0.00250
4723.73221,0.00216
4722.70195,0.00105
4721.67169,0.00029
4720.64143,0.00104
4719.61118,0.00234
4718.58092,0.00259
4717.55066,0.00143
4716.52040,0.00055
4715.49015,0.00094
4714.45989,0.00154
4713.42963,0.00179
4712.39937,0.00166
4711.36911,0.00158
4710.33886,0.00258
4709.30860,0.00375
4708.27834,0.00308
4707.24808,0.00105
4706.21783,-0.00021
4705.18757,0.00022
4704.15731,0.00130
4703.12705,0.00192
4702.09679,0.00207
4701.06654,0.00209
4700.03628,0.00194
4699.00602,0.00164
4697.97576,0.00154
4696.94550,0.00188
4695.91525,0.00243
4694.88499,0.00259
4693.85473,0.00211
4692.82447,0.00115
4691.79422,0.00031
4690.76396,0.00038
4689.73370,0.00119
4688.70344,0.00177
4687.67318,0.00184
4686.64293,0.00198
4685.61267,0.00210
4684.58241,0.00183
4683.55215,0.00123
4682.52189,0.00078
4681.49164,0.00081
4680.46138,0.00046
4679.43112,-0.00029
4678.40086,0.00010
4677.37061,0.00184
4676.34035,0.00350
4675.31009,0.00364
4674.27983,0.00268
4673.24957,0.00173
4672.21932,0.00092
4671.18906,0.00073
4670.15880,0.00067
4669.12854,0.00017
4668.09828,0.00018
4667.06803,0.00071
4666.03777,0.00124
4665.00751,0.00157
4663.97725,0.00079
4662.94700,-0.00044
4661.91674,0.00003
4660.88648,0.00162
4659.85622,0.00166
4658.82596,0.00044
4657.79571,0.00036
4656.76545,0.00106
4655.73519,0.00163
4654.70493,0.00222
4653.67468,0.00215
4652.64442,0.00165
4651.61416,0.00165
4650.58390,0.00197
4649.55364,0.00205
4648.52339,0.00167
4647.49313,0.00162
4646.46287,0.00236
4645.43261,0.00258
4644.40235,0.00221
4643.37210,0.00208
4642.34184,0.00179
4641.31158,0.00133
4640.28132,0.00122
4639.25107,0.00126
4638.22081,0.00102
4637.19055,0.00114
4636.16029,0.00177
4635.13003,0.00171
4634.09978,0.00124
4633.06952,0.00153
4632.03926,0.00196
4631.00900,0.00192
4629.97874,0.00192
4628.94849,0.00197
4627.91823,0.00186
4626.88797,0.00159
4625.85771,0.00137
4624.82746,0.00137
4623.79720,0.00148
4622.76694,0.00181
4621.73668,0.00232
4620.70642,0.00266
4619.67617,0.00251
4618.64591,0.00229
4617.61565,0.00236
4616.58539,0.00206
4615.55513,0.00169
4614.52488,0.00182
4613.49462,0.00175
4612.46436,0.00115
4611.43410,0.00079
4610.40385,0.00105
4609.37359,0.00093
4608.34333,0.00044
4607.31307,0.00043
4606.28281,0.00078
4605.25256,0.00127
4604.22230,0.00129
4603.19204,0.00062
4602.16178,0.00047
4601.13153,0.00104
4600.10127,0.00153
4599.07101,0.00187
4598.04075,0.00157
4597.01049,0.00053
4595.98024,-0.00025
4594.94998,-0.00060
4593.91972,-0.00043
4592.88946,0.00047
4591.85920,0.00116
4590.82895,0.00097
4589.79869,0.00029
4588.76843,-0.00017
4587.73817,0.00007
4586.70792,0.00060
4585.67766,0.00125
4584.64740,0.00223
4583.61714,0.00277
4582.58688,0.00202
4581.55663,0.00083
4580.52637,0.00042
4579.49611,0.00043
4578.46585,0.00044
4577.43559,0.00053
4576.40534,0.00083
4575.37508,0.00110
4574.34482,0.00103
4573.31456,0.00109
4572.28431,0.00169
4571.25405,0.00235
4570.22379,0.00250
4569.19353,0.00213
4568.16327,0.00166
4567.13302,0.00158
4566.10276,0.00183
4565.07250,0.00158
4564.04224,0.00063
4563.01198,0.00018
4561.98173,0.00089
4560.95147,0.00193
4559.92121,0.00220
4558.89095,0.00168
4557.86070,0.00133
4556.83044,0.00133
4555.80018,0.00101
4554.76992,0.00043
4553.73966,0.00018
4552.70941,0.00021
4551.67915,0.00062
4550.64889,0.00135
4549.61863,0.00157
4548.58838,0.00115
4547.55812,0.00094
4546.52786,0.00129
4545.49760,0.00151
4544.46734,0.00129
4543.43709,0.00133
4542.40683,0.00184
4541.37657,0.00219
4540.34631,0.00180
4539.31605,0.00065
4538.28580,0.00010
4537.25554,0.00062
4536.22528,0.00104
4535.19502,0.00091
4534.16477,0.00029
4533.13451,0.00013
4532.10425,0.00100
4531.07399,0.00117
4530.04373,0.00045
4529.01348,0.00086
4527.98322,0.00187
4526.95296,0.00145
4525.92270,0.00025
4524.89244,-0.00001
4523.86219,0.00056
4522.83193,0.00092
4521.80167,0.00101
4520.77141,0.00138
4519.74116,0.00180
4518.71090,0.00183
4517.68064,0.00166
4516.65038,0.00153
4515.62012,0.00144
4514.58987,0.00132
4513.55961,0.00107
4512.52935,0.00102
4511.49909,0.00132
4510.46883,0.00159
4509.43858,0.00183
4508.40832,0.00197
4507.37806,0.00158
4506.34780,0.00085
4505.31755,0.00076
4504.28729,0.00121
4503.25703,0.00118
4502.22677,0.00130
4501.19651,0.00180
4500.16626,0.00180
4499.13600,0.00153
4498.10574,0.00158
4497.07548,0.00203
4496.04523,0.00265
4495.01497,0.00280
4493.98471,0.00233
4492.95445,0.00177
4491.92419,0.00142
4490.89394,0.00167
4489.86368,0.00192
4488.83342,0.00169
4487.80316,0.00163
4486.77290,0.00161
4485.74265,0.00134
4484.71239,0.00139
4483.68213,0.00181
4482.65187,0.00188
4481.62162,0.00143
4480.59136,0.00112
4479.56110,0.00168
4478.53084,0.00268
4477.50058,0.00324
4476.47033,0.00363
4475.44007,0.00398
4474.40981,0.00341
4473.37955,0.00229
4472.34929,0.00156
4471.31904,0.00145
4470.28878,0.00193
4469.25852,0.00218
4468.22826,0.00187
4467.19801,0.00195
4466.16775,0.00249
4465.13749,0.00263
4464.10723,0.00259
4463.07697,0.00269
4462.04672,0.00221
4461.01646,0.00158
4459.98620,0.00160
4458.95594,0.00183
4457.92568,0.00191
4456.89543,0.00181
4455.86517,0.00135
4454.83491,0.00111
4453.80465,0.00115
4452.77440,0.00107
4451.74414,0.00105
4450.71388,0.00132
4449.68362,0.00164
4448.65336,0.00161
4447.62311,0.00184
4446.59285,0.00231
4445.56259,0.00203
4444.53233,0.00134
4443.50208,0.00106
4442.47182,0.00150
4441.44156,0.00186
4440.41130,0.00171
4439.38104,0.00229
4438.35079,0.00329
4437.32053,0.00323
4436.29027,0.00287
4435.26001,0.00293
4434.22975,0.00264
4433.19950,0.00221
4432.16924,0.00226
4431.13898,0.00218
4430.10872,0.00185
4429.07847,0.00196
4428.04821,0.00235
4427.01795,0.00261
4425.98769,0.00281
4424.95743,0.00295
4423.92718,0.00289
4422.89692,0.00254
4421.86666,0.00219
4420.83640,0.00232
4419.80614,0.00265
4418.77589,0.00233
4417.74563,0.00151
4416.71537,0.00108
4415.68511,0.00108
4414.65486,0.00113
4413.62460,0.00120
4412.59434,0.00154
4411.56408,0.00216
4410.53382,0.00265
4409.50357,0.00266
4408.47331,0.00253
4407.44305,0.00285
4406.41279,0.00299
4405.38253,0.00236
4404.35228,0.00146
4403.32202,0.00092
4402.29176,0.00107
4401.26150,0.00151
4400.23125,0.00172
4399.20099,0.00170
4398.17073,0.00181
4397.14047,0.00209
4396.11021,0.00192
4395.07996,0.00164
4394.04970,0.00172
4393.01944,0.00147
4391.98918,0.00095
4390.95893,0.00083
4389.92867,0.00132
4388.89841,0.00206
4387.86815,0.00230
4386.83789,0.00192
4385.80764,0.00129
4384.77738,0.00051
4383.74712,0.00006
4382.71686,0.00041
4381.68660,0.00063
4380.65635,0.00012
4379.62609,0.00010
4378.59583,0.00100
4377.56557,0.00162
4376.53532,0.00148
4375.50506,0.00144
4374.47480,0.00175
4373.44454,0.00166
4372.41428,0.00106
4371.38403,0.00105
4370.35377,0.00202
4369.32351,0.00275
4368.29325,0.00253
4367.26299,0.00197
4366.23274,0.00169
4365.20248,0.00176
4364.17222,0.00192
4363.14196,0.00190
4362.11171,0.00168
4361.08145,0.00134
4360.05119,0.00120
4359.02093,0.00151
4357.99067,0.00178
4356.96042,0.00176
4355.93016,0.00159
4354.89990,0.00144
4353.86964,0.00140
4352.83939,0.00123
4351.80913,0.00116
4350.77887,0.00112
4349.74861,0.00061
4348.71835,0.00034
4347.68810,0.00085
4346.65784,0.00127
4345.62758,0.00136
4344.59732,0.00180
4343.56706,0.00213
4342.53681,0.00210
4341.50655,0.00232
4340.47629,0.00231
4339.44603,0.00182
4338.41578,0.00153
4337.38552,0.00149
4336.35526,0.00149
4335.32500,0.00154
4334.29474,0.00137
4333.26449,0.00105
4332.23423,0.00057
4331.20397,-0.00015
4330.17371,-0.00059
4329.14345,-0.00050
4328.11320,0.00045
4327.08294,0.00200
4326.05268,0.00264
4325.02242,0.00203
4323.99217,0.00141
4322.96191,0.00151
4321.93165,0.00203
4320.90139,0.00221
4319.87113,0.00180
4318.84088,0.00115
4317.81062,0.00051
4316.78036,0.00053
4315.75010,0.00127
4314.71984,0.00142
4313.68959,0.00080
4312.65933,0.00066
4311.62907,0.00109
4310.59881,0.00126
4309.56856,0.00133
4308.53830,0.00145
4307.50804,0.00145
4306.47778,0.00162
4305.44752,0.00203
4304.41727,0.00247
4303.38701,0.00263
4302.35675,0.00237
4301.32649,0.00219
4300.29624,0.00210
4299.26598,0.00192
4298.23572,0.00192
4297.20546,0.00178
4296.17520,0.00179
4295.14495,0.00239
4294.11469,0.00256
4293.08443,0.00209
4292.05417,0.00182
4291.02391,0.00172
4289.99366,0.00149
4288.96340,0.00128
4287.93314,0.00113
4286.90288,0.00098
4285.87263,0.00085
4284.84237,0.00105
4283.81211,0.00179
4282.78185,0.00203
4281.75159,0.00137
4280.72134,0.00100
4279.69108,0.00139
4278.66082,0.00180
4277.63056,0.00179
4276.60030,0.00163
4275.57005,0.00157
4274.53979,0.00161
4273.50953,0.00186
4272.47927,0.00206
4271.44902,0.00189
4270.41876,0.00161
4269.38850,0.00140
4268.35824,0.00126
4267.32798,0.00135
4266.29773,0.00171
4265.26747,0.00215
4264.23721,0.00239
4263.20695,0.00195
4262.17669,0.00112
4261.14644,0.00101
4260.11618,0.00154
4259.08592,0.00179
4258.05566,0.00165
4257.02541,0.00135
4255.99515,0.00111
4254.96489,0.00134
4253.93463,0.00153
4252.90437,0.00093
4251.87412,0.00043
4250.84386,0.00081
4249.81360,0.00137
4248.78334,0.00150
4247.75309,0.00145
4246.72283,0.00122
4245.69257,0.00098
4244.66231,0.00099
4243.63205,0.00098
4242.60180,0.00098
4241.57154,0.00132
4240.54128,0.00202
4239.51102,0.00232
4238.48076,0.00178
4237.45051,0.00098
4236.42025,0.00073
4235.38999,0.00126
4234.35973,0.00210
4233.32948,0.00262
4232.29922,0.00238
4231.26896,0.00190
4230.23870,0.00203
4229.20844,0.00225
4228.17819,0.00174
4227.14793,0.00116
4226.11767,0.00146
4225.08741,0.00210
4224.05715,0.00208
4223.02690,0.00146
4221.99664,0.00109
4220.96638,0.00118
4219.93612,0.00151
4218.90587,0.00208
4217.87561,0.00233
4216.84535,0.00197
4215.81509,0.00179
4214.78483,0.00195
4213.75458,0.00199
4212.72432,0.00201
4211.69406,0.00240
4210.66380,0.00274
4209.63354,0.00231
4208.60329,0.00183
4207.57303,0.00182
4206.54277,0.00161
4205.51251,0.00113
4204.48226,0.00091
4203.45200,0.00087
4202.42174,0.00090
4201.39148,0.00136
4200.36122,0.00203
4199.33097,0.00237
4198.30071,0.00247
4197.27045,0.00253
4196.24019,0.00231
4195.20994,0.00171
4194.17968,0.00152
4193.14942,0.00203
4192.11916,0.00199
4191.08890,0.00129
4190.05865,0.00117
4189.02839,0.00142
4187.99813,0.00143
4186.96787,0.00150
4185.93761,0.00177
4184.90736,0.00217
4183.87710,0.00236
4182.84684,0.00193
4181.81658,0.00136
4180.78633,0.00114
4179.75607,0.00112
4178.72581,0.00127
4177.69555,0.00151
4176.66529,0.00167
4175.63504,0.00167
4174.60478,0.00187
4173.57452,0.00221
4172.54426,0.00195
4171.51400,0.00145
4170.48375,0.00153
4169.45349,0.00201
4168.42323,0.00225
4167.39297,0.00209
4166.36272,0.00164
4165.33246,0.00095
4164.30220,0.00048
4163.27194,0.00093
4162.24168,0.00152
4161.21143,0.00147
4160.18117,0.00146
4159.15091,0.00176
4158.12065,0.00188
4157.09039,0.00154
4156.06014,0.00134
4155.02988,0.00174
4153.99962,0.00239
4152.96936,0.00281
4151.93911,0.00280
4150.90885,0.00276
4149.87859,0.00292
4148.84833,0.00278
4147.81807,0.00256
4146.78782,0.00280
4145.75756,0.00276
4144.72730,0.00218
4143.69704,0.00181
4142.66679,0.00214
4141.63653,0.00286
4140.60627,0.00306
4139.57601,0.00272
4138.54575,0.00252
4137.51550,0.00232
4136.48524,0.00177
4135.45498,0.00156
4134.42472,0.00215
4133.39446,0.00257
4132.36421,0.00217
4131.33395,0.00179
4130.30369,0.00196
4129.27343,0.00230
4128.24318,0.00232
4127.21292,0.00201
4126.18266,0.00180
4125.15240,0.00207
4124.12214,0.00244
4123.09189,0.00246
4122.06163,0.00224
4121.03137,0.00194
4120.00111,0.00166
4118.97085,0.00150
4117.94060,0.00150
4116.91034,0.00153
4115.88008,0.00163
4114.84982,0.00185
4113.81957,0.00205
4112.78931,0.00249
4111.75905,0.00307
4110.72879,0.00324
4109.69853,0.00296
4108.66828,0.00260
4107.63802,0.00242
4106.60776,0.00255
4105.57750,0.00278
4104.54724,0.00285
4103.51699,0.00296
4102.48673,0.00302
4101.45647,0.00275
4100.42621,0.00232
4099.39596,0.00208
4098.36570,0.00193
4097.33544,0.00173
4096.30518,0.00193
4095.27492,0.00250
4094.24467,0.00265
4093.21441,0.00249
4092.18415,0.00266
4091.15389,0.00273
4090.12364,0.00231
4089.09338,0.00207
4088.06312,0.00240
4087.03286,0.00272
4086.00260,0.00269
4084.97235,0.00266
4083.94209,0.00280
4082.91183,0.00289
4081.88157,0.00294
4080.85131,0.00283
4079.82106,0.00215
4078.79080,0.00142
4077.76054,0.00148
4076.73028,0.00220
4075.70003,0.00280
4074.66977,0.00293
4073.63951,0.00264
4072.60925,0.00204
4071.57899,0.00178
4070.54874,0.00230
4069.51848,0.00286
4068.48822,0.00294
4067.45796,0.00282
4066.42770,0.00260
4065.39745,0.00228
4064.36719,0.00194
4063.33693,0.00168
4062.30667,0.00162
4061.27642,0.00157
4060.24616,0.00178
4059.21590,0.00246
4058.18564,0.00277
4057.15538,0.00243
4056.12513,0.00217
4055.09487,0.00246
4054.06461,0.00290
4053.03435,0.00282
4052.00409,0.00230
4050.97384,0.00208
4049.94358,0.00249
4048.91332,0.00306
4047.88306,0.00310
4046.85281,0.00274
4045.82255,0.00274
4044.79229,0.00286
4043.76203,0.00280
4042.73177,0.00282
4041.70152,0.00279
4040.67126,0.00266
4039.64100,0.00267
4038.61074,0.00277
4037.58049,0.00279
4036.55023,0.00297
4035.51997,0.00309
4034.48971,0.00271
4033.45945,0.00253
4032.42920,0.00279
4031.39894,0.00291
4030.36868,0.00298
4029.33842,0.00312
4028.30816,0.00298
4027.27791,0.00270
4026.24765,0.00259
4025.21739,0.00271
4024.18713,0.00291
4023.15688,0.00270
4022.12662,0.00232
4021.09636,0.00243
4020.06610,0.00278
4019.03584,0.00306
4018.00559,0.00307
4016.97533,0.00272
4015.94507,0.00261
4014.91481,0.00289
4013.88455,0.00310
4012.85430,0.00311
4011.82404,0.00299
4010.79378,0.00289
4009.76352,0.00275
4008.73327,0.00250
4007.70301,0.00254
4006.67275,0.00290
4005.64249,0.00322
4004.61223,0.00331
4003.58198,0.00307
4002.55172,0.00273
4001.52146,0.00269
4000.49120,0.00270
3999.46095,0.00255
3998.43069,0.00236
3997.40043,0.00222
3996.37017,0.00226
3995.33991,0.00246
3994.30966,0.00246
3993.27940,0.00240
3992.24914,0.00276
3991.21888,0.00326
3990.18862,0.00355
3989.15837,0.00355
3988.12811,0.00324
3987.09785,0.00273
3986.06759,0.00225
3985.03734,0.00207
3984.00708,0.00225
3982.97682,0.00256
3981.94656,0.00264
3980.91630,0.00253
3979.88605,0.00247
3978.85579,0.00235
3977.82553,0.00250
3976.79527,0.00311
3975.76501,0.00348
3974.73476,0.00335
3973.70450,0.00304
3972.67424,0.00275
3971.64398,0.00240
3970.61373,0.00225
3969.58347,0.00273
3968.55321,0.00359
3967.52295,0.00401
3966.49269,0.00354
3965.46244,0.00275
3964.43218,0.00233
3963.40192,0.00238
3962.37166,0.00260
3961.34140,0.00274
3960.31115,0.00288
3959.28089,0.00290
3958.25063,0.00264
3957.22037,0.00233
3956.19012,0.00216
3955.15986,0.00225
3954.12960,0.00264
3953.09934,0.00280
3952.06908,0.00255
3951.03883,0.00241
3950.00857,0.00246
3948.97831,0.00240
3947.94805,0.00251
3946.91780,0.00285
3945.88754,0.00279
3944.85728,0.00254
3943.82702,0.00242
3942.79676,0.00207
3941.76651,0.00180
3940.73625,0.00224
3939.70599,0.00292
3938.67573,0.00322
3937.64547,0.00317
3936.61522,0.00295
3935.58496,0.00254
3934.55470,0.00211
3933.52444,0.00193
3932.49419,0.00185
3931.46393,0.00208
3930.43367,0.00285
3929.40341,0.00322
3928.37315,0.00276
3927.34290,0.00218
3926.31264,0.00197
3925.28238,0.00197
3924.25212,0.00189
3923.22186,0.00180
3922.19161,0.00212
3921.16135,0.00276
3920.13109,0.00292
3919.10083,0.00252
3918.07058,0.00217
3917.04032,0.00216
3916.01006,0.00256
3914.97980,0.00302
3913.94954,0.00290
3912.91929,0.00217
3911.88903,0.00176
3910.85877,0.00189
3909.82851,0.00209
3908.79825,0.00228
3907.76800,0.00236
3906.73774,0.00230
3905.70748,0.00201
3904.67722,0.00162
3903.64697,0.00149
3902.61671,0.00141
3901.58645,0.00163
3900.55619,0.00208
3899.52593,0.00220
3898.49568,0.00240
3897.46542,0.00286
3896.43516,0.00336
3895.40490,0.00364
3894.37465,0.00341
3893.34439,0.00324
3892.31413,0.00352
3891.28387,0.00363
3890.25361,0.00345
3889.22336,0.00339
3888.19310,0.00327
3887.16284,0.00299
3886.13258,0.00285
3885.10232,0.00296
3884.07207,0.00277
3883.04181,0.00242
3882.01155,0.00213
3880.98129,0.00186
3879.95104,0.00180
3878.92078,0.00217
3877.89052,0.00253
3876.86026,0.00262
3875.83000,0.00292
3874.79975,0.00318
3873.76949,0.00282
3872.73923,0.00255
3871.70897,0.00264
3870.67871,0.00273
3869.64846,0.00273
3868.61820,0.00273
3867.58794,0.00273
3866.55768,0.00293
3865.52743,0.00329
3864.49717,0.00313
3863.46691,0.00298
3862.43665,0.00332
3861.40639,0.00330
3860.37614,0.00295
3859.34588,0.00280
3858.31562,0.00269
3857.28536,0.00246
3856.25510,0.00239
3855.22485,0.00283
3854.19459,0.00346
3853.16433,0.00379
3852.13407,0.00413
3851.10382,0.00435
3850.07356,0.00403
3849.04330,0.00320
3848.01304,0.00250
3846.98278,0.00244
3845.95253,0.00254
3844.92227,0.00237
3843.89201,0.00226
3842.86175,0.00278
3841.83150,0.00331
3840.80124,0.00311
3839.77098,0.00293
3838.74072,0.00308
3837.71046,0.00277
3836.68021,0.00218
3835.64995,0.00214
3834.61969,0.00252
3833.58943,0.00267
3832.55917,0.00256
3831.52892,0.00257
3830.49866,0.00274
3829.46840,0.00317
3828.43814,0.00365
3827.40789,0.00333
3826.37763,0.00234
3825.34737,0.00202
3824.31711,0.00221
3823.28685,0.00222
3822.25660,0.00264
3821.22634,0.00353
3820.19608,0.00375
3819.16582,0.00368
3818.13556,0.00381
3817.10531,0.00382
3816.07505,0.00356
3815.04479,0.00341
3814.01453,0.00344
3812.98428,0.00345
3811.95402,0.00348
3810.92376,0.00334
3809.89350,0.00292
3808.86324,0.00292
3807.83299,0.00343
3806.80273,0.00342
3805.77247,0.00289
3804.74221,0.00261
3803.71195,0.00252
3802.68170,0.00261
3801.65144,0.00258
3800.62118,0.00252
3799.59092,0.00311
3798.56067,0.00374
3797.53041,0.00385
3796.50015,0.00337
3795.46989,0.00301
3794.43963,0.00322
3793.40938,0.00337
3792.37912,0.00330
3791.34886,0.00345
3790.31860,0.00377
3789.28835,0.00407
3788.25809,0.00420
3787.22783,0.00392
3786.19757,0.00355
3785.16731,0.00340
3784.13706,0.00347
3783.10680,0.00383
3782.07654,0.00421
3781.04628,0.00419
3780.01602,0.00373
3778.98577,0.00328
3777.95551,0.00315
3776.92525,0.00327
3775.89499,0.00358
3774.86474,0.00362
3773.83448,0.00329
3772.80422,0.00313
3771.77396,0.00313
3770.74370,0.00310
3769.71345,0.00345
3768.68319,0.00419
3767.65293,0.00463
3766.62267,0.00474
3765.59241,0.00476
3764.56216,0.00465
3763.53190,0.00438
3762.50164,0.00424
3761.47138,0.00445
3760.44113,0.00453
3759.41087,0.00424
3758.38061,0.00423
3757.35035,0.00463
3756.32009,0.00494
3755.28984,0.00512
3754.25958,0.00568
3753.22932,0.00618
3752.19906,0.00560
3751.16880,0.00462
3750.13855,0.00458
3749.10829,0.00518
3748.07803,0.00565
3747.04777,0.00555
3746.01752,0.00500
3744.98726,0.00472
3743.95700,0.00492
3742.92674,0.00532
3741.89648,0.00621
3740.86623,0.00672
3739.83597,0.00622
3738.80571,0.00547
3737.77545,0.00508
3736.74520,0.00509
3735.71494,0.00522
3734.68468,0.00549
3733.65442,0.00628
3732.62416,0.00685
3731.59391,0.00640
3730.56365,0.00570
3729.53339,0.00543
3728.50313,0.00557
3727.47287,0.00590
3726.44262,0.00604
3725.41236,0.00599
3724.38210,0.00594
3723.35184,0.00585
3722.32159,0.00585
3721.29133,0.00602
3720.26107,0.00586
3719.23081,0.00552
3718.20055,0.00585
3717.17030,0.00647
3716.14004,0.00676
3715.10978,0.00716
3714.07952,0.00737
3713.04926,0.00706
3712.01901,0.00692
3710.98875,0.00703
3709.95849,0.00708
3708.92823,0.00716
3707.89798,0.00702
3706.86772,0.00677
3705.83746,0.00686
3704.80720,0.00733
3703.77694,0.00782
3702.74669,0.00797
3701.71643,0.00783
3700.68617,0.00771
3699.65591,0.00794
3698.62565,0.00860
3697.59540,0.00917
3696.56514,0.00945
3695.53488,0.00972
3694.50462,0.00982
3693.47437,0.00997
3692.44411,0.01045
3691.41385,0.01071
3690.38359,0.01073
3689.35333,0.01115
3688.32308,0.01191
3687.29282,0.01241
3686.26256,0.01250
3685.23230,0.01255
3684.20205,0.01300
3683.17179,0.01361
3682.14153,0.01399
3681.11127,0.01442
3680.08101,0.01474
3679.05076,0.01497
3678.02050,0.01567
3676.99024,0.01655
3675.95998,0.01720
3674.92972,0.01764
3673.89947,0.01785
3672.86921,0.01809
3671.83895,0.01874
3670.80869,0.01960
3669.77844,0.01987
3668.74818,0.02001
3667.71792,0.02103
3666.68766,0.02261
3665.65740,0.02346
3664.62715,0.02347
3663.59689,0.02370
3662.56663,0.02434
3661.53637,0.02523
3660.50611,0.02627
3659.47586,0.02707
3658.44560,0.02752
3657.41534,0.02775
3656.38508,0.02800
3655.35483,0.02868
3654.32457,0.02958
3653.29431,0.03030
3652.26405,0.03107
3651.23379,0.03225
3650.20354,0.03384
3649.17328,0.03548
3648.14302,0.03633
3647.11276,0.03627
3646.08250,0.03638
3645.05225,0.03691
3644.02199,0.03748
3642.99173,0.03834
3641.96147,0.03930
3640.93122,0.03971
3639.90096,0.04000
3638.87070,0.04098
3637.84044,0.04217
3636.81018,0.04302
3635.77993,0.04399
3634.74967,0.04501
3633.71941,0.04557
3632.68915,0.04583
3631.65890,0.04615
3630.62864,0.04682
3629.59838,0.04807
3628.56812,0.04902
3627.53786,0.04933
3626.50761,0.04997
3625.47735,0.05104
3624.44709,0.05193
3623.41683,0.05230
3622.38657,0.05282
3621.35632,0.05407
3620.32606,0.05529
3619.29580,0.05537
3618.26554,0.05503
3617.23529,0.05559
3616.20503,0.05690
3615.17477,0.05818
3614.14451,0.05879
3613.11425,0.05881
3612.08400,0.05931
3611.05374,0.06051
3610.02348,0.06138
3608.99322,0.06203
3607.96296,0.06302
3606.93271,0.06367
3605.90245,0.06405
3604.87219,0.06490
3603.84193,0.06613
3602.81168,0.06705
3601.78142,0.06753
3600.75116,0.06788
3599.72090,0.06835
3598.69064,0.06900
3597.66039,0.06937
3596.63013,0.06971
3595.59987,0.07070
3594.56961,0.07179
3593.53936,0.07234
3592.50910,0.07282
3591.47884,0.07348
3590.44858,0.07427
3589.41832,0.07554
3588.38807,0.07699
3587.35781,0.07787
3586.32755,0.07832
3585.29729,0.07927
3584.26703,0.08074
3583.23678,0.08198
3582.20652,0.08274
3581.17626,0.08325
3580.14600,0.08347
3579.11575,0.08378
3578.08549,0.08491
3577.05523,0.08668
3576.02497,0.08816
3574.99471,0.08877
3573.96446,0.08891
3572.93420,0.08958
3571.90394,0.09079
3570.87368,0.09221
3569.84342,0.09346
3568.81317,0.09444
3567.78291,0.09580
3566.75265,0.09668
3565.72239,0.09650
3564.69214,0.09693
3563.66188,0.09829
3562.63162,0.09947
3561.60136,0.10016
3560.57110,0.10097
3559.54085,0.10199
3558.51059,0.10300
3557.48033,0.10412
3556.45007,0.10543
3555.41981,0.10671
3554.38956,0.10792
3553.35930,0.10883
3552.32904,0.10926
3551.29878,0.10984
3550.26853,0.11084
3549.23827,0.11206
3548.20801,0.11334
3547.17775,0.11442
3546.14749,0.11529
3545.11724,0.11626
3544.08698,0.11728
3543.05672,0.11798
3542.02646,0.11862
3540.99621,0.11975
3539.96595,0.12125
3538.93569,0.12260
3537.90543,0.12380
3536.87517,0.12481
3535.84492,0.12588
3534.81466,0.12758
3533.78440,0.12936
3532.75414,0.13051
3531.72388,0.13118
3530.69363,0.13186
3529.66337,0.13304
3528.63311,0.13460
3527.60285,0.13590
3526.57260,0.13666
3525.54234,0.13737
3524.51208,0.13848
3523.48182,0.13945
3522.45156,0.13951
3521.42131,0.13959
3520.39105,0.14085
3519.36079,0.14284
3518.33053,0.14458
3517.30027,0.14560
3516.27002,0.14645
3515.23976,0.14768
3514.20950,0.14868
3513.17924,0.14946
3512.14899,0.15059
3511.11873,0.15177
3510.08847,0.15290
3509.05821,0.15420
3508.02795,0.15558
3506.99770,0.15694
3505.96744,0.15801
3504.93718,0.15869
3503.90692,0.15916
3502.87666,0.15982
3501.84641,0.16134
3500.81615,0.16321
3499.78589,0.16460
3498.75563,0.16560
3497.72538,0.16617
3496.69512,0.16662
3495.66486,0.16752
3494.63460,0.16853
3493.60434,0.16922
3492.57409,0.17013
3491.54383,0.17158
3490.51357,0.17308
3489.48331,0.17459
3488.45306,0.17606
3487.42280,0.17684
3486.39254,0.17742
3485.36228,0.17861
3484.33202,0.17988
3483.30177,0.18098
3482.27151,0.18241
3481.24125,0.18399
3480.21099,0.18475
3479.18073,0.18501
3478.15048,0.18609
3477.12022,0.18781
3476.08996,0.18920
3475.05970,0.19009
3474.02945,0.19085
3472.99919,0.19178
3471.96893,0.19303
3470.93867,0.19436
3469.90841,0.19550
3468.87816,0.19632
3467.84790,0.19682
3466.81764,0.19775
3465.78738,0.19944
3464.75712,0.20072
3463.72687,0.20119
3462.69661,0.20187
3461.66635,0.20298
3460.63609,0.20428
3459.60584,0.20579
3458.57558,0.20715
3457.54532,0.20813
3456.51506,0.20926
3455.48480,0.21072
3454.45455,0.21190
3453.42429,0.21250
3452.39403,0.21313
3451.36377,0.21461
3450.33351,0.21614
3449.30326,0.21729
3448.27300,0.21858
3447.24274,0.21942
3446.21248,0.21973
3445.18223,0.22044
3444.15197,0.22133
3443.12171,0.22237
3442.09145,0.22409
3441.06119,0.22549
3440.03094,0.22639
3439.00068,0.22783
3437.97042,0.22925
3436.94016,0.23017
3435.90991,0.23107
3434.87965,0.23200
3433.84939,0.23316
3432.81913,0.23438
3431.78887,0.23517
3430.75862,0.23625
3429.72836,0.23764
3428.69810,0.23870
3427.66784,0.23984
3426.63758,0.24111
3425.60733,0.24217
3424.57707,0.24300
3423.54681,0.24391
3422.51655,0.24548
3421.48630,0.24720
3420.45604,0.24831
3419.42578,0.24920
3418.39552,0.24994
3417.36526,0.25041
3416.33501,0.25105
3415.30475,0.25216
3414.27449,0.25344
3413.24423,0.25451
3412.21397,0.25551
3411.18372,0.25621
3410.15346,0.25640
3409.12320,0.25708
3408.09294,0.25837
3407.06269,0.25938
3406.03243,0.26045
3405.00217,0.26203
3403.97191,0.26358
3402.94165,0.26446
3401.91140,0.26465
3400.88114,0.26491
3399.85088,0.26588
3398.82062,0.26707
3397.79036,0.26772
3396.76011,0.26807
3395.72985,0.26872
3394.69959,0.26983
3393.66933,0.27075
3392.63908,0.27119
3391.60882,0.27191
3390.57856,0.27319
3389.54830,0.27441
3388.51804,0.27539
3387.48779,0.27621
3386.45753,0.27690
3385.42727,0.27766
3384.39701,0.27845
3383.36676,0.27915
3382.33650,0.27964
3381.30624,0.28010
3380.27598,0.28082
3379.24572,0.28142
3378.21547,0.28168
3377.18521,0.28197
3376.15495,0.28284
3375.12469,0.28432
3374.09443,0.28534
3373.06418,0.28534
3372.03392,0.28522
3371.00366,0.28544
3369.97340,0.28565
3368.94315,0.28580
3367.91289,0.28646
3366.88263,0.28769
3365.85237,0.28854
3364.82211,0.28841
3363.79186,0.28751
3362.76160,0.28693
3361.73134,0.28749
3360.70108,0.28856
3359.67082,0.28943
3358.64057,0.29017
3357.61031,0.29102
3356.58005,0.29180
3355.54979,0.29207
3354.51954,0.29213
3353.48928,0.29266
3352.45902,0.29372
3351.42876,0.29440
3350.39850,0.29440
3349.36825,0.29463
3348.33799,0.29526
3347.30773,0.29549
3346.27747,0.29519
3345.24721,0.29525
3344.21696,0.29547
3343.18670,0.29506
3342.15644,0.29451
3341.12618,0.29468
3340.09593,0.29541
3339.06567,0.29605
3338.03541,0.29642
3337.00515,0.29633
3335.97489,0.29592
3334.94464,0.29611
3333.91438,0.29662
3332.88412,0.29681
3331.85386,0.29692
3330.82361,0.29735
3329.79335,0.29827
3328.76309,0.29891
3327.73283,0.29855
3326.70257,0.29803
3325.67232,0.29840
3324.64206,0.29946
3323.61180,0.30000
3322.58154,0.29942
3321.55128,0.29856
3320.52103,0.29825
3319.49077,0.29856
3318.46051,0.29902
3317.43025,0.29937
3316.40000,0.29970
3315.36974,0.30012
3314.33948,0.30049
3313.30922,0.30041
3312.27896,0.30025
3311.24871,0.30050
3310.21845,0.30102
3309.18819,0.30127
3308.15793,0.30101
3307.12767,0.30082
3306.09742,0.30110
3305.06716,0.30153
3304.03690,0.30194
3303.00664,0.30220
3301.97639,0.30211
3300.94613,0.30221
3299.91587,0.30299
3298.88561,0.30350
3297.85535,0.30272
3296.82510,0.30163
3295.79484,0.30172
3294.76458,0.30208
3293.73432,0.30178
3292.70406,0.30194
3291.67381,0.30308
3290.64355,0.30417
3289.61329,0.30450
3288.58303,0.30418
3287.55278,0.30395
3286.52252,0.30444
3285.49226,0.30486
3284.46200,0.30470
3283.43174,0.30463
3282.40149,0.30484
3281.37123,0.30550
3280.34097,0.30621
3279.31071,0.30638
3278.28046,0.30620
3277.25020,0.30567
3276.21994,0.30527
3275.18968,0.30530
3274.15942,0.30570
3273.12917,0.30617
3272.09891,0.30615
3271.06865,0.30595
3270.03839,0.30591
3269.00813,0.30589
3267.97788,0.30603
3266.94762,0.30627
3265.91736,0.30655
3264.88710,0.30701
3263.85685,0.30764
3262.82659,0.30799
3261.79633,0.30753
3260.76607,0.30699
3259.73581,0.30735
3258.70556,0.30798
3257.67530,0.30798
3256.64504,0.30770
3255.61478,0.30744
3254.58452,0.30718
3253.55427,0.30708
3252.52401,0.30679
3251.49375,0.30669
3250.46349,0.30683
3249.43324,0.30634
3248.40298,0.30604
3247.37272,0.30640
3246.34246,0.30635
3245.31220,0.30604
3244.28195,0.30603
3243.25169,0.30605
3242.22143,0.30601
3241.19117,0.30591
3240.16092,0.30570
3239.13066,0.30562
3238.10040,0.30592
3237.07014,0.30645
3236.03988,0.30625
3235.00963,0.30490
3233.97937,0.30380
3232.94911,0.30399
3231.91885,0.30445
3230.88859,0.30426
3229.85834,0.30385
3228.82808,0.30375
3227.79782,0.30381
3226.76756,0.30356
3225.73731,0.30339
3224.70705,0.30343
3223.67679,0.30287
3222.64653,0.30204
3221.61627,0.30138
3220.58602,0.30074
3219.55576,0.30051
3218.52550,0.30085
3217.49524,0.30103
3216.46498,0.30035
3215.43473,0.29937
3214.40447,0.29908
3213.37421,0.29907
3212.34395,0.29833
3211.31370,0.29740
3210.28344,0.29709
3209.25318,0.29665
3208.22292,0.29572
3207.19266,0.29502
3206.16241,0.29463
3205.13215,0.29419
3204.10189,0.29397
3203.07163,0.29373
3202.04137,0.29324
3201.01112,0.29313
3199.98086,0.29328
3198.95060,0.29273
3197.92034,0.29137
3196.89009,0.29004
3195.85983,0.28930
3194.82957,0.28885
3193.79931,0.28842
3192.76905,0.28802
3191.73880,0.28713
3190.70854,0.28568
3189.67828,0.28456
3188.64802,0.28408
3187.61777,0.28373
3186.58751,0.28317
3185.55725,0.28238
3184.52699,0.28119
3183.49673,0.27985
3182.46648,0.27871
3181.43622,0.27788
3180.40596,0.27759
3179.37570,0.27755
3178.34544,0.27721
3177.31519,0.27627
3176.28493,0.27518
3175.25467,0.27430
3174.22441,0.27362
3173.19416,0.27333
3172.16390,0.27299
3171.13364,0.27238
3170.10338,0.27152
3169.07312,0.27003
3168.04287,0.26824
3167.01261,0.26700
3165.98235,0.26627
3164.95209,0.26547
3163.92183,0.26481
3162.89158,0.26477
3161.86132,0.26453
3160.83106,0.26332
3159.80080,0.26215
3158.77055,0.26153
3157.74029,0.26064
3156.71003,0.25945
3155.67977,0.25819
3154.64951,0.25684
3153.61926,0.25573
3152.58900,0.25506
3151.55874,0.25462
3150.52848,0.25434
3149.49822,0.25417
3148.46797,0.25339
3147.43771,0.25199
3146.40745,0.25122
3145.37719,0.25088
3144.34694,0.25007
3143.31668,0.24912
3142.28642,0.24844
3141.25616,0.24761
3140.22590,0.24593
3139.19565,0.24397
3138.16539,0.24293
3137.13513,0.24259
3136.10487,0.24172
3135.07462,0.24055
3134.04436,0.24004
3133.01410,0.23968
3131.98384,0.23844
3130.95358,0.23660
3129.92333,0.23536
3128.89307,0.23498
3127.86281,0.23455
3126.83255,0.23359
3125.80229,0.23262
3124.77204,0.23218
3123.74178,0.23158
3122.71152,0.23013
3121.68126,0.22870
3120.65101,0.22792
3119.62075,0.22723
3118.59049,0.22630
3117.56023,0.22571
3116.52997,0.22524
3115.49972,0.22398
3114.46946,0.22250
3113.43920,0.22133
3112.40894,0.22015
3111.37868,0.21921
3110.34843,0.21843
3109.31817,0.21744
3108.28791,0.21666
3107.25765,0.21611
3106.22740,0.21551
3105.19714,0.21485
3104.16688,0.21421
3103.13662,0.21351
3102.10636,0.21250
3101.07611,0.21111
3100.04585,0.20973
3099.01559,0.20892
3097.98533,0.20848
3096.95507,0.20770
3095.92482,0.20671
3094.89456,0.20622
3093.86430,0.20585
3092.83404,0.20474
3091.80379,0.20293
3090.77353,0.20134
3089.74327,0.20077
3088.71301,0.20079
3087.68275,0.20044
3086.65250,0.19954
3085.62224,0.19832
3084.59198,0.19709
3083.56172,0.19612
3082.53147,0.19539
3081.50121,0.19444
3080.47095,0.19314
3079.44069,0.19216
3078.41043,0.19144
3077.38018,0.19063
3076.34992,0.19015
3075.31966,0.18969
3074.28940,0.18883
3073.25914,0.18781
3072.22889,0.18701
3071.19863,0.18639
3070.16837,0.18580
3069.13811,0.18525
3068.10786,0.18437
3067.07760,0.18330
3066.04734,0.18266
3065.01708,0.18214
3063.98682,0.18134
3062.95657,0.18033
3061.92631,0.17913
3060.89605,0.17809
3059.86579,0.17767
3058.83553,0.17746
3057.80528,0.17670
3056.77502,0.17550
3055.74476,0.17437
3054.71450,0.17353
3053.68425,0.17318
3052.65399,0.17292
3051.62373,0.17219
3050.59347,0.17135
3049.56321,0.17072
3048.53296,0.17003
3047.50270,0.16936
3046.47244,0.16883
3045.44218,0.16805
3044.41192,0.16681
3043.38167,0.16558
3042.35141,0.16502
3041.32115,0.16498
3040.29089,0.16492
3039.26064,0.16462
3038.23038,0.16392
3037.20012,0.16307
3036.16986,0.16242
3035.13960,0.16174
3034.10935,0.16117
3033.07909,0.16084
3032.04883,0.16026
3031.01857,0.15944
3029.98832,0.15872
3028.95806,0.15821
3027.92780,0.15784
3026.89754,0.15730
3025.86728,0.15643
3024.83703,0.15523
3023.80677,0.15404
3022.77651,0.15315
3021.74625,0.15206
3020.71599,0.15066
3019.68574,0.14964
3018.65548,0.14884
3017.62522,0.14797
3016.59496,0.14733
3015.56471,0.14682
3014.53445,0.14614
3013.50419,0.14530
3012.47393,0.14455
3011.44367,0.14390
3010.41342,0.14312
3009.38316,0.14243
3008.35290,0.14209
3007.32264,0.14177
3006.29238,0.14079
3005.26213,0.13924
3004.23187,0.13812
3003.20161,0.13773
3002.17135,0.13738
3001.14110,0.13675
3000.11084,0.13600
2999.08058,0.13493
2998.05032,0.13371
2997.02006,0.13307
2995.98981,0.13306
2994.95955,0.13280
2993.92929,0.13167
2992.89903,0.13024
2991.86877,0.12921
2990.83852,0.12845
2989.80826,0.12765
2988.77800,0.12695
2987.74774,0.12649
2986.71749,0.12615
2985.68723,0.12592
2984.65697,0.12566
2983.62671,0.12513
2982.59645,0.12446
2981.56620,0.12389
2980.53594,0.12319
2979.50568,0.12243
2978.47542,0.12216
2977.44517,0.12196
2976.41491,0.12127
2975.38465,0.12045
2974.35439,0.11996
2973.32413,0.11985
2972.29388,0.11976
2971.26362,0.11962
2970.23336,0.11948
2969.20310,0.11905
2968.17284,0.11864
2967.14259,0.11836
2966.11233,0.11787
2965.08207,0.11729
2964.05181,0.11671
2963.02156,0.11614
2961.99130,0.11579
2960.96104,0.11538
2959.93078,0.11458
2958.90052,0.11368
2957.87027,0.11297
2956.84001,0.11225
2955.80975,0.11129
2954.77949,0.11027
2953.74923,0.10907
2952.71898,0.10776
2951.68872,0.10697
2950.65846,0.10658
2949.62820,0.10591
2948.59795,0.10497
2947.56769,0.10412
2946.53743,0.10358
2945.50717,0.10344
2944.47691,0.10321
2943.44666,0.10238
2942.41640,0.10140
2941.38614,0.10077
2940.35588,0.10023
2939.32562,0.09942
2938.29537,0.09837
2937.26511,0.09728
2936.23485,0.09660
2935.20459,0.09636
2934.17434,0.09604
2933.14408,0.09546
2932.11382,0.09484
2931.08356,0.09432
2930.05330,0.09385
2929.02305,0.09337
2927.99279,0.09274
2926.96253,0.09185
2925.93227,0.09112
2924.90202,0.09074
2923.87176,0.09049
2922.84150,0.09007
2921.81124,0.08928
2920.78098,0.08842
2919.75073,0.08791
2918.72047,0.08737
2917.69021,0.08655
2916.65995,0.08595
2915.62969,0.08581
2914.59944,0.08576
2913.56918,0.08541
2912.53892,0.08452
2911.50866,0.08331
2910.47841,0.08256
2909.44815,0.08238
2908.41789,0.08209
2907.38763,0.08172
2906.35737,0.08141
2905.32712,0.08088
2904.29686,0.08010
2903.26660,0.07921
2902.23634,0.07848
2901.20608,0.07826
2900.17583,0.07805
2899.14557,0.07761
2898.11531,0.07742
2897.08505,0.07711
2896.05480,0.07638
2895.02454,0.07560
2893.99428,0.07497
2892.96402,0.07431
2891.93376,0.07383
2890.90351,0.07369
2889.87325,0.07342
2888.84299,0.07281
2887.81273,0.07215
2886.78247,0.07160
2885.75222,0.07106
2884.72196,0.07066
2883.69170,0.07040
2882.66144,0.07024
2881.63119,0.07017
2880.60093,0.06989
2879.57067,0.06930
2878.54041,0.06863
2877.51015,0.06812
2876.47990,0.06764
2875.44964,0.06717
2874.41938,0.06676
2873.38912,0.06620
2872.35887,0.06542
2871.32861,0.06480
2870.29835,0.06459
2869.26809,0.06438
2868.23783,0.06394
2867.20758,0.06355
2866.17732,0.06329
2865.14706,0.06277
2864.11680,0.06218
2863.08654,0.06199
2862.05629,0.06197
2861.02603,0.06168
2859.99577,0.06123
2858.96551,0.06076
2857.93526,0.06014
2856.90500,0.05943
2855.87474,0.05881
2854.84448,0.05858
2853.81422,0.05870
2852.78397,0.05853
2851.75371,0.05784
2850.72345,0.05705
2849.69319,0.05652
2848.66293,0.05626
2847.63268,0.05618
2846.60242,0.05618
2845.57216,0.05592
2844.54190,0.05547
2843.51165,0.05521
2842.48139,0.05485
2841.45113,0.05420
2840.42087,0.05345
2839.39061,0.05282
2838.36036,0.05248
2837.33010,0.05234
2836.29984,0.05238
2835.26958,0.05250
2834.23933,0.05229
2833.20907,0.05165
2832.17881,0.05079
2831.14855,0.04993
2830.11829,0.04942
2829.08804,0.04929
2828.05778,0.04934
2827.02752,0.04926
2825.99726,0.04885
2824.96700,0.04827
2823.93675,0.04767
2822.90649,0.04729
2821.87623,0.04727
2820.84597,0.04740
2819.81572,0.04719
2818.78546,0.04658
2817.75520,0.04610
2816.72494,0.04583
2815.69468,0.04565
2814.66443,0.04561
2813.63417,0.04559
2812.60391,0.04534
2811.57365,0.04489
2810.54339,0.04448
2809.51314,0.04420
2808.48288,0.04398
2807.45262,0.04368
2806.42236,0.04325
2805.39211,0.04272
2804.36185,0.04224
2803.33159,0.04216
2802.30133,0.04235
2801.27107,0.04222
2800.24082,0.04191
2799.21056,0.04188
2798.18030,0.04185
2797.15004,0.04146
2796.11978,0.04090
2795.08953,0.04053
2794.05927,0.04045
2793.02901,0.04018
2791.99875,0.03951
2790.96850,0.03913
2789.93824,0.03904
2788.90798,0.03875
2787.87772,0.03853
2786.84746,0.03846
2785.81721,0.03807
2784.78695,0.03745
2783.75669,0.03717
2782.72643,0.03728
2781.69618,0.03741
2780.66592,0.03728
2779.63566,0.03706
2778.60540,0.03687
2777.57514,0.03644
2776.54489,0.03585
2775.51463,0.03557
2774.48437,0.03565
2773.45411,0.03565
2772.42385,0.03543
2771.39360,0.03512
2770.36334,0.03476
2769.33308,0.03441
2768.30282,0.03418
2767.27257,0.03396
2766.24231,0.03377
2765.21205,0.03367
2764.18179,0.03341
2763.15153,0.03303
2762.12128,0.03289
2761.09102,0.03287
2760.06076,0.03278
2759.03050,0.03243
2758.00024,0.03192
2756.96999,0.03164
2755.93973,0.03156
2754.90947,0.03143
2753.87921,0.03134
2752.84896,0.03122
2751.81870,0.03084
2750.78844,0.03041
2749.75818,0.03020
2748.72792,0.03007
2747.69767,0.02992
2746.66741,0.02988
2745.63715,0.02985
2744.60689,0.02982
2743.57663,0.02983
2742.54638,0.02974
2741.51612,0.02955
2740.48586,0.02928
2739.45560,0.02902
2738.42535,0.02883
2737.39509,0.02870
2736.36483,0.02864
2735.33457,0.02850
2734.30431,0.02817
2733.27406,0.02782
2732.24380,0.02744
2731.21354,0.02720
2730.18328,0.02729
2729.15303,0.02739
2728.12277,0.02743
2727.09251,0.02753
2726.06225,0.02759
2725.03199,0.02731
2724.00174,0.02664
2722.97148,0.02601
2721.94122,0.02571
2720.91096,0.02567
2719.88070,0.02578
2718.85045,0.02602
2717.82019,0.02615
2716.78993,0.02591
2715.75967,0.02551
2714.72942,0.02518
2713.69916,0.02495
2712.66890,0.02489
2711.63864,0.02485
2710.60838,0.02480
2709.57813,0.02484
2708.54787,0.02473
2707.51761,0.02444
2706.48735,0.02439
2705.45709,0.02462
2704.42684,0.02458
2703.39658,0.02409
2702.36632,0.02366
2701.33606,0.02348
2700.30581,0.02345
2699.27555,0.02353
2698.24529,0.02364
2697.21503,0.02354
2696.18477,0.02318
2695.15452,0.02288
2694.12426,0.02279
2693.09400,0.02256
2692.06374,0.02215
2691.03348,0.02190
2690.00323,0.02181
2688.97297,0.02182
2687.94271,0.02189
2686.91245,0.02175
2685.88220,0.02149
2684.85194,0.02143
2683.82168,0.02140
2682.79142,0.02123
2681.76116,0.02104
2680.73091,0.02104
2679.70065,0.02126
2678.67039,0.02141
2677.64013,0.02126
2676.60988,0.02093
2675.57962,0.02063
2674.54936,0.02048
2673.51910,0.02046
2672.48884,0.02033
2671.45859,0.02003
2670.42833,0.01989
2669.39807,0.01998
2668.36781,0.01996
2667.33755,0.01972
2666.30730,0.01953
2665.27704,0.01955
2664.24678,0.01953
2663.21652,0.01933
2662.18627,0.01924
2661.15601,0.01917
2660.12575,0.01911
2659.09549,0.01909
2658.06523,0.01890
2657.03498,0.01873
2656.00472,0.01870
2654.97446,0.01859
2653.94420,0.01823
2652.91394,0.01790
2651.88369,0.01796
2650.85343,0.01826
2649.82317,0.01847
2648.79291,0.01849
2647.76266,0.01834
2646.73240,0.01800
2645.70214,0.01769
2644.67188,0.01767
2643.64162,0.01791
2642.61137,0.01802
2641.58111,0.01781
2640.55085,0.01749
2639.52059,0.01725
2638.49033,0.01702
2637.46008,0.01672
2636.42982,0.01662
2635.39956,0.01666
2634.36930,0.01657
2633.33905,0.01651
2632.30879,0.01642
2631.27853,0.01621
2630.24827,0.01626
2629.21801,0.01660
2628.18776,0.01665
2627.15750,0.01647
2626.12724,0.01633
2625.09698,0.01604
2624.06673,0.01579
2623.03647,0.01575
2622.00621,0.01598
2620.97595,0.01635
2619.94569,0.01617
2618.91544,0.01558
2617.88518,0.01524
2616.85492,0.01508
2615.82466,0.01510
2614.79440,0.01535
2613.76415,0.01535
2612.73389,0.01492
2611.70363,0.01457
2610.67337,0.01482
2609.64312,0.01538
2608.61286,0.01549
2607.58260,0.01511
2606.55234,0.01496
2605.52208,0.01519
2604.49183,0.01528
2603.46157,0.01504
2602.43131,0.01465
2601.40105,0.01437
2600.37079,0.01425
2599.34054,0.01427
2598.31028,0.01448
2597.28002,0.01438
2596.24976,0.01404
2595.21951,0.01409
2594.18925,0.01440
2593.15899,0.01456
2592.12873,0.01470
2591.09847,0.01491
2590.06822,0.01510
2589.03796,0.01520
2588.00770,0.01497
2586.97744,0.01459
2585.94718,0.01449
2584.91693,0.01455
2583.88667,0.01455
2582.85641,0.01474
2581.82615,0.01516
2580.79590,0.01529
2579.76564,0.01495
2578.73538,0.01470
2577.70512,0.01491
2576.67486,0.01489
2575.64461,0.01423
2574.61435,0.01385
2573.58409,0.01400
2572.55383,0.01380
2571.52358,0.01347
2570.49332,0.01379
2569.46306,0.01436
2568.43280,0.01462
2567.40254,0.01475
2566.37229,0.01472
2565.34203,0.01422
2564.31177,0.01377
2563.28151,0.01388
2562.25125,0.01416
2561.22100,0.01424
2560.19074,0.01392
2559.16048,0.01351
2558.13022,0.01360
2557.09997,0.01393
2556.06971,0.01388
2555.03945,0.01366
2554.00919,0.01371
2552.97893,0.01382
2551.94868,0.01386
2550.91842,0.01389
2549.88816,0.01385
2548.85790,0.01382
2547.82764,0.01380
2546.79739,0.01389
2545.76713,0.01374
2544.73687,0.01310
2543.70661,0.01277
2542.67636,0.01313
2541.64610,0.01361
2540.61584,0.01394
2539.58558,0.01420
2538.55532,0.01427
2537.52507,0.01392
2536.49481,0.01368
2535.46455,0.01381
2534.43429,0.01396
2533.40403,0.01408
2532.37378,0.01381
2531.34352,0.01313
2530.31326,0.01308
2529.28300,0.01378
2528.25275,0.01419
2527.22249,0.01400
2526.19223,0.01396
2525.16197,0.01426
2524.13171,0.01428
2523.10146,0.01412
2522.07120,0.01415
2521.04094,0.01424
2520.01068,0.01446
2518.98043,0.01464
2517.95017,0.01453
2516.91991,0.01414
2515.88965,0.01362
2514.85939,0.01361
2513.82914,0.01404
2512.79888,0.01429
2511.76862,0.01443
2510.73836,0.01425
2509.70810,0.01350
2508.67785,0.01308
2507.64759,0.01348
2506.61733,0.01390
2505.58707,0.01402
2504.55682,0.01402
2503.52656,0.01376
2502.49630,0.01324
2501.46604,0.01304
2500.43578,0.01325
2499.40553,0.01366
2498.37527,0.01423
2497.34501,0.01429
2496.31475,0.01363
2495.28449,0.01312
2494.25424,0.01309
2493.22398,0.01335
2492.19372,0.01360
2491.16346,0.01336
2490.13321,0.01301
2489.10295,0.01323
2488.07269,0.01359
2487.04243,0.01361
2486.01217,0.01356
2484.98192,0.01350
2483.95166,0.01374
2482.92140,0.01427
2481.89114,0.01422
2480.86088,0.01367
2479.83063,0.01339
2478.80037,0.01303
2477.77011,0.01236
2476.73985,0.01224
2475.70960,0.01278
2474.67934,0.01296
2473.64908,0.01264
2472.61882,0.01271
2471.58856,0.01305
2470.55831,0.01286
2469.52805,0.01271
2468.49779,0.01323
2467.46753,0.01347
2466.43728,0.01325
2465.40702,0.01352
2464.37676,0.01397
2463.34650,0.01415
2462.31624,0.01475
2461.28599,0.01558
2460.25573,0.01553
2459.22547,0.01480
2458.19521,0.01449
2457.16495,0.01458
2456.13470,0.01418
2455.10444,0.01346
2454.07418,0.01318
2453.04392,0.01327
2452.01367,0.01358
2450.98341,0.01402
2449.95315,0.01437
2448.92289,0.01469
2447.89263,0.01473
2446.86238,0.01426
2445.83212,0.01411
2444.80186,0.01462
2443.77160,0.01478
2442.74134,0.01438
2441.71109,0.01397
2440.68083,0.01378
2439.65057,0.01372
2438.62031,0.01372
2437.59006,0.01386
2436.55980,0.01424
2435.52954,0.01462
2434.49928,0.01451
2433.46902,0.01414
2432.43877,0.01424
2431.40851,0.01490
2430.37825,0.01556
2429.34799,0.01559
2428.31774,0.01538
2427.28748,0.01541
2426.25722,0.01546
2425.22696,0.01538
2424.19670,0.01527
2423.16645,0.01540
2422.13619,0.01566
2421.10593,0.01562
2420.07567,0.01546
2419.04541,0.01517
2418.01516,0.01499
2416.98490,0.01526
2415.95464,0.01548
2414.92438,0.01545
2413.89413,0.01557
2412.86387,0.01585
2411.83361,0.01599
2410.80335,0.01608
2409.77309,0.01614
2408.74284,0.01607
2407.71258,0.01603
2406.68232,0.01590
2405.65206,0.01558
2404.62180,0.01554
2403.59155,0.01555
2402.56129,0.01545
2401.53103,0.01581
2400.50077,0.01620
2399.47052,0.01604
2398.44026,0.01587
2397.41000,0.01606
2396.37974,0.01621
2395.34948,0.01617
2394.31923,0.01612
2393.28897,0.01615
2392.25871,0.01653
2391.22845,0.01709
2390.19819,0.01742
2389.16794,0.01739
2388.13768,0.01703
2387.10742,0.01675
2386.07716,0.01685
2385.04691,0.01713
2384.01665,0.01727
2382.98639,0.01712
2381.95613,0.01698
2380.92587,0.01707
2379.89562,0.01665
2378.86536,0.01591
2377.83510,0.01611
2376.80484,0.01684
2375.77459,0.01714
2374.74433,0.01751
2373.71407,0.01801
2372.68381,0.01814
2371.65355,0.01849
2370.62330,0.01931
2369.59304,0.01957
2368.56278,0.01895
2367.53252,0.01831
2366.50226,0.01879
2365.47201,0.02005
2364.44175,0.01968
2363.41149,0.01777
2362.38123,0.01708
2361.35098,0.01733
2360.32072,0.01716
2359.29046,0.01760
2358.26020,0.01891
2357.22994,0.01942
2356.19969,0.01865
2355.16943,0.01818
2354.13917,0.01842
2353.10891,0.01823
2352.07865,0.01784
2351.04840,0.01817
2350.01814,0.01895
2348.98788,0.01948
2347.95762,0.01970
2346.92737,0.01952
2345.89711,0.01879
2344.86685,0.01822
2343.83659,0.01823
2342.80633,0.01842
2341.77608,0.01892
2340.74582,0.01945
2339.71556,0.01956
2338.68530,0.01961
2337.65504,0.01983
2336.62479,0.01990
2335.59453,0.01976
2334.56427,0.01933
2333.53401,0.01893
2332.50376,0.01912
2331.47350,0.01980
2330.44324,0.02049
2329.41298,0.02055
2328.38272,0.02023
2327.35247,0.02024
2326.32221,0.02053
2325.29195,0.02065
2324.26169,0.02019
2323.23144,0.01982
2322.20118,0.02046
2321.17092,0.02115
2320.14066,0.02059
2319.11040,0.01937
2318.08015,0.01907
2317.04989,0.01975
2316.01963,0.02022
2314.98937,0.02031
2313.95911,0.02043
2312.92886,0.02069
2311.89860,0.02096
2310.86834,0.02072
2309.83808,0.02009
2308.80783,0.02006
2307.77757,0.02048
2306.74731,0.02047
2305.71705,0.02031
2304.68679,0.02055
2303.65654,0.02110
2302.62628,0.02141
2301.59602,0.02104
2300.56576,0.02073
2299.53550,0.02091
2298.50525,0.02076
2297.47499,0.02060
2296.44473,0.02097
2295.41447,0.02135
2294.38422,0.02135
2293.35396,0.02107
2292.32370,0.02117
2291.29344,0.02196
2290.26318,0.02289
2289.23293,0.02328
2288.20267,0.02256
2287.17241,0.02139
2286.14215,0.02105
2285.11189,0.02132
2284.08164,0.02138
2283.05138,0.02145
2282.02112,0.02180
2280.99086,0.02231
2279.96061,0.02272
2278.93035,0.02269
2277.90009,0.02262
2276.86983,0.02292
2275.83957,0.02290
2274.80932,0.02243
2273.77906,0.02220
2272.74880,0.02219
2271.71854,0.02227
2270.68829,0.02265
2269.65803,0.02259
2268.62777,0.02155
2267.59751,0.02111
2266.56725,0.02191
2265.53700,0.02296
2264.50674,0.02365
2263.47648,0.02339
2262.44622,0.02243
2261.41596,0.02189
2260.38571,0.02206
2259.35545,0.02242
2258.32519,0.02232
2257.29493,0.02198
2256.26468,0.02174
2255.23442,0.02108
2254.20416,0.02109
2253.17390,0.02211
2252.14364,0.02249
2251.11339,0.02257
2250.08313,0.02319
2249.05287,0.02414
2248.02261,0.02503
2246.99235,0.02498
2245.96210,0.02411
2244.93184,0.02322
2243.90158,0.02274
2242.87132,0.02315
2241.84107,0.02381
2240.81081,0.02401
2239.78055,0.02439
2238.75029,0.02516
2237.72003,0.02574
2236.68978,0.02567
2235.65952,0.02531
2234.62926,0.02528
2233.59900,0.02510
2232.56874,0.02429
2231.53849,0.02351
2230.50823,0.02372
2229.47797,0.02481
2228.44771,0.02550
2227.41746,0.02553
2226.38720,0.02571
2225.35694,0.02549
2224.32668,0.02480
2223.29642,0.02481
2222.26617,0.02545
2221.23591,0.02668
2220.20565,0.02788
2219.17539,0.02741
2218.14514,0.02651
2217.11488,0.02728
2216.08462,0.02798
2215.05436,0.02597
2214.02410,0.02290
2212.99385,0.02154
2211.96359,0.02187
2210.93333,0.02400
2209.90307,0.02656
2208.87281,0.02662
2207.84256,0.02561
2206.81230,0.02577
2205.78204,0.02617
2204.75178,0.02616
2203.72153,0.02634
2202.69127,0.02709
2201.66101,0.02780
2200.63075,0.02734
2199.60049,0.02605
2198.57024,0.02547
2197.53998,0.02512
2196.50972,0.02428
2195.47946,0.02399
2194.44920,0.02390
2193.41895,0.02388
2192.38869,0.02496
2191.35843,0.02645
2190.32817,0.02764
2189.29792,0.02832
2188.26766,0.02740
2187.23740,0.02467
2186.20714,0.02255
2185.17688,0.02302
2184.14663,0.02537
2183.11637,0.02794
2182.08611,0.02862
2181.05585,0.02677
2180.02559,0.02454
2178.99534,0.02400
2177.96508,0.02448
2176.93482,0.02461
2175.90456,0.02530
2174.87431,0.02670
2173.84405,0.02609
2172.81379,0.02381
2171.78353,0.02383
2170.75327,0.02624
2169.72302,0.02833
2168.69276,0.02971
2167.66250,0.03065
2166.63224,0.03066
2165.60199,0.03028
2164.57173,0.03000
2163.54147,0.02936
2162.51121,0.02810
2161.48095,0.02713
2160.45070,0.02744
2159.42044,0.02648
2158.39018,0.02364
2157.35992,0.02180
2156.32966,0.02218
2155.29941,0.02505
2154.26915,0.02793
2153.23889,0.02815
2152.20863,0.02780
2151.17838,0.02782
2150.14812,0.02645
2149.11786,0.02519
2148.08760,0.02543
2147.05734,0.02651
2146.02709,0.02766
2144.99683,0.02722
2143.96657,0.02560
2142.93631,0.02596
2141.90605,0.02809
2140.87580,0.02848
2139.84554,0.02688
2138.81528,0.02554
2137.78502,0.02506
2136.75477,0.02471
2135.72451,0.02461
2134.69425,0.02475
2133.66399,0.02469
2132.63373,0.02461
2131.60348,0.02531
2130.57322,0.02606
2129.54296,0.02528
2128.51270,0.02440
2127.48244,0.02423
2126.45219,0.02382
2125.42193,0.02365
2124.39167,0.02404
2123.36141,0.02499
2122.33116,0.02603
2121.30090,0.02593
2120.27064,0.02537
2119.24038,0.02513
2118.21012,0.02477
2117.17987,0.02493
2116.14961,0.02513
2115.11935,0.02427
2114.08909,0.02397
2113.05884,0.02487
2112.02858,0.02516
2110.99832,0.02455
2109.96806,0.02396
2108.93780,0.02363
2107.90755,0.02367
2106.87729,0.02360
2105.84703,0.02323
2104.81677,0.02332
2103.78651,0.02394
2102.75626,0.02443
2101.72600,0.02470
2100.69574,0.02463
2099.66548,0.02362
2098.63523,0.02292
2097.60497,0.02356
2096.57471,0.02415
2095.54445,0.02447
2094.51419,0.02527
2093.48394,0.02560
2092.45368,0.02438
2091.42342,0.02283
2090.39316,0.02282
2089.36290,0.02385
2088.33265,0.02411
2087.30239,0.02306
2086.27213,0.02222
2085.24187,0.02267
2084.21162,0.02332
2083.18136,0.02292
2082.15110,0.02183
2081.12084,0.02129
2080.09058,0.02140
2079.06033,0.02186
2078.03007,0.02285
2076.99981,0.02307
2075.96955,0.02211
2074.93930,0.02158
2073.90904,0.02133
2072.87878,0.02059
2071.84852,0.02006
2070.81826,0.01999
2069.78801,0.01953
2068.75775,0.01905
2067.72749,0.01997
2066.69723,0.02135
2065.66697,0.02137
2064.63672,0.02059
2063.60646,0.02037
2062.57620,0.02129
2061.54594,0.02245
2060.51569,0.02226
2059.48543,0.02135
2058.45517,0.02100
2057.42491,0.02098
2056.39465,0.02084
2055.36440,0.02069
2054.33414,0.02063
2053.30388,0.02052
2052.27362,0.02005
2051.24336,0.01946
2050.21311,0.01923
2049.18285,0.01878
2048.15259,0.01864
2047.12233,0.01968
2046.09208,0.02096
2045.06182,0.02119
2044.03156,0.02024
2043.00130,0.02009
2041.97104,0.02140
2040.94079,0.02217
2039.91053,0.02160
2038.88027,0.02024
2037.85001,0.01900
2036.81975,0.01873
2035.78950,0.01885
2034.75924,0.01954
2033.72898,0.02042
2032.69872,0.02022
2031.66847,0.02011
2030.63821,0.01997
2029.60795,0.01836
2028.57769,0.01643
2027.54743,0.01610
2026.51718,0.01779
2025.48692,0.01968
2024.45666,0.01897
2023.42640,0.01693
2022.39615,0.01672
2021.36589,0.01882
2020.33563,0.02181
2019.30537,0.02245
2018.27511,0.01978
2017.24486,0.01711
2016.21460,0.01758
2015.18434,0.01932
2014.15408,0.01892
2013.12382,0.01786
2012.09357,0.01778
2011.06331,0.01757
2010.03305,0.01687
2009.00279,0.01655
2007.97254,0.01691
2006.94228,0.01780
2005.91202,0.01901
2004.88176,0.01909
2003.85150,0.01741
2002.82125,0.01561
2001.79099,0.01474
2000.76073,0.01436
1999.73047,0.01545
1998.70021,0.01775
1997.66996,0.01836
1996.63970,0.01821
1995.60944,0.01898
1994.57918,0.01877
1993.54893,0.01770
1992.51867,0.01715
1991.48841,0.01590
1990.45815,0.01435
1989.42789,0.01473
1988.39764,0.01599
1987.36738,0.01539
1986.33712,0.01392
1985.30686,0.01437
1984.27660,0.01512
1983.24635,0.01417
1982.21609,0.01398
1981.18583,0.01532
1980.15557,0.01612
1979.12532,0.01574
1978.09506,0.01426
1977.06480,0.01366
1976.03454,0.01490
1975.00428,0.01427
1973.97403,0.01257
1972.94377,0.01399
1971.91351,0.01646
1970.88325,0.01693
1969.85300,0.01574
1968.82274,0.01526
1967.79248,0.01664
1966.76222,0.01730
1965.73196,0.01663
1964.70171,0.01620
1963.67145,0.01621
1962.64119,0.01675
1961.61093,0.01684
1960.58067,0.01538
1959.55042,0.01375
1958.52016,0.01379
1957.48990,0.01570
1956.45964,0.01793
1955.42939,0.01781
1954.39913,0.01483
1953.36887,0.01279
1952.33861,0.01346
1951.30835,0.01436
1950.27810,0.01404
1949.24784,0.01314
1948.21758,0.01258
1947.18732,0.01268
1946.15706,0.01314
1945.12681,0.01365
1944.09655,0.01464
1943.06629,0.01660
1942.03603,0.01778
1941.00578,0.01676
1939.97552,0.01531
1938.94526,0.01435
1937.91500,0.01370
1936.88474,0.01412
1935.85449,0.01474
1934.82423,0.01444
1933.79397,0.01418
1932.76371,0.01417
1931.73345,0.01431
1930.70320,0.01477
1929.67294,0.01516
1928.64268,0.01522
1927.61242,0.01489
1926.58217,0.01438
1925.55191,0.01413
1924.52165,0.01423
1923.49139,0.01429
1922.46113,0.01421
1921.43088,0.01477
1920.40062,0.01548
1919.37036,0.01490
1918.34010,0.01370
1917.30985,0.01354
1916.27959,0.01431
1915.24933,0.01493
1914.21907,0.01488
1913.18881,0.01462
1912.15856,0.01433
1911.12830,0.01367
1910.09804,0.01361
1909.06778,0.01477
1908.03752,0.01551
1907.00727,0.01495
1905.97701,0.01436
1904.94675,0.01480
1903.91649,0.01550
1902.88624,0.01540
1901.85598,0.01546
1900.82572,0.01634
1899.79546,0.01674
1898.76520,0.01605
1897.73495,0.01523
1896.70469,0.01513
1895.67443,0.01583
1894.64417,0.01656
1893.61391,0.01654
1892.58366,0.01627
1891.55340,0.01641
1890.52314,0.01650
1889.49288,0.01617
1888.46263,0.01590
1887.43237,0.01600
1886.40211,0.01627
1885.37185,0.01641
1884.34159,0.01639
1883.31134,0.01668
1882.28108,0.01722
1881.25082,0.01716
1880.22056,0.01651
1879.19030,0.01610
1878.16005,0.01597
1877.12979,0.01576
1876.09953,0.01578
1875.06927,0.01589
1874.03902,0.01562
1873.00876,0.01560
1871.97850,0.01603
1870.94824,0.01613
1869.91798,0.01600
1868.88773,0.01596
1867.85747,0.01589
1866.82721,0.01580
1865.79695,0.01555
1864.76670,0.01523
1863.73644,0.01553
1862.70618,0.01628
1861.67592,0.01643
1860.64566,0.01591
1859.61541,0.01539
1858.58515,0.01500
1857.55489,0.01482
1856.52463,0.01487
1855.49437,0.01510
1854.46412,0.01565
1853.43386,0.01604
1852.40360,0.01603
1851.37334,0.01601
1850.34309,0.01605
1849.31283,0.01638
1848.28257,0.01662
1847.25231,0.01644
1846.22205,0.01653
1845.19180,0.01668
1844.16154,0.01612
1843.13128,0.01566
1842.10102,0.01581
1841.07076,0.01589
1840.04051,0.01577
1839.01025,0.01581
1837.97999,0.01612
1836.94973,0.01660
1835.91948,0.01702
1834.88922,0.01704
1833.85896,0.01660
1832.82870,0.01623
1831.79844,0.01632
1830.76819,0.01648
1829.73793,0.01654
1828.70767,0.01682
1827.67741,0.01716
1826.64715,0.01700
1825.61690,0.01636
1824.58664,0.01620
1823.55638,0.01691
1822.52612,0.01774
1821.49587,0.01800
1820.46561,0.01765
1819.43535,0.01710
1818.40509,0.01680
1817.37483,0.01689
1816.34458,0.01725
1815.31432,0.01767
1814.28406,0.01785
1813.25380,0.01766
1812.22355,0.01748
1811.19329,0.01773
1810.16303,0.01828
1809.13277,0.01866
1808.10251,0.01884
1807.07226,0.01899
1806.04200,0.01897
1805.01174,0.01874
1803.98148,0.01851
1802.95122,0.01852
1801.92097,0.01900
1800.89071,0.01932
1799.86045,0.01889
1798.83019,0.01865
1797.79994,0.01924
1796.76968,0.01967
1795.73942,0.01940
1794.70916,0.01932
1793.67890,0.01968
1792.64865,0.01995
1791.61839,0.01984
1790.58813,0.01958
1789.55787,0.01966
1788.52761,0.02016
1787.49736,0.02065
1786.46710,0.02075
1785.43684,0.02056
1784.40658,0.02064
1783.37633,0.02116
1782.34607,0.02165
1781.31581,0.02202
1780.28555,0.02253
1779.25529,0.02290
1778.22504,0.02291
1777.19478,0.02294
1776.16452,0.02287
1775.13426,0.02265
1774.10400,0.02276
1773.07375,0.02317
1772.04349,0.02354
1771.01323,0.02381
1769.98297,0.02392
1768.95272,0.02366
1767.92246,0.02344
1766.89220,0.02385
1765.86194,0.02428
1764.83168,0.02455
1763.80143,0.02481
1762.77117,0.02500
1761.74091,0.02525
1760.71065,0.02559
1759.68040,0.02590
1758.65014,0.02623
1757.61988,0.02664
1756.58962,0.02704
1755.55936,0.02736
1754.52911,0.02761
1753.49885,0.02786
1752.46859,0.02797
1751.43833,0.02799
1750.40807,0.02846
1749.37782,0.02911
1748.34756,0.02962
1747.31730,0.03012
1746.28704,0.03052
1745.25679,0.03090
1744.22653,0.03145
1743.19627,0.03215
1742.16601,0.03263
1741.13575,0.03270
1740.10550,0.03288
1739.07524,0.03359
1738.04498,0.03437
1737.01472,0.03494
1735.98446,0.03557
1734.95421,0.03626
1733.92395,0.03644
1732.89369,0.03666
1731.86343,0.03734
1730.83318,0.03805
1729.80292,0.03890
1728.77266,0.03981
1727.74240,0.04051
1726.71214,0.04114
1725.68189,0.04185
1724.65163,0.04269
1723.62137,0.04352
1722.59111,0.04428
1721.56085,0.04512
1720.53060,0.04589
1719.50034,0.04661
1718.47008,0.04753
1717.43982,0.04832
1716.40957,0.04885
1715.37931,0.04972
1714.34905,0.05102
1713.31879,0.05236
1712.28853,0.05351
1711.25828,0.05470
1710.22802,0.05602
1709.19776,0.05723
1708.16750,0.05828
1707.13725,0.05947
1706.10699,0.06086
1705.07673,0.06201
1704.04647,0.06300
1703.01621,0.06422
1701.98596,0.06559
1700.95570,0.06706
1699.92544,0.06879
1698.89518,0.07032
1697.86492,0.07143
1696.83467,0.07233
1695.80441,0.07383
1694.77415,0.07588
1693.74389,0.07743
1692.71364,0.07888
1691.68338,0.08046
1690.65312,0.08211
1689.62286,0.08372
1688.59260,0.08527
1687.56235,0.08687
1686.53209,0.08838
1685.50183,0.08981
1684.47157,0.09149
1683.44131,0.09324
1682.41106,0.09506
1681.38080,0.09698
1680.35054,0.09867
1679.32028,0.10033
1678.29003,0.10206
1677.25977,0.10344
1676.22951,0.10430
1675.19925,0.10526
1674.16899,0.10724
1673.13874,0.10938
1672.10848,0.11093
1671.07822,0.11216
1670.04796,0.11369
1669.01771,0.11544
1667.98745,0.11709
1666.95719,0.11859
1665.92693,0.11998
1664.89667,0.12136
1663.86642,0.12276
1662.83616,0.12396
1661.80590,0.12506
1660.77564,0.12622
1659.74538,0.12743
1658.71513,0.12861
1657.68487,0.12969
1656.65461,0.13072
1655.62435,0.13180
1654.59410,0.13280
1653.56384,0.13306
1652.53358,0.13249
1651.50332,0.13354
1650.47306,0.13497
1649.44281,0.13571
1648.41255,0.13606
1647.38229,0.13663
1646.35203,0.13712
1645.32177,0.13712
1644.29152,0.13710
1643.26126,0.13711
1642.23100,0.13715
1641.20074,0.13723
1640.17049,0.13690
1639.14023,0.13619
1638.10997,0.13540
1637.07971,0.13468
1636.04945,0.13354
1635.01920,0.13187
1633.98894,0.13138
1632.95868,0.13126
1631.92842,0.13043
1630.89816,0.12916
1629.86791,0.12800
1628.83765,0.12700
1627.80739,0.12572
1626.77713,0.12415
1625.74688,0.12264
1624.71662,0.12097
1623.68636,0.11868
1622.65610,0.11638
1621.62584,0.11505
1620.59559,0.11386
1619.56533,0.11219
1618.53507,0.11061
1617.50481,0.10929
1616.47456,0.10704
1615.44430,0.10478
1614.41404,0.10343
1613.38378,0.10210
1612.35352,0.10066
1611.32327,0.09911
1610.29301,0.09742
1609.26275,0.09571
1608.23249,0.09411
1607.20223,0.09263
1606.17198,0.09119
1605.14172,0.08974
1604.11146,0.08824
1603.08120,0.08683
1602.05095,0.08570
1601.02069,0.08478
1599.99043,0.08384
1598.96017,0.08269
1597.92991,0.08146
1596.89966,0.08032
1595.86940,0.07925
1594.83914,0.07829
1593.80888,0.07742
1592.77862,0.07656
1591.74837,0.07553
1590.71811,0.07448
1589.68785,0.07372
1588.65759,0.07310
1587.62734,0.07228
1586.59708,0.07137
1585.56682,0.07055
1584.53656,0.06985
1583.50630,0.06936
1582.47605,0.06896
1581.44579,0.06844
1580.41553,0.06780
1579.38527,0.06708
1578.35501,0.06637
1577.32476,0.06595
1576.29450,0.06550
1575.26424,0.06475
1574.23398,0.06407
1573.20373,0.06335
1572.17347,0.06288
1571.14321,0.06275
1570.11295,0.06229
1569.08269,0.06128
1568.05244,0.06077
1567.02218,0.06088
1565.99192,0.06105
1564.96166,0.06086
1563.93141,0.06044
1562.90115,0.06018
1561.87089,0.06000
1560.84063,0.05952
1559.81037,0.05838
1558.78012,0.05738
1557.74986,0.05718
1556.71960,0.05732
1555.68934,0.05756
1554.65908,0.05738
1553.62883,0.05670
1552.59857,0.05628
1551.56831,0.05595
1550.53805,0.05553
1549.50780,0.05558
1548.47754,0.05582
1547.44728,0.05564
1546.41702,0.05534
1545.38676,0.05494
1544.35651,0.05431
1543.32625,0.05402
1542.29599,0.05412
1541.26573,0.05417
1540.23547,0.05399
1539.20522,0.05338
1538.17496,0.05307
1537.14470,0.05318
1536.11444,0.05306
1535.08419,0.05274
1534.05393,0.05251
1533.02367,0.05223
1531.99341,0.05188
1530.96315,0.05167
1529.93290,0.05169
1528.90264,0.05163
1527.87238,0.05139
1526.84212,0.05147
1525.81186,0.05168
1524.78161,0.05141
1523.75135,0.05106
1522.72109,0.05092
1521.69083,0.05078
1520.66058,0.05056
1519.63032,0.05054
1518.60006,0.05073
1517.56980,0.05089
1516.53954,0.05095
1515.50929,0.05083
1514.47903,0.05064
1513.44877,0.05065
1512.41851,0.05079
1511.38826,0.05075
1510.35800,0.05055
1509.32774,0.05037
1508.29748,0.05029
1507.26722,0.05000
1506.23697,0.04951
1505.20671,0.04976
1504.17645,0.05020
1503.14619,0.05023
1502.11593,0.04992
1501.08568,0.04982
1500.05542,0.05022
1499.02516,0.05065
1497.99490,0.05081
1496.96465,0.05089
1495.93439,0.05094
1494.90413,0.05114
1493.87387,0.05163
1492.84361,0.05216
1491.81336,0.05271
1490.78310,0.05386
1489.75284,0.05596
1488.72258,0.05834
1487.69232,0.06149
1486.66207,0.06659
1485.63181,0.07342
1484.60155,0.08210
1483.57129,0.09256
1482.54104,0.10254
1481.51078,0.10836
1480.48052,0.10723
1479.45026,0.10036
1478.42000,0.09191
1477.38975,0.08490
1476.35949,0.07982
1475.32923,0.07713
1474.29897,0.07670
1473.26871,0.07793
1472.23846,0.08097
1471.20820,0.08497
1470.17794,0.08894
1469.14768,0.09312
1468.11743,0.09723
1467.08717,0.10035
1466.05691,0.10210
1465.02665,0.10229
1463.99639,0.10102
1462.96614,0.09914
1461.93588,0.09674
1460.90562,0.09389
1459.87536,0.09109
1458.84511,0.08833
1457.81485,0.08555
1456.78459,0.08249
1455.75433,0.08027
1454.72407,0.07938
1453.69382,0.07875
1452.66356,0.07775
1451.63330,0.07646
1450.60304,0.07535
1449.57278,0.07445
1448.54253,0.07336
1447.51227,0.07189
1446.48201,0.07063
1445.45175,0.06966
1444.42150,0.06846
1443.39124,0.06728
1442.36098,0.06646
1441.33072,0.06565
1440.30046,0.06463
1439.27021,0.06368
1438.23995,0.06292
1437.20969,0.06184
1436.17943,0.06034
1435.14917,0.05949
1434.11892,0.05900
1433.08866,0.05835
1432.05840,0.05735
1431.02814,0.05614
1429.99789,0.05513
1428.96763,0.05443
1427.93737,0.05388
1426.90711,0.05343
1425.87685,0.05298
1424.84660,0.05248
1423.81634,0.05203
1422.78608,0.05160
1421.75582,0.05118
1420.72556,0.05100
1419.69531,0.05082
1418.66505,0.05034
1417.63479,0.05024
1416.60453,0.05047
1415.57428,0.05048
1414.54402,0.05026
1413.51376,0.05021
1412.48350,0.05061
1411.45324,0.05126
1410.42299,0.05189
1409.39273,0.05267
1408.36247,0.05382
1407.33221,0.05549
1406.30196,0.05776
1405.27170,0.06035
1404.24144,0.06253
1403.21118,0.06362
1402.18092,0.06355
1401.15067,0.06254
1400.12041,0.06070
1399.09015,0.05818
1398.05989,0.05586
1397.02963,0.05426
1395.99938,0.05284
1394.96912,0.05113
1393.93886,0.04980
1392.90860,0.04932
1391.87835,0.04896
1390.84809,0.04853
1389.81783,0.04815
1388.78757,0.04774
1387.75731,0.04736
1386.72706,0.04704
1385.69680,0.04681
1384.66654,0.04668
1383.63628,0.04669
1382.60602,0.04670
1381.57577,0.04652
1380.54551,0.04633
1379.51525,0.04627
1378.48499,0.04619
1377.45474,0.04608
1376.42448,0.04600
1375.39422,0.04585
1374.36396,0.04573
1373.33370,0.04580
1372.30345,0.04588
1371.27319,0.04583
1370.24293,0.04570
1369.21267,0.04562
1368.18241,0.04570
1367.15216,0.04577
1366.12190,0.04570
1365.09164,0.04555
1364.06138,0.04535
1363.03113,0.04518
1362.00087,0.04509
1360.97061,0.04498
1359.94035,0.04491
1358.91009,0.04494
1357.87984,0.04496
1356.84958,0.04503
1355.81932,0.04499
1354.78906,0.04476
1353.75881,0.04459
1352.72855,0.04458
1351.69829,0.04462
1350.66803,0.04463
1349.63777,0.04470
1348.60752,0.04476
1347.57726,0.04474
1346.54700,0.04471
1345.51674,0.04466
1344.48648,0.04455
1343.45623,0.04436
1342.42597,0.04419
1341.39571,0.04422
1340.36545,0.04445
1339.33520,0.04461
1338.30494,0.04459
1337.27468,0.04459
1336.24442,0.04453
1335.21416,0.04441
1334.18391,0.04431
1333.15365,0.04408
1332.12339,0.04384
1331.09313,0.04376
1330.06287,0.04374
1329.03262,0.04383
1328.00236,0.04403
1326.97210,0.04409
1325.94184,0.04407
1324.91159,0.04414
1323.88133,0.04413
1322.85107,0.04404
1321.82081,0.04397
1320.79055,0.04396
1319.76030,0.04399
1318.73004,0.04397
1317.69978,0.04405
1316.66952,0.04423
1315.63927,0.04419
1314.60901,0.04398
1313.57875,0.04397
1312.54849,0.04410
1311.51823,0.04403
1310.48798,0.04380
1309.45772,0.04362
1308.42746,0.04362
1307.39720,0.04366
1306.36694,0.04364
1305.33669,0.04373
1304.30643,0.04401
1303.27617,0.04427
1302.24591,0.04453
1301.21566,0.04471
1300.18540,0.04449
1299.15514,0.04409
1298.12488,0.04384
1297.09462,0.04368
1296.06437,0.04376
1295.03411,0.04404
1294.00385,0.04417
1292.97359,0.04401
1291.94333,0.04381
1290.91308,0.04376
1289.88282,0.04388
1288.85256,0.04394
1287.82230,0.04379
1286.79205,0.04353
1285.76179,0.04337
1284.73153,0.04337
1283.70127,0.04345
1282.67101,0.04358
1281.64076,0.04362
1280.61050,0.04362
1279.58024,0.04374
1278.54998,0.04377
1277.51972,0.04346
1276.48947,0.04313
1275.45921,0.04313
1274.42895,0.04339
1273.39869,0.04373
1272.36844,0.04395
1271.33818,0.04398
1270.30792,0.04388
1269.27766,0.04385
1268.24740,0.04412
1267.21715,0.04453
1266.18689,0.04462
1265.15663,0.04440
1264.12637,0.04424
1263.09612,0.04413
1262.06586,0.04396
1261.03560,0.04403
1260.00534,0.04445
1258.97508,0.04492
1257.94483,0.04534
1256.91457,0.04589
1255.88431,0.04660
1254.85405,0.04715
1253.82379,0.04757
1252.79354,0.04810
1251.76328,0.04886
1250.73302,0.05004
1249.70276,0.05167
1248.67251,0.05349
1247.64225,0.05545
1246.61199,0.05788
1245.58173,0.06103
1244.55147,0.06473
1243.52122,0.06889
1242.49096,0.07301
1241.46070,0.07640
1240.43044,0.07907
1239.40018,0.08094
1238.36993,0.08139
1237.33967,0.08024
1236.30941,0.07784
1235.27915,0.07482
1234.24890,0.07161
1233.21864,0.06822
1232.18838,0.06502
1231.15812,0.06218
1230.12786,0.05942
1229.09761,0.05699
1228.06735,0.05516
1227.03709,0.05381
1226.00683,0.05268
1224.97657,0.05159
1223.94632,0.05068
1222.91606,0.05006
1221.88580,0.04937
1220.85554,0.04854
1219.82529,0.04806
1218.79503,0.04790
1217.76477,0.04755
1216.73451,0.04703
1215.70425,0.04673
1214.67400,0.04650
1213.64374,0.04623
1212.61348,0.04608
1211.58322,0.04605
1210.55297,0.04607
1209.52271,0.04605
1208.49245,0.04595
1207.46219,0.04568
1206.43193,0.04536
1205.40168,0.04527
1204.37142,0.04530
1203.34116,0.04520
1202.31090,0.04508
1201.28064,0.04512
1200.25039,0.04517
1199.22013,0.04509
1198.18987,0.04500
1197.15961,0.04498
1196.12936,0.04488
1195.09910,0.04477
1194.06884,0.04477
1193.03858,0.04488
1192.00832,0.04506
1190.97807,0.04505
1189.94781,0.04489
1188.91755,0.04478
1187.88729,0.04469
1186.85703,0.04453
1185.82678,0.04442
1184.79652,0.04441
1183.76626,0.04446
1182.73600,0.04443
1181.70575,0.04421
1180.67549,0.04405
1179.64523,0.04422
1178.61497,0.04436
1177.58471,0.04416
1176.55446,0.04389
1175.52420,0.04385
1174.49394,0.04406
1173.46368,0.04436
1172.43342,0.04459
1171.40317,0.04454
1170.37291,0.04423
1169.34265,0.04398
1168.31239,0.04378
1167.28214,0.04359
1166.25188,0.04364
1165.22162,0.04393
1164.19136,0.04411
1163.16110,0.04421
1162.13085,0.04427
1161.10059,0.04433
1160.07033,0.04445
1159.04007,0.04440
1158.00982,0.04420
1156.97956,0.04417
1155.94930,0.04418
1154.91904,0.04399
1153.88878,0.04399
1152.85853,0.04426
1151.82827,0.04429
1150.79801,0.04411
1149.76775,0.04409
1148.73749,0.04405
1147.70724,0.04395
1146.67698,0.04411
1145.64672,0.04443
1144.61646,0.04453
1143.58621,0.04453
1142.55595,0.04467
1141.52569,0.04452
1140.49543,0.04403
1139.46517,0.04381
1138.43492,0.04390
1137.40466,0.04405
1136.37440,0.04430
1135.34414,0.04455
1134.31388,0.04470
1133.28363,0.04461
1132.25337,0.04427
1131.22311,0.04396
1130.19285,0.04398
1129.16260,0.04433
1128.13234,0.04483
1127.10208,0.04549
1126.07182,0.04631
1125.04156,0.04698
1124.01131,0.04729
1122.98105,0.04741
1121.95079,0.04745
1120.92053,0.04752
1119.89027,0.04755
1118.86002,0.04718
1117.82976,0.04644
1116.79950,0.04591
1115.76924,0.04571
1114.73899,0.04541
1113.70873,0.04501
1112.67847,0.04488
1111.64821,0.04487
1110.61795,0.04472
1109.58770,0.04468
1108.55744,0.04486
1107.52718,0.04514
1106.49692,0.04542
1105.46667,0.04553
1104.43641,0.04544
1103.40615,0.04525
1102.37589,0.04507
1101.34563,0.04501
1100.31538,0.04487
1099.28512,0.04470
1098.25486,0.04495
1097.22460,0.04513
1096.19434,0.04476
1095.16409,0.04444
1094.13383,0.04443
1093.10357,0.04439
1092.07331,0.04433
1091.04306,0.04454
1090.01280,0.04480
1088.98254,0.04492
1087.95228,0.04502
1086.92202,0.04505
1085.89177,0.04495
1084.86151,0.04480
1083.83125,0.04489
1082.80099,0.04502
1081.77073,0.04488
1080.74048,0.04503
1079.71022,0.04532
1078.67996,0.04526
1077.64970,0.04516
1076.61945,0.04523
1075.58919,0.04543
1074.55893,0.04570
1073.52867,0.04585
1072.49841,0.04578
1071.46816,0.04568
1070.43790,0.04574
1069.40764,0.04591
1068.37738,0.04601
1067.34712,0.04597
1066.31687,0.04590
1065.28661,0.04590
1064.25635,0.04595
1063.22609,0.04606
1062.19584,0.04604
1061.16558,0.04596
1060.13532,0.04611
1059.10506,0.04624
1058.07480,0.04628
1057.04455,0.04658
1056.01429,0.04691
1054.98403,0.04683
1053.95377,0.04649
1052.92352,0.04649
1051.89326,0.04693
1050.86300,0.04717
1049.83274,0.04706
1048.80248,0.04696
1047.77223,0.04701
1046.74197,0.04718
1045.71171,0.04733
1044.68145,0.04733
1043.65119,0.04727
1042.62094,0.04721
1041.59068,0.04723
1040.56042,0.04730
1039.53016,0.04747
1038.49991,0.04782
1037.46965,0.04798
1036.43939,0.04791
1035.40913,0.04797
1034.37887,0.04812
1033.34862,0.04821
1032.31836,0.04833
1031.28810,0.04860
1030.25784,0.04884
1029.22758,0.04888
1028.19733,0.04908
1027.16707,0.04937
1026.13681,0.04927
1025.10655,0.04900
1024.07630,0.04902
1023.04604,0.04929
1022.01578,0.04953
1020.98552,0.04962
1019.95526,0.04956
1018.92501,0.04970
1017.89475,0.05021
1016.86449,0.05049
1015.83423,0.05045
1014.80397,0.05067
1013.77372,0.05100
1012.74346,0.05099
1011.71320,0.05090
1010.68294,0.05124
1009.65269,0.05186
1008.62243,0.05220
1007.59217,0.05220
1006.56191,0.05223
1005.53165,0.05242
1004.50140,0.05260
1003.47114,0.05278
1002.44088,0.05308
1001.41062,0.05329
1000.38037,0.05349
999.35011,0.05392
998.31985,0.05422
997.28959,0.05428
996.25933,0.05436
995.22908,0.05455
994.19882,0.05502
993.16856,0.05576
992.13830,0.05635
991.10804,0.05671
990.07779,0.05699
989.04753,0.05727
988.01727,0.05760
986.98701,0.05795
985.95676,0.05822
984.92650,0.05850
983.89624,0.05894
982.86598,0.05937
981.83572,0.05979
980.80547,0.06030
979.77521,0.06058
978.74495,0.06076
977.71469,0.06131
976.68443,0.06208
975.65418,0.06263
974.62392,0.06298
973.59366,0.06353
972.56340,0.06428
971.53315,0.06508
970.50289,0.06594
969.47263,0.06691
968.44237,0.06815
967.41211,0.06953
966.38186,0.07092
965.35160,0.07237
964.32134,0.07419
963.29108,0.07665
962.26082,0.07954
961.23057,0.08294
960.20031,0.08730
959.17005,0.09248
958.13979,0.09803
957.10954,0.10448
956.07928,0.11241
955.04902,0.12109
954.01876,0.12982
952.98850,0.13825
951.95825,0.14589
950.92799,0.15218
949.89773,0.15650
948.86747,0.15919
947.83722,0.16025
946.80696,0.15858
945.77670,0.15417
944.74644,0.14763
943.71618,0.13965
942.68593,0.13126
941.65567,0.12333
940.62541,0.11655
939.59515,0.11111
938.56489,0.10677
937.53464,0.10333
936.50438,0.10075
935.47412,0.09859
934.44386,0.09669
933.41361,0.09530
932.38335,0.09436
931.35309,0.09382
930.32283,0.09337
929.29257,0.09267
928.26232,0.09210
927.23206,0.09189
926.20180,0.09167
925.17154,0.09170
924.14128,0.09228
923.11103,0.09294
922.08077,0.09325
921.05051,0.09340
920.02025,0.09361
918.99000,0.09390
917.95974,0.09452
916.92948,0.09536
915.89922,0.09598
914.86896,0.09646
913.83871,0.09694
912.80845,0.09760
911.77819,0.09865
910.74793,0.09961
909.71768,0.10002
908.68742,0.10059
907.65716,0.10165
906.62690,0.10263
905.59664,0.10338
904.56639,0.10419
903.53613,0.10524
902.50587,0.10626
901.47561,0.10709
900.44535,0.10782
899.41510,0.10835
898.38484,0.10895
897.35458,0.11013
896.32432,0.11150
895.29407,0.11263
894.26381,0.11385
893.23355,0.11506
892.20329,0.11592
891.17303,0.11664
890.14278,0.11751
889.11252,0.11835
888.08226,0.11934
887.05200,0.12074
886.02174,0.12195
884.99149,0.12295
883.96123,0.12419
882.93097,0.12532
881.90071,0.12614
880.87046,0.12667
879.84020,0.12735
878.80994,0.12879
877.77968,0.13024
876.74942,0.13154
875.71917,0.13293
874.68891,0.13384
873.65865,0.13434
872.62839,0.13515
871.59813,0.13665
870.56788,0.13859
869.53762,0.14035
868.50736,0.14128
867.47710,0.14165
866.44685,0.14252
865.41659,0.14383
864.38633,0.14488
863.35607,0.14587
862.32581,0.14745
861.29556,0.14955
860.26530,0.15137
859.23504,0.15245
858.20478,0.15290
857.17453,0.15358
856.14427,0.15528
855.11401,0.15714
854.08375,0.15818
853.05349,0.15903
852.02324,0.16038
850.99298,0.16181
849.96272,0.16280
848.93246,0.16384
847.90220,0.16503
846.87195,0.16607
845.84169,0.16761
844.81143,0.16965
843.78117,0.17116
842.75092,0.17185
841.72066,0.17270
840.69040,0.17426
839.66014,0.17600
838.62988,0.17752
837.59963,0.17868
836.56937,0.17943
835.53911,0.18010
834.50885,0.18135
833.47859,0.18294
832.44834,0.18417
831.41808,0.18525
830.38782,0.18632
829.35756,0.18795
828.32731,0.19021
827.29705,0.19184
826.26679,0.19287
825.23653,0.19391
824.20627,0.19500
823.17602,0.19607
822.14576,0.19753
821.11550,0.19959
820.08524,0.20117
819.05498,0.20213
818.02473,0.20335
816.99447,0.20467
815.96421,0.20559
814.93395,0.20676
813.90370,0.20880
812.87344,0.21071
811.84318,0.21170
810.81292,0.21306
809.78266,0.21522
808.75241,0.21666
807.72215,0.21754
806.69189,0.21875
805.66163,0.21997
804.63138,0.22110
803.60112,0.22247
802.57086,0.22397
801.54060,0.22573
800.51034,0.22807
799.48009,0.23012
798.44983,0.23104
797.41957,0.23147
796.38931,0.23235
795.35905,0.23376
794.32880,0.23533
793.29854,0.23700
792.26828,0.23872
791.23802,0.24066
790.20777,0.24261
789.17751,0.24346
788.14725,0.24338
787.11699,0.24417
786.08673,0.24648
785.05648,0.24882
784.02622,0.25029
782.99596,0.25154
781.96570,0.25316
780.93544,0.25470
779.90519,0.25580
778.87493,0.25684
777.84467,0.25863
776.81441,0.26138
775.78416,0.26406
774.75390,0.26624
773.72364,0.26848
772.69338,0.27053
771.66312,0.27192
770.63287,0.27287
769.60261,0.27430
768.57235,0.27682
767.54209,0.27935
766.51183,0.28108
765.48158,0.28337
764.45132,0.28732
763.42106,0.29223
762.39080,0.29663
761.36055,0.30053
760.33029,0.30570
759.30003,0.31182
758.26977,0.31673
757.23951,0.32031
756.20926,0.32276
755.17900,0.32425
754.14874,0.32529
753.11848,0.32467
752.08823,0.32237
751.05797,0.32031
750.02771,0.31912
748.99745,0.31839
747.96719,0.31764
746.93694,0.31686
745.90668,0.31665
744.87642,0.31699
743.84616,0.31741
742.81590,0.31787
741.78565,0.31880
740.75539,0.31986
739.72513,0.32034
738.69487,0.32133
737.66462,0.32323
736.63436,0.32452
735.60410,0.32502
734.57384,0.32551
733.54358,0.32654
732.51333,0.32830
731.48307,0.33002
730.45281,0.33109
729.42255,0.33219
728.39229,0.33344
727.36204,0.33419
726.33178,0.33533
725.30152,0.33737
724.27126,0.33896
723.24101,0.33972
722.21075,0.34070
721.18049,0.34197
720.15023,0.34335
719.11997,0.34504
718.08972,0.34644
717.05946,0.34746
716.02920,0.34777
714.99894,0.34768
713.96868,0.34879
712.93843,0.35063
711.90817,0.35193
710.87791,0.35311
709.84765,0.35470
708.81740,0.35647
707.78714,0.35821
706.75688,0.35959
705.72662,0.36098
704.69636,0.36245
703.66611,0.36313
702.63585,0.36315
701.60559,0.36331
700.57533,0.36436
699.54508,0.36617
698.51482,0.36782
697.48456,0.36917
696.45430,0.37044
695.42404,0.37171
694.39379,0.37244
693.36353,0.37265
692.33327,0.37356
691.30301,0.37570
690.27275,0.37781
689.24250,0.37868
688.21224,0.37869
687.18198,0.37866
686.15172,0.37924
685.12147,0.38065
684.09121,0.38206
683.06095,0.38311
682.03069,0.38450
681.00043,0.38675
679.97018,0.38881
678.93992,0.38933
677.90966,0.38993
676.87940,0.39217
675.84914,0.39412
674.81889,0.39450
673.78863,0.39462
672.75837,0.39462
671.72811,0.39464
670.69786,0.39589
669.66760,0.39748
668.63734,0.39735
667.60708,0.39639
666.57682,0.39801
665.54657,0.40016
664.51631,0.40204
663.48605,0.40312
662.45579,0.40334
661.42553,0.40357
660.39528,0.40451
659.36502,0.40639
658.33476,0.40806
657.30450,0.40846
656.27425,0.40847
655.24399,0.40922
654.21373,0.41071
653.18347,0.41152
652.15321,0.41092
651.12296,0.41081
650.09270,0.41275
649.06244,0.41521
648.03218,0.41663
647.00193,0.41756
645.97167,0.41785
644.94141,0.41721
643.91115,0.41761
642.88089,0.42036
641.85064,0.42261
640.82038,0.42250
639.79012,0.42206
638.75986,0.42261
637.72960,0.42381
636.69935,0.42516
635.66909,0.42608
634.63883,0.42579
633.60857,0.42510
632.57832,0.42585
631.54806,0.42712
630.51780,0.42785
629.48754,0.42855
628.45728,0.42886
627.42703,0.43001
626.39677,0.43266
625.36651,0.43426
624.33625,0.43427
623.30599,0.43417
622.27574,0.43388
621.24548,0.43324
620.21522,0.43326
619.18496,0.43417
618.15471,0.43528
617.12445,0.43568
616.09419,0.43552
615.06393,0.43567
614.03367,0.43555
613.00342,0.43529
611.97316,0.43638
610.94290,0.43909
609.91264,0.44019
608.88238,0.43809
607.85213,0.43682
606.82187,0.43805
605.79161,0.43999
604.76135,0.44175
603.73110,0.44183
602.70084,0.44027
601.67058,0.44049
600.64032,0.44379
599.61006,0.44646
598.57981,0.44558
597.54955,0.44373
596.51929,0.44383
595.48903,0.44493
594.45878,0.44566
593.42852,0.44624
592.39826,0.44683
591.36800,0.44721
590.33774,0.44688
589.30749,0.44644
588.27723,0.44689
587.24697,0.44883
586.21671,0.45183
585.18645,0.45388
584.15620,0.45451
583.12594,0.45422
582.09568,0.45302
581.06542,0.45153
580.03517,0.45080
579.00491,0.45122
577.97465,0.45244
576.94439,0.45381
575.91413,0.45421
574.88388,0.45331
573.85362,0.45294
572.82336,0.45380
571.79310,0.45386
570.76284,0.45257
569.73259,0.45174
568.70233,0.45302
567.67207,0.45427
566.64181,0.45266
565.61156,0.45111
564.58130,0.45326
563.55104,0.45789
562.52078,0.45990
561.49052,0.45892
560.46027,0.45796
559.43001,0.45669
558.39975,0.45499
557.36949,0.45411
556.33924,0.45581
555.30898,0.45834
554.27872,0.45764
553.24846,0.45501
552.21820,0.45474
551.18795,0.45603
550.15769,0.45601
549.12743,0.45546
548.09717,0.45548
547.06691,0.45511
546.03666,0.45178
545.00640,0.44795
543.97614,0.44950
542.94588,0.45473
541.91563,0.45693
540.88537,0.45498
539.85511,0.45421
538.82485,0.45600
537.79459,0.45699
536.76434,0.45633
535.73408,0.45592
534.70382,0.45667
533.67356,0.45774
532.64330,0.45899
531.61305,0.46064
530.58279,0.46242
529.55253,0.46388
528.52227,0.46586
527.49202,0.46945
526.46176,0.47135
525.43150,0.46755
524.40124,0.46248
523.37098,0.46317
522.34073,0.46873
521.31047,0.47161
520.28021,0.46965
519.24995,0.47053
518.21969,0.47722
517.18944,0.48157
516.15918,0.48172
515.12892,0.48476
514.09866,0.49025
513.06841,0.49335
512.03815,0.49533
511.00789,0.49868
509.97763,0.50338
508.94737,0.50844
507.91712,0.51264
506.88686,0.51734
505.85660,0.52302
504.82634,0.52599
503.79609,0.52593
502.76583,0.52849
501.73557,0.53259
500.70531,0.53221
499.67505,0.53114
498.64480,0.53407
497.61454,0.53821
496.58428,0.53877
495.55402,0.53594
494.52376,0.53299
493.49351,0.53176
492.46325,0.53050
491.43299,0.52831
490.40273,0.52704
489.37248,0.52445
488.34222,0.51898
487.31196,0.51353
486.28170,0.51009
485.25144,0.50778
484.22119,0.50418
483.19093,0.49962
482.16067,0.49491
481.13041,0.48887
480.10015,0.48309
479.06990,0.48110
478.03964,0.48421
477.00938,0.48822
475.97912,0.48879
474.94887,0.48650
473.91861,0.48298
472.88835,0.48174
471.85809,0.48608
470.82783,0.49464
469.79758,0.50508
468.76732,0.51830
467.73706,0.53387
466.70680,0.54750
465.67654,0.56114
464.64629,0.57792
463.61603,0.59278
462.58577,0.59889
461.55551,0.59489
460.52526,0.58421
459.49500,0.57548
458.46474,0.57265
457.43448,0.56556
456.40422,0.55380
455.37397,0.54616
454.34371,0.53861
453.31345,0.53076
452.28319,0.52683
451.25294,0.52454
450.22268,0.52291
449.19242,0.52265
448.16216,0.51901
447.13190,0.51037
446.10165,0.50042
445.07139,0.49316
444.04113,0.49003
443.01087,0.49002
441.98061,0.49503
440.95036,0.50328
439.92010,0.50458
438.88984,0.49892
437.85958,0.49711
436.82933,0.49947
435.79907,0.49874
434.76881,0.49379
433.73855,0.48773
432.70829,0.48408
431.67804,0.48247
430.64778,0.47968
429.61752,0.47402
428.58726,0.46748
427.55700,0.46573
426.52675,0.46609
425.49649,0.46272
424.46623,0.46049
423.43597,0.46226
422.40572,0.46273
421.37546,0.46076
420.34520,0.46245
419.31494,0.46607
418.28468,0.46107
417.25443,0.45810
416.22417,0.46051
415.19391,0.46077
414.16365,0.46003
413.13339,0.46127
412.10314,0.46123
411.07288,0.45690
410.04262,0.45221
409.01236,0.45082
407.98211,0.45194
406.95185,0.45558
405.92159,0.45495
404.89133,0.44800
403.86107,0.44840
402.83082,0.45275
401.80056,0.44718
400.77030,0.44295
399.74004,0.44913
