4998.81105,0.00388
4997.78079,0.00359
4996.75054,0.00262
4995.72028,0.00141
4994.69002,0.00178
4993.65976,0.00344
4992.62951,0.00475
4991.59925,0.00543
4990.56899,0.00474
4989.53873,0.00302
4988.50847,0.00187
4987.47822,0.00160
4986.44796,0.00210
4985.41770,0.00280
4984.38744,0.00255
4983.35718,0.00140
4982.32693,0.00032
4981.29667,0.00000
4980.26641,0.00089
4979.23615,0.00224
4978.20590,0.00298
4977.17564,0.00297
4976.14538,0.00215
4975.11512,0.00122
4974.08486,0.00138
4973.05461,0.00275
4972.02435,0.00401
4970.99409,0.00351
4969.96383,0.00173
4968.93357,0.00080
4967.90332,0.00087
4966.87306,0.00104
4965.84280,0.00147
4964.81254,0.00184
4963.78229,0.00182
4962.75203,0.00164
4961.72177,0.00191
4960.69151,0.00280
4959.66125,0.00300
4958.63100,0.00209
4957.60074,0.00102
4956.57048,0.00079
4955.54022,0.00139
4954.50997,0.00173
4953.47971,0.00183
4952.44945,0.00179
4951.41919,0.00158
4950.38893,0.00170
4949.35868,0.00214
4948.32842,0.00264
4947.29816,0.00279
4946.26790,0.00208
4945.23764,0.00120
4944.20739,0.00108
4943.17713,0.00182
4942.14687,0.00255
4941.11661,0.00239
4940.08636,0.00252
4939.05610,0.00324
4938.02584,0.00276
4936.99558,0.00189
4935.96532,0.00236
4934.93507,0.00336
4933.90481,0.00381
4932.87455,0.00342
4931.84429,0.00214
4930.81403,0.00030
4929.78378,-0.00092
4928.75352,-0.00042
4927.72326,0.00084
4926.69300,0.00183
4925.66275,0.00251
4924.63249,0.00228
4923.60223,0.00184
4922.57197,0.00245
4921.54171,0.00288
4920.51146,0.00231
4919.48120,0.00202
4918.45094,0.00286
4917.42068,0.00431
4916.39042,0.00508
4915.36017,0.00470
4914.32991,0.00358
4913.29965,0.00252
4912.26939,0.00230
4911.23914,0.00281
4910.20888,0.00321
4909.17862,0.00292
4908.14836,0.00228
4907.11810,0.00210
4906.08785,0.00235
4905.05759,0.00217
4904.02733,0.00149
4902.99707,0.00140
4901.96682,0.00178
4900.93656,0.00167
4899.90630,0.00199
4898.87604,0.00310
4897.84578,0.00371
4896.81553,0.00345
4895.78527,0.00248
4894.75501,0.00112
4893.72475,0.00020
4892.69449,-0.00008
4891.66424,0.00034
4890.63398,0.00117
4889.60372,0.00143
4888.57346,0.00146
4887.54321,0.00142
4886.51295,0.00092
4885.48269,0.00092
4884.45243,0.00150
4883.42217,0.00202
4882.39192,0.00217
4881.36166,0.00170
4880.33140,0.00181
4879.30114,0.00255
4878.27088,0.00276
4877.24063,0.00289
4876.21037,0.00266
4875.18011,0.00179
4874.14985,0.00129
4873.11960,0.00102
4872.08934,0.00096
4871.05908,0.00149
4870.02882,0.00210
4868.99856,0.00221
4867.96831,0.00163
4866.93805,0.00132
4865.90779,0.00212
4864.87753,0.00303
4863.84727,0.00324
4862.81702,0.00325
4861.78676,0.00326
4860.75650,0.00285
4859.72624,0.00195
4858.69599,0.00125
4857.66573,0.00133
4856.63547,0.00126
4855.60521,0.00074
4854.57495,0.00083
4853.54470,0.00101
4852.51444,0.00090
4851.48418,0.00120
4850.45392,0.00197
4849.42367,0.00266
4848.39341,0.00252
4847.36315,0.00239
4846.33289,0.00273
4845.30263,0.00269
4844.27238,0.00283
4843.24212,0.00313
4842.21186,0.00242
4841.18160,0.00124
4840.15134,0.00066
4839.12109,0.00071
4838.09083,0.00096
4837.06057,0.00106
4836.03031,0.00132
4835.00006,0.00139
4833.96980,0.00077
4832.93954,0.00069
4831.90928,0.00157
4830.87902,0.00163
4829.84877,0.00077
4828.81851,0.00064
4827.78825,0.00135
4826.75799,0.00236
4825.72773,0.00311
4824.69748,0.00291
4823.66722,0.00218
4822.63696,0.00196
4821.60670,0.00180
4820.57645,0.00142
4819.54619,0.00205
4818.51593,0.00310
4817.48567,0.00313
4816.45541,0.00277
4815.42516,0.00225
4814.39490,0.00136
4813.36464,0.00091
4812.33438,0.00103
4811.30412,0.00100
4810.27387,0.00086
4809.24361,0.00108
4808.21335,0.00160
4807.18309,0.00241
4806.15284,0.00284
4805.12258,0.00215
4804.09232,0.00127
4803.06206,0.00097
4802.03180,0.00122
4801.00155,0.00172
4799.97129,0.00216
4798.94103,0.00181
4797.91077,0.00100
4796.88052,0.00121
4795.85026,0.00200
4794.82000,0.00241
4793.78974,0.00248
4792.75948,0.00221
4791.72923,0.00135
4790.69897,0.00042
4789.66871,0.00055
4788.63845,0.00147
4787.60819,0.00180
4786.57794,0.00126
4785.54768,0.00083
4784.51742,0.00082
4783.48716,0.00120
4782.45691,0.00199
4781.42665,0.00263
4780.39639,0.00247
4779.36613,0.00159
4778.33587,0.00139
4777.30562,0.00234
4776.27536,0.00278
4775.24510,0.00213
4774.21484,0.00175
4773.18458,0.00163
4772.15433,0.00111
4771.12407,0.00089
4770.09381,0.00121
4769.06355,0.00119
4768.03330,0.00059
4767.00304,0.00058
4765.97278,0.00163
4764.94252,0.00235
4763.91226,0.00187
4762.88201,0.00061
4761.85175,-0.00042
4760.82149,-0.00013
4759.79123,0.00123
4758.76098,0.00211
4757.73072,0.00180
4756.70046,0.00126
4755.67020,0.00155
4754.63994,0.00205
4753.60969,0.00180
4752.57943,0.00141
4751.54917,0.00143
4750.51891,0.00161
4749.48865,0.00166
4748.45840,0.00142
4747.42814,0.00135
4746.39788,0.00199
4745.36762,0.00272
4744.33737,0.00228
4743.30711,0.00097
4742.27685,0.00024
4741.24659,0.00025
4740.21633,0.00019
4739.18608,-0.00008
4738.15582,-0.00026
4737.12556,0.00003
4736.09530,0.00072
4735.06504,0.00124
4734.03479,0.00159
4733.00453,0.00167
4731.97427,0.00141
4730.94401,0.00108
4729.91376,0.00066
4728.88350,0.00034
4727.85324,0.00082
4726.82298,0.00216
4725.79272,0.00303
4724.76247,0.00287
4723.73221,0.00218
4722.70195,0.00154
4721.67169,0.00130
4720.64143,0.00145
4719.61118,0.00215
4718.58092,0.00259
4717.55066,0.00170
4716.52040,0.00082
4715.49015,0.00110
4714.45989,0.00176
4713.42963,0.00213
4712.39937,0.00220
4711.36911,0.00231
4710.33886,0.00246
4709.30860,0.00255
4708.27834,0.00245
4707.24808,0.00191
4706.21783,0.00139
4705.18757,0.00121
4704.15731,0.00143
4703.12705,0.00167
4702.09679,0.00158
4701.06654,0.00190
4700.03628,0.00220
4699.00602,0.00162
4697.97576,0.00122
4696.94550,0.00168
4695.91525,0.00212
4694.88499,0.00225
4693.85473,0.00236
4692.82447,0.00156
4691.79422,0.00008
4690.76396,0.00003
4689.73370,0.00155
4688.70344,0.00286
4687.67318,0.00308
4686.64293,0.00259
4685.61267,0.00205
4684.58241,0.00188
4683.55215,0.00196
4682.52189,0.00183
4681.49164,0.00199
4680.46138,0.00217
4679.43112,0.00133
4678.40086,0.00070
4677.37061,0.00146
4676.34035,0.00246
4675.31009,0.00254
4674.27983,0.00206
4673.24957,0.00144
4672.21932,0.00046
4671.18906,0.00008
4670.15880,0.00040
4669.12854,0.00057
4668.09828,0.00118
4667.06803,0.00169
4666.03777,0.00145
4665.00751,0.00090
4663.97725,0.00024
4662.94700,0.00020
4661.91674,0.00097
4660.88648,0.00160
4659.85622,0.00120
4658.82596,0.00047
4657.79571,0.00085
4656.76545,0.00159
4655.73519,0.00165
4654.70493,0.00164
4653.67468,0.00183
4652.64442,0.00160
4651.61416,0.00099
4650.58390,0.00082
4649.55364,0.00133
4648.52339,0.00161
4647.49313,0.00125
4646.46287,0.00084
4645.43261,0.00044
4644.40235,0.00046
4643.37210,0.00141
4642.34184,0.00207
4641.31158,0.00207
4640.28132,0.00185
4639.25107,0.00110
4638.22081,0.00050
4637.19055,0.00061
4636.16029,0.00088
4635.13003,0.00081
4634.09978,0.00086
4633.06952,0.00180
4632.03926,0.00232
4631.00900,0.00166
4629.97874,0.00104
4628.94849,0.00088
4627.91823,0.00074
4626.88797,0.00053
4625.85771,0.00079
4624.82746,0.00177
4623.79720,0.00223
4622.76694,0.00184
4621.73668,0.00205
4620.70642,0.00244
4619.67617,0.00205
4618.64591,0.00202
4617.61565,0.00266
4616.58539,0.00285
4615.55513,0.00233
4614.52488,0.00151
4613.49462,0.00098
4612.46436,0.00106
4611.43410,0.00162
4610.40385,0.00227
4609.37359,0.00241
4608.34333,0.00163
4607.31307,0.00086
4606.28281,0.00111
4605.25256,0.00150
4604.22230,0.00129
4603.19204,0.00096
4602.16178,0.00085
4601.13153,0.00104
4600.10127,0.00145
4599.07101,0.00163
4598.04075,0.00115
4597.01049,0.00059
4595.98024,0.00080
4594.94998,0.00132
4593.91972,0.00162
4592.88946,0.00202
4591.85920,0.00212
4590.82895,0.00158
4589.79869,0.00089
4588.76843,0.00052
4587.73817,0.00101
4586.70792,0.00176
4585.67766,0.00212
4584.64740,0.00249
4583.61714,0.00264
4582.58688,0.00229
4581.55663,0.00178
4580.52637,0.00133
4579.49611,0.00099
4578.46585,0.00078
4577.43559,0.00081
4576.40534,0.00106
4575.37508,0.00121
4574.34482,0.00117
4573.31456,0.00156
4572.28431,0.00209
4571.25405,0.00186
4570.22379,0.00155
4569.19353,0.00172
4568.16327,0.00167
4567.13302,0.00144
4566.10276,0.00142
4565.07250,0.00135
4564.04224,0.00116
4563.01198,0.00090
4561.98173,0.00067
4560.95147,0.00107
4559.92121,0.00199
4558.89095,0.00253
4557.86070,0.00223
4556.83044,0.00156
4555.80018,0.00107
4554.76992,0.00089
4553.73966,0.00118
4552.70941,0.00148
4551.67915,0.00135
4550.64889,0.00078
4549.61863,0.00026
4548.58838,0.00046
4547.55812,0.00104
4546.52786,0.00147
4545.49760,0.00129
4544.46734,0.00061
4543.43709,0.00069
4542.40683,0.00153
4541.37657,0.00187
4540.34631,0.00133
4539.31605,0.00024
4538.28580,-0.00037
4537.25554,0.00016
4536.22528,0.00117
4535.19502,0.00194
4534.16477,0.00216
4533.13451,0.00224
4532.10425,0.00230
4531.07399,0.00152
4530.04373,0.00046
4529.01348,0.00075
4527.98322,0.00161
4526.95296,0.00138
4525.92270,0.00060
4524.89244,0.00036
4523.86219,0.00076
4522.83193,0.00132
4521.80167,0.00151
4520.77141,0.00141
4519.74116,0.00137
4518.71090,0.00121
4517.68064,0.00112
4516.65038,0.00145
4515.62012,0.00182
4514.58987,0.00197
4513.55961,0.00205
4512.52935,0.00252
4511.49909,0.00317
4510.46883,0.00328
4509.43858,0.00307
4508.40832,0.00327
4507.37806,0.00336
4506.34780,0.00263
4505.31755,0.00183
4504.28729,0.00159
4503.25703,0.00145
4502.22677,0.00131
4501.19651,0.00156
4500.16626,0.00165
4499.13600,0.00081
4498.10574,0.00014
4497.07548,0.00082
4496.04523,0.00191
4495.01497,0.00235
4493.98471,0.00213
4492.95445,0.00127
4491.92419,0.00059
4490.89394,0.00122
4489.86368,0.00229
4488.83342,0.00206
4487.80316,0.00125
4486.77290,0.00103
4485.74265,0.00107
4484.71239,0.00118
4483.68213,0.00160
4482.65187,0.00217
4481.62162,0.00213
4480.59136,0.00157
4479.56110,0.00159
4478.53084,0.00201
4477.50058,0.00230
4476.47033,0.00286
4475.44007,0.00330
4474.40981,0.00313
4473.37955,0.00278
4472.34929,0.00255
4471.31904,0.00245
4470.28878,0.00230
4469.25852,0.00209
4468.22826,0.00228
4467.19801,0.00273
4466.16775,0.00256
4465.13749,0.00202
4464.10723,0.00227
4463.07697,0.00285
4462.04672,0.00281
4461.01646,0.00225
4459.98620,0.00177
4458.95594,0.00162
4457.92568,0.00153
4456.89543,0.00101
4455.86517,0.00021
4454.83491,0.00045
4453.80465,0.00162
4452.77440,0.00218
4451.74414,0.00222
4450.71388,0.00250
4449.68362,0.00264
4448.65336,0.00217
4447.62311,0.00223
4446.59285,0.00299
4445.56259,0.00298
4444.53233,0.00214
4443.50208,0.00140
4442.47182,0.00165
4441.44156,0.00262
4440.41130,0.00290
4439.38104,0.00291
4438.35079,0.00345
4437.32053,0.00354
4436.29027,0.00315
4435.26001,0.00286
4434.22975,0.00234
4433.19950,0.00214
4432.16924,0.00257
4431.13898,0.00252
4430.10872,0.00171
4429.07847,0.00131
4428.04821,0.00165
4427.01795,0.00222
4425.98769,0.00280
4424.95743,0.00299
4423.92718,0.00276
4422.89692,0.00242
4421.86666,0.00222
4420.83640,0.00244
4419.80614,0.00268
4418.77589,0.00266
4417.74563,0.00255
4416.71537,0.00239
4415.68511,0.00203
4414.65486,0.00173
4413.62460,0.00198
4412.59434,0.00234
4411.56408,0.00235
4410.53382,0.00222
4409.50357,0.00201
4408.47331,0.00178
4407.44305,0.00209
4406.41279,0.00266
4405.38253,0.00246
4404.35228,0.00169
4403.32202,0.00097
4402.29176,0.00055
4401.26150,0.00064
4400.23125,0.00105
4399.20099,0.00139
4398.17073,0.00165
4397.14047,0.00203
4396.11021,0.00213
4395.07996,0.00191
4394.04970,0.00203
4393.01944,0.00221
4391.98918,0.00179
4390.95893,0.00131
4389.92867,0.00147
4388.89841,0.00191
4387.86815,0.00209
4386.83789,0.00205
4385.80764,0.00200
4384.77738,0.00167
4383.74712,0.00102
4382.71686,0.00068
4381.68660,0.00050
4380.65635,0.00040
4379.62609,0.00090
4378.59583,0.00158
4377.56557,0.00182
4376.53532,0.00172
4375.50506,0.00165
4374.47480,0.00182
4373.44454,0.00178
4372.41428,0.00113
4371.38403,0.00083
4370.35377,0.00120
4369.32351,0.00146
4368.29325,0.00144
4367.26299,0.00154
4366.23274,0.00194
4365.20248,0.00232
4364.17222,0.00232
4363.14196,0.00193
4362.11171,0.00171
4361.08145,0.00156
4360.05119,0.00137
4359.02093,0.00189
4357.99067,0.00233
4356.96042,0.00227
4355.93016,0.00257
4354.89990,0.00256
4353.86964,0.00189
4352.83939,0.00142
4351.80913,0.00135
4350.77887,0.00140
4349.74861,0.00130
4348.71835,0.00110
4347.68810,0.00101
4346.65784,0.00103
4345.62758,0.00136
4344.59732,0.00162
4343.56706,0.00112
4342.53681,0.00060
4341.50655,0.00076
4340.47629,0.00110
4339.44603,0.00146
4338.41578,0.00187
4337.38552,0.00179
4336.35526,0.00107
4335.32500,0.00045
4334.29474,0.00070
4333.26449,0.00140
4332.23423,0.00152
4331.20397,0.00089
4330.17371,0.00063
4329.14345,0.00114
4328.11320,0.00176
4327.08294,0.00215
4326.05268,0.00215
4325.02242,0.00177
4323.99217,0.00154
4322.96191,0.00200
4321.93165,0.00259
4320.90139,0.00248
4319.87113,0.00210
4318.84088,0.00186
4317.81062,0.00149
4316.78036,0.00126
4315.75010,0.00148
4314.71984,0.00127
4313.68959,0.00044
4312.65933,0.00021
4311.62907,0.00087
4310.59881,0.00145
4309.56856,0.00151
4308.53830,0.00133
4307.50804,0.00143
4306.47778,0.00189
4305.44752,0.00237
4304.41727,0.00284
4303.38701,0.00281
4302.35675,0.00206
4301.32649,0.00159
4300.29624,0.00161
4299.26598,0.00133
4298.23572,0.00124
4297.20546,0.00173
4296.17520,0.00207
4295.14495,0.00227
4294.11469,0.00227
4293.08443,0.00191
4292.05417,0.00162
4291.02391,0.00145
4289.99366,0.00126
4288.96340,0.00121
4287.93314,0.00142
4286.90288,0.00153
4285.87263,0.00116
4284.84237,0.00076
4283.81211,0.00099
4282.78185,0.00154
4281.75159,0.00189
4280.72134,0.00209
4279.69108,0.00228
4278.66082,0.00244
4277.63056,0.00237
4276.60030,0.00203
4275.57005,0.00180
4274.53979,0.00173
4273.50953,0.00191
4272.47927,0.00205
4271.44902,0.00144
4270.41876,0.00114
4269.38850,0.00189
4268.35824,0.00218
4267.32798,0.00166
4266.29773,0.00144
4265.26747,0.00167
4264.23721,0.00182
4263.20695,0.00167
4262.17669,0.00143
4261.14644,0.00137
4260.11618,0.00151
4259.08592,0.00191
4258.05566,0.00201
4257.02541,0.00121
4255.99515,0.00037
4254.96489,0.00044
4253.93463,0.00086
4252.90437,0.00097
4251.87412,0.00093
4250.84386,0.00104
4249.81360,0.00144
4248.78334,0.00195
4247.75309,0.00205
4246.72283,0.00147
4245.69257,0.00089
4244.66231,0.00103
4243.63205,0.00133
4242.60180,0.00137
4241.57154,0.00161
4240.54128,0.00214
4239.51102,0.00222
4238.48076,0.00178
4237.45051,0.00137
4236.42025,0.00125
4235.38999,0.00156
4234.35973,0.00225
4233.32948,0.00268
4232.29922,0.00236
4231.26896,0.00188
4230.23870,0.00184
4229.20844,0.00218
4228.17819,0.00235
4227.14793,0.00219
4226.11767,0.00215
4225.08741,0.00221
4224.05715,0.00203
4223.02690,0.00164
4221.99664,0.00146
4220.96638,0.00163
4219.93612,0.00184
4218.90587,0.00205
4217.87561,0.00221
4216.84535,0.00214
4215.81509,0.00195
4214.78483,0.00178
4213.75458,0.00155
4212.72432,0.00156
4211.69406,0.00196
4210.66380,0.00188
4209.63354,0.00136
4208.60329,0.00145
4207.57303,0.00178
4206.54277,0.00167
4205.51251,0.00137
4204.48226,0.00111
4203.45200,0.00098
4202.42174,0.00110
4201.39148,0.00143
4200.36122,0.00188
4199.33097,0.00201
4198.30071,0.00165
4197.27045,0.00132
4196.24019,0.00117
4195.20994,0.00104
4194.17968,0.00110
4193.14942,0.00152
4192.11916,0.00189
4191.08890,0.00194
4190.05865,0.00175
4189.02839,0.00147
4187.99813,0.00143
4186.96787,0.00161
4185.93761,0.00166
4184.90736,0.00164
4183.87710,0.00177
4182.84684,0.00175
4181.81658,0.00159
4180.78633,0.00146
4179.75607,0.00150
4178.72581,0.00197
4177.69555,0.00255
4176.66529,0.00253
4175.63504,0.00189
4174.60478,0.00158
4173.57452,0.00203
4172.54426,0.00236
4171.51400,0.00212
4170.48375,0.00192
4169.45349,0.00186
4168.42323,0.00173
4167.39297,0.00163
4166.36272,0.00142
4165.33246,0.00102
4164.30220,0.00083
4163.27194,0.00116
4162.24168,0.00152
4161.21143,0.00169
4160.18117,0.00209
4159.15091,0.00230
4158.12065,0.00200
4157.09039,0.00171
4156.06014,0.00167
4155.02988,0.00177
4153.99962,0.00206
4152.96936,0.00249
4151.93911,0.00257
4150.90885,0.00236
4149.87859,0.00231
4148.84833,0.00230
4147.81807,0.00210
4146.78782,0.00183
4145.75756,0.00190
4144.72730,0.00232
4143.69704,0.00249
4142.66679,0.00237
4141.63653,0.00233
4140.60627,0.00234
4139.57601,0.00240
4138.54575,0.00249
4137.51550,0.00236
4136.48524,0.00210
4135.45498,0.00207
4134.42472,0.00224
4133.39446,0.00216
4132.36421,0.00179
4131.33395,0.00174
4130.30369,0.00218
4129.27343,0.00271
4128.24318,0.00294
4127.21292,0.00260
4126.18266,0.00200
4125.15240,0.00164
4124.12214,0.00154
4123.09189,0.00150
4122.06163,0.00149
4121.03137,0.00159
4120.00111,0.00176
4118.97085,0.00219
4117.94060,0.00271
4116.91034,0.00280
4115.88008,0.00270
4114.84982,0.00270
4113.81957,0.00243
4112.78931,0.00222
4111.75905,0.00250
4110.72879,0.00283
4109.69853,0.00291
4108.66828,0.00273
4107.63802,0.00229
4106.60776,0.00210
4105.57750,0.00225
4104.54724,0.00244
4103.51699,0.00257
4102.48673,0.00270
4101.45647,0.00266
4100.42621,0.00216
4099.39596,0.00181
4098.36570,0.00209
4097.33544,0.00273
4096.30518,0.00341
4095.27492,0.00350
4094.24467,0.00277
4093.21441,0.00215
4092.18415,0.00215
4091.15389,0.00243
4090.12364,0.00262
4089.09338,0.00252
4088.06312,0.00250
4087.03286,0.00292
4086.00260,0.00362
4084.97235,0.00400
4083.94209,0.00367
4082.91183,0.00320
4081.88157,0.00312
4080.85131,0.00302
4079.82106,0.00255
4078.79080,0.00236
4077.76054,0.00262
4076.73028,0.00275
4075.70003,0.00261
4074.66977,0.00254
4073.63951,0.00251
4072.60925,0.00218
4071.57899,0.00217
4070.54874,0.00287
4069.51848,0.00328
4068.48822,0.00304
4067.45796,0.00276
4066.42770,0.00265
4065.39745,0.00262
4064.36719,0.00246
4063.33693,0.00241
4062.30667,0.00271
4061.27642,0.00309
4060.24616,0.00321
4059.21590,0.00303
4058.18564,0.00269
4057.15538,0.00229
4056.12513,0.00212
4055.09487,0.00232
4054.06461,0.00250
4053.03435,0.00242
4052.00409,0.00207
4050.97384,0.00169
4049.94358,0.00202
4048.91332,0.00290
4047.88306,0.00326
4046.85281,0.00317
4045.82255,0.00312
4044.79229,0.00299
4043.76203,0.00291
4042.73177,0.00300
4041.70152,0.00306
4040.67126,0.00282
4039.64100,0.00266
4038.61074,0.00292
4037.58049,0.00328
4036.55023,0.00364
4035.51997,0.00371
4034.48971,0.00320
4033.45945,0.00262
4032.42920,0.00244
4031.39894,0.00255
4030.36868,0.00287
4029.33842,0.00327
4028.30816,0.00337
4027.27791,0.00324
4026.24765,0.00308
4025.21739,0.00296
4024.18713,0.00297
4023.15688,0.00312
4022.12662,0.00335
4021.09636,0.00360
4020.06610,0.00389
4019.03584,0.00402
4018.00559,0.00369
4016.97533,0.00312
4015.94507,0.00309
4014.91481,0.00373
4013.88455,0.00425
4012.85430,0.00416
4011.82404,0.00364
4010.79378,0.00321
4009.76352,0.00302
4008.73327,0.00301
4007.70301,0.00323
4006.67275,0.00329
4005.64249,0.00319
4004.61223,0.00343
4003.58198,0.00353
4002.55172,0.00318
4001.52146,0.00303
4000.49120,0.00315
3999.46095,0.00327
3998.43069,0.00344
3997.40043,0.00340
3996.37017,0.00296
3995.33991,0.00272
3994.30966,0.00287
3993.27940,0.00299
3992.24914,0.00308
3991.21888,0.00328
3990.18862,0.00332
3989.15837,0.00304
3988.12811,0.00302
3987.09785,0.00331
3986.06759,0.00324
3985.03734,0.00284
3984.00708,0.00273
3982.97682,0.00304
3981.94656,0.00297
3980.91630,0.00275
3979.88605,0.00313
3978.85579,0.00335
3977.82553,0.00312
3976.79527,0.00317
3975.76501,0.00341
3974.73476,0.00331
3973.70450,0.00286
3972.67424,0.00252
3971.64398,0.00252
3970.61373,0.00269
3969.58347,0.00302
3968.55321,0.00347
3967.52295,0.00370
3966.49269,0.00349
3965.46244,0.00304
3964.43218,0.00287
3963.40192,0.00312
3962.37166,0.00315
3961.34140,0.00294
3960.31115,0.00310
3959.28089,0.00340
3958.25063,0.00330
3957.22037,0.00279
3956.19012,0.00249
3955.15986,0.00263
3954.12960,0.00297
3953.09934,0.00350
3952.06908,0.00405
3951.03883,0.00393
3950.00857,0.00309
3948.97831,0.00255
3947.94805,0.00287
3946.91780,0.00335
3945.88754,0.00339
3944.85728,0.00324
3943.82702,0.00295
3942.79676,0.00238
3941.76651,0.00206
3940.73625,0.00242
3939.70599,0.00289
3938.67573,0.00308
3937.64547,0.00313
3936.61522,0.00298
3935.58496,0.00268
3934.55470,0.00245
3933.52444,0.00238
3932.49419,0.00242
3931.46393,0.00256
3930.43367,0.00292
3929.40341,0.00318
3928.37315,0.00293
3927.34290,0.00245
3926.31264,0.00236
3925.28238,0.00270
3924.25212,0.00299
3923.22186,0.00287
3922.19161,0.00280
3921.16135,0.00315
3920.13109,0.00350
3919.10083,0.00335
3918.07058,0.00302
3917.04032,0.00299
3916.01006,0.00321
3914.97980,0.00335
3913.94954,0.00307
3912.91929,0.00240
3911.88903,0.00220
3910.85877,0.00259
3909.82851,0.00288
3908.79825,0.00295
3907.76800,0.00296
3906.73774,0.00280
3905.70748,0.00235
3904.67722,0.00186
3903.64697,0.00169
3902.61671,0.00145
3901.58645,0.00149
3900.55619,0.00231
3899.52593,0.00290
3898.49568,0.00293
3897.46542,0.00299
3896.43516,0.00315
3895.40490,0.00329
3894.37465,0.00324
3893.34439,0.00311
3892.31413,0.00341
3891.28387,0.00398
3890.25361,0.00417
3889.22336,0.00389
3888.19310,0.00342
3887.16284,0.00286
3886.13258,0.00257
3885.10232,0.00286
3884.07207,0.00288
3883.04181,0.00269
3882.01155,0.00264
3880.98129,0.00236
3879.95104,0.00194
3878.92078,0.00182
3877.89052,0.00191
3876.86026,0.00217
3875.83000,0.00279
3874.79975,0.00326
3873.76949,0.00301
3872.73923,0.00287
3871.70897,0.00297
3870.67871,0.00279
3869.64846,0.00273
3868.61820,0.00296
3867.58794,0.00293
3866.55768,0.00284
3865.52743,0.00289
3864.49717,0.00299
3863.46691,0.00318
3862.43665,0.00319
3861.40639,0.00291
3860.37614,0.00288
3859.34588,0.00314
3858.31562,0.00336
3857.28536,0.00322
3856.25510,0.00301
3855.22485,0.00335
3854.19459,0.00395
3853.16433,0.00387
3852.13407,0.00359
3851.10382,0.00363
3850.07356,0.00361
3849.04330,0.00334
3848.01304,0.00310
3846.98278,0.00311
3845.95253,0.00316
3844.92227,0.00307
3843.89201,0.00306
3842.86175,0.00325
3841.83150,0.00336
3840.80124,0.00337
3839.77098,0.00365
3838.74072,0.00384
3837.71046,0.00319
3836.68021,0.00257
3835.64995,0.00285
3834.61969,0.00322
3833.58943,0.00294
3832.55917,0.00257
3831.52892,0.00256
3830.49866,0.00255
3829.46840,0.00263
3828.43814,0.00300
3827.40789,0.00314
3826.37763,0.00294
3825.34737,0.00308
3824.31711,0.00322
3823.28685,0.00290
3822.25660,0.00272
3821.22634,0.00280
3820.19608,0.00278
3819.16582,0.00317
3818.13556,0.00359
3817.10531,0.00349
3816.07505,0.00328
3815.04479,0.00368
3814.01453,0.00413
3812.98428,0.00397
3811.95402,0.00377
3810.92376,0.00389
3809.89350,0.00357
3808.86324,0.00304
3807.83299,0.00317
3806.80273,0.00356
3805.77247,0.00343
3804.74221,0.00324
3803.71195,0.00343
3802.68170,0.00364
3801.65144,0.00325
3800.62118,0.00282
3799.59092,0.00316
3798.56067,0.00373
3797.53041,0.00407
3796.50015,0.00399
3795.46989,0.00406
3794.43963,0.00428
3793.40938,0.00396
3792.37912,0.00356
3791.34886,0.00350
3790.31860,0.00347
3789.28835,0.00348
3788.25809,0.00353
3787.22783,0.00359
3786.19757,0.00379
3785.16731,0.00412
3784.13706,0.00437
3783.10680,0.00432
3782.07654,0.00400
3781.04628,0.00358
3780.01602,0.00346
3778.98577,0.00357
3777.95551,0.00344
3776.92525,0.00336
3775.89499,0.00366
3774.86474,0.00403
3773.83448,0.00409
3772.80422,0.00391
3771.77396,0.00362
3770.74370,0.00350
3769.71345,0.00380
3768.68319,0.00423
3767.65293,0.00438
3766.62267,0.00420
3765.59241,0.00406
3764.56216,0.00424
3763.53190,0.00443
3762.50164,0.00451
3761.47138,0.00471
3760.44113,0.00493
3759.41087,0.00474
3758.38061,0.00450
3757.35035,0.00476
3756.32009,0.00535
3755.28984,0.00576
3754.25958,0.00588
3753.22932,0.00575
3752.19906,0.00486
3751.16880,0.00366
3750.13855,0.00329
3749.10829,0.00380
3748.07803,0.00458
3747.04777,0.00492
3746.01752,0.00486
3744.98726,0.00474
3743.95700,0.00473
3742.92674,0.00501
3741.89648,0.00572
3740.86623,0.00616
3739.83597,0.00568
3738.80571,0.00491
3737.77545,0.00466
3736.74520,0.00490
3735.71494,0.00514
3734.68468,0.00538
3733.65442,0.00589
3732.62416,0.00643
3731.59391,0.00633
3730.56365,0.00585
3729.53339,0.00564
3728.50313,0.00561
3727.47287,0.00566
3726.44262,0.00584
3725.41236,0.00603
3724.38210,0.00599
3723.35184,0.00598
3722.32159,0.00657
3721.29133,0.00724
3720.26107,0.00698
3719.23081,0.00618
3718.20055,0.00587
3717.17030,0.00635
3716.14004,0.00720
3715.10978,0.00793
3714.07952,0.00806
3713.04926,0.00793
3712.01901,0.00818
3710.98875,0.00836
3709.95849,0.00830
3708.92823,0.00856
3707.89798,0.00881
3706.86772,0.00866
3705.83746,0.00848
3704.80720,0.00851
3703.77694,0.00868
3702.74669,0.00876
3701.71643,0.00850
3700.68617,0.00839
3699.65591,0.00884
3698.62565,0.00952
3697.59540,0.01034
3696.56514,0.01113
3695.53488,0.01133
3694.50462,0.01119
3693.47437,0.01135
3692.44411,0.01198
3691.41385,0.01269
3690.38359,0.01295
3689.35333,0.01327
3688.32308,0.01412
3687.29282,0.01473
3686.26256,0.01488
3685.23230,0.01533
3684.20205,0.01608
3683.17179,0.01631
3682.14153,0.01598
3681.11127,0.01585
3680.08101,0.01619
3679.05076,0.01659
3678.02050,0.01707
3676.99024,0.01798
3675.95998,0.01906
3674.92972,0.01958
3673.89947,0.02022
3672.86921,0.02131
3671.83895,0.02220
3670.80869,0.02266
3669.77844,0.02299
3668.74818,0.02347
3667.71792,0.02426
3666.68766,0.02521
3665.65740,0.02575
3664.62715,0.02621
3663.59689,0.02716
3662.56663,0.02820
3661.53637,0.02907
3660.50611,0.02990
3659.47586,0.03070
3658.44560,0.03113
3657.41534,0.03122
3656.38508,0.03194
3655.35483,0.03344
3654.32457,0.03469
3653.29431,0.03560
3652.26405,0.03656
3651.23379,0.03761
3650.20354,0.03869
3649.17328,0.03969
3648.14302,0.03992
3647.11276,0.03961
3646.08250,0.04004
3645.05225,0.04096
3644.02199,0.04162
3642.99173,0.04257
3641.96147,0.04395
3640.93122,0.04474
3639.90096,0.04506
3638.87070,0.04593
3637.84044,0.04704
3636.81018,0.04780
3635.77993,0.04855
3634.74967,0.04952
3633.71941,0.05058
3632.68915,0.05124
3631.65890,0.05163
3630.62864,0.05212
3629.59838,0.05249
3628.56812,0.05301
3627.53786,0.05418
3626.50761,0.05547
3625.47735,0.05661
3624.44709,0.05757
3623.41683,0.05844
3622.38657,0.05909
3621.35632,0.05957
3620.32606,0.05992
3619.29580,0.06002
3618.26554,0.06028
3617.23529,0.06103
3616.20503,0.06212
3615.17477,0.06344
3614.14451,0.06457
3613.11425,0.06520
3612.08400,0.06578
3611.05374,0.06658
3610.02348,0.06712
3608.99322,0.06745
3607.96296,0.06817
3606.93271,0.06909
3605.90245,0.07009
3604.87219,0.07130
3603.84193,0.07227
3602.81168,0.07281
3601.78142,0.07337
3600.75116,0.07382
3599.72090,0.07423
3598.69064,0.07516
3597.66039,0.07601
3596.63013,0.07653
3595.59987,0.07716
3594.56961,0.07777
3593.53936,0.07853
3592.50910,0.07958
3591.47884,0.08054
3590.44858,0.08168
3589.41832,0.08321
3588.38807,0.08428
3587.35781,0.08488
3586.32755,0.08587
3585.29729,0.08695
3584.26703,0.08805
3583.23678,0.08927
3582.20652,0.09024
3581.17626,0.09071
3580.14600,0.09095
3579.11575,0.09134
3578.08549,0.09244
3577.05523,0.09405
3576.02497,0.09533
3574.99471,0.09615
3573.96446,0.09661
3572.93420,0.09701
3571.90394,0.09764
3570.87368,0.09841
3569.84342,0.09946
3568.81317,0.10085
3567.78291,0.10243
3566.75265,0.10372
3565.72239,0.10423
3564.69214,0.10446
3563.66188,0.10524
3562.63162,0.10648
3561.60136,0.10758
3560.57110,0.10824
3559.54085,0.10866
3558.51059,0.10946
3557.48033,0.11101
3556.45007,0.11304
3555.41981,0.11476
3554.38956,0.11575
3553.35930,0.11638
3552.32904,0.11712
3551.29878,0.11805
3550.26853,0.11901
3549.23827,0.12010
3548.20801,0.12144
3547.17775,0.12268
3546.14749,0.12328
3545.11724,0.12357
3544.08698,0.12431
3543.05672,0.12529
3542.02646,0.12629
3540.99621,0.12768
3539.96595,0.12913
3538.93569,0.13017
3537.90543,0.13134
3536.87517,0.13269
3535.84492,0.13344
3534.81466,0.13423
3533.78440,0.13589
3532.75414,0.13766
3531.72388,0.13894
3530.69363,0.14008
3529.66337,0.14097
3528.63311,0.14174
3527.60285,0.14286
3526.57260,0.14416
3525.54234,0.14570
3524.51208,0.14718
3523.48182,0.14772
3522.45156,0.14783
3521.42131,0.14860
3520.39105,0.15005
3519.36079,0.15162
3518.33053,0.15299
3517.30027,0.15411
3516.27002,0.15500
3515.23976,0.15607
3514.20950,0.15764
3513.17924,0.15916
3512.14899,0.16033
3511.11873,0.16125
3510.08847,0.16216
3509.05821,0.16331
3508.02795,0.16455
3506.99770,0.16577
3505.96744,0.16671
3504.93718,0.16726
3503.90692,0.16762
3502.87666,0.16821
3501.84641,0.16955
3500.81615,0.17130
3499.78589,0.17277
3498.75563,0.17400
3497.72538,0.17495
3496.69512,0.17554
3495.66486,0.17638
3494.63460,0.17738
3493.60434,0.17833
3492.57409,0.17954
3491.54383,0.18113
3490.51357,0.18288
3489.48331,0.18422
3488.45306,0.18469
3487.42280,0.18470
3486.39254,0.18522
3485.36228,0.18688
3484.33202,0.18923
3483.30177,0.19091
3482.27151,0.19162
3481.24125,0.19224
3480.21099,0.19329
3479.18073,0.19493
3478.15048,0.19675
3477.12022,0.19833
3476.08996,0.19971
3475.05970,0.20056
3474.02945,0.20091
3472.99919,0.20163
3471.96893,0.20288
3470.93867,0.20392
3469.90841,0.20457
3468.87816,0.20538
3467.84790,0.20653
3466.81764,0.20778
3465.78738,0.20886
3464.75712,0.21006
3463.72687,0.21180
3462.69661,0.21360
3461.66635,0.21473
3460.63609,0.21523
3459.60584,0.21573
3458.57558,0.21666
3457.54532,0.21788
3456.51506,0.21930
3455.48480,0.22112
3454.45455,0.22291
3453.42429,0.22380
3452.39403,0.22416
3451.36377,0.22509
3450.33351,0.22667
3449.30326,0.22807
3448.27300,0.22880
3447.24274,0.22940
3446.21248,0.23067
3445.18223,0.23211
3444.15197,0.23313
3443.12171,0.23409
3442.09145,0.23542
3441.06119,0.23713
3440.03094,0.23894
3439.00068,0.24040
3437.97042,0.24117
3436.94016,0.24180
3435.90991,0.24293
3434.87965,0.24402
3433.84939,0.24488
3432.81913,0.24614
3431.78887,0.24772
3430.75862,0.24907
3429.72836,0.24989
3428.69810,0.25059
3427.66784,0.25156
3426.63758,0.25271
3425.60733,0.25435
3424.57707,0.25601
3423.54681,0.25711
3422.51655,0.25816
3421.48630,0.25941
3420.45604,0.26023
3419.42578,0.26072
3418.39552,0.26171
3417.36526,0.26319
3416.33501,0.26463
3415.30475,0.26555
3414.27449,0.26600
3413.24423,0.26665
3412.21397,0.26798
3411.18372,0.26950
3410.15346,0.27032
3409.12320,0.27113
3408.09294,0.27259
3407.06269,0.27379
3406.03243,0.27448
3405.00217,0.27530
3403.97191,0.27604
3402.94165,0.27634
3401.91140,0.27677
3400.88114,0.27763
3399.85088,0.27885
3398.82062,0.28032
3397.79036,0.28141
3396.76011,0.28205
3395.72985,0.28262
3394.69959,0.28333
3393.66933,0.28441
3392.63908,0.28515
3391.60882,0.28531
3390.57856,0.28591
3389.54830,0.28698
3388.51804,0.28789
3387.48779,0.28870
3386.45753,0.28960
3385.42727,0.29052
3384.39701,0.29142
3383.36676,0.29224
3382.33650,0.29314
3381.30624,0.29417
3380.27598,0.29528
3379.24572,0.29608
3378.21547,0.29612
3377.18521,0.29575
3376.15495,0.29566
3375.12469,0.29648
3374.09443,0.29770
3373.06418,0.29855
3372.03392,0.29945
3371.00366,0.29994
3369.97340,0.29957
3368.94315,0.29933
3367.91289,0.30009
3366.88263,0.30167
3365.85237,0.30287
3364.82211,0.30300
3363.79186,0.30286
3362.76160,0.30308
3361.73134,0.30314
3360.70108,0.30309
3359.67082,0.30349
3358.64057,0.30434
3357.61031,0.30535
3356.58005,0.30616
3355.54979,0.30642
3354.51954,0.30617
3353.48928,0.30591
3352.45902,0.30637
3351.42876,0.30715
3350.39850,0.30747
3349.36825,0.30751
3348.33799,0.30743
3347.30773,0.30757
3346.27747,0.30831
3345.24721,0.30916
3344.21696,0.30943
3343.18670,0.30911
3342.15644,0.30913
3341.12618,0.30957
3340.09593,0.30980
3339.06567,0.31004
3338.03541,0.31019
3337.00515,0.30999
3335.97489,0.30993
3334.94464,0.31045
3333.91438,0.31102
3332.88412,0.31121
3331.85386,0.31126
3330.82361,0.31139
3329.79335,0.31159
3328.76309,0.31179
3327.73283,0.31179
3326.70257,0.31161
3325.67232,0.31138
3324.64206,0.31149
3323.61180,0.31206
3322.58154,0.31249
3321.55128,0.31241
3320.52103,0.31196
3319.49077,0.31148
3318.46051,0.31155
3317.43025,0.31246
3316.40000,0.31350
3315.36974,0.31376
3314.33948,0.31372
3313.30922,0.31407
3312.27896,0.31420
3311.24871,0.31336
3310.21845,0.31251
3309.18819,0.31284
3308.15793,0.31354
3307.12767,0.31346
3306.09742,0.31288
3305.06716,0.31319
3304.03690,0.31464
3303.00664,0.31568
3301.97639,0.31598
3300.94613,0.31662
3299.91587,0.31700
3298.88561,0.31630
3297.85535,0.31577
3296.82510,0.31613
3295.79484,0.31635
3294.76458,0.31574
3293.73432,0.31509
3292.70406,0.31529
3291.67381,0.31608
3290.64355,0.31654
3289.61329,0.31639
3288.58303,0.31603
3287.55278,0.31595
3286.52252,0.31667
3285.49226,0.31748
3284.46200,0.31789
3283.43174,0.31847
3282.40149,0.31878
3281.37123,0.31810
3280.34097,0.31699
3279.31071,0.31688
3278.28046,0.31774
3277.25020,0.31781
3276.21994,0.31699
3275.18968,0.31659
3274.15942,0.31685
3273.12917,0.31749
3272.09891,0.31826
3271.06865,0.31866
3270.03839,0.31877
3269.00813,0.31880
3267.97788,0.31839
3266.94762,0.31791
3265.91736,0.31819
3264.88710,0.31869
3263.85685,0.31877
3262.82659,0.31868
3261.79633,0.31839
3260.76607,0.31810
3259.73581,0.31840
3258.70556,0.31905
3257.67530,0.31899
3256.64504,0.31817
3255.61478,0.31782
3254.58452,0.31830
3253.55427,0.31865
3252.52401,0.31850
3251.49375,0.31853
3250.46349,0.31867
3249.43324,0.31852
3248.40298,0.31840
3247.37272,0.31834
3246.34246,0.31808
3245.31220,0.31747
3244.28195,0.31692
3243.25169,0.31749
3242.22143,0.31879
3241.19117,0.31930
3240.16092,0.31901
3239.13066,0.31857
3238.10040,0.31820
3237.07014,0.31795
3236.03988,0.31769
3235.00963,0.31715
3233.97937,0.31608
3232.94911,0.31513
3231.91885,0.31476
3230.88859,0.31430
3229.85834,0.31371
3228.82808,0.31357
3227.79782,0.31403
3226.76756,0.31440
3225.73731,0.31397
3224.70705,0.31328
3223.67679,0.31331
3222.64653,0.31343
3221.61627,0.31277
3220.58602,0.31229
3219.55576,0.31198
3218.52550,0.31108
3217.49524,0.31044
3216.46498,0.31019
3215.43473,0.30945
3214.40447,0.30852
3213.37421,0.30797
3212.34395,0.30779
3211.31370,0.30774
3210.28344,0.30737
3209.25318,0.30665
3208.22292,0.30563
3207.19266,0.30427
3206.16241,0.30336
3205.13215,0.30308
3204.10189,0.30263
3203.07163,0.30181
3202.04137,0.30113
3201.01112,0.30121
3199.98086,0.30129
3198.95060,0.30031
3197.92034,0.29883
3196.89009,0.29743
3195.85983,0.29598
3194.82957,0.29475
3193.79931,0.29414
3192.76905,0.29368
3191.73880,0.29294
3190.70854,0.29221
3189.67828,0.29157
3188.64802,0.29088
3187.61777,0.28999
3186.58751,0.28871
3185.55725,0.28745
3184.52699,0.28667
3183.49673,0.28601
3182.46648,0.28513
3181.43622,0.28419
3180.40596,0.28335
3179.37570,0.28258
3178.34544,0.28188
3177.31519,0.28128
3176.28493,0.28067
3175.25467,0.27968
3174.22441,0.27856
3173.19416,0.27781
3172.16390,0.27671
3171.13364,0.27526
3170.10338,0.27434
3169.07312,0.27379
3168.04287,0.27300
3167.01261,0.27178
3165.98235,0.27070
3164.95209,0.26992
3163.92183,0.26899
3162.89158,0.26789
3161.86132,0.26667
3160.83106,0.26523
3159.80080,0.26416
3158.77055,0.26373
3157.74029,0.26299
3156.71003,0.26166
3155.67977,0.26032
3154.64951,0.25890
3153.61926,0.25753
3152.58900,0.25660
3151.55874,0.25576
3150.52848,0.25499
3149.49822,0.25465
3148.46797,0.25392
3147.43771,0.25251
3146.40745,0.25136
3145.37719,0.25016
3144.34694,0.24874
3143.31668,0.24779
3142.28642,0.24691
3141.25616,0.24543
3140.22590,0.24401
3139.19565,0.24340
3138.16539,0.24314
3137.13513,0.24243
3136.10487,0.24088
3135.07462,0.23906
3134.04436,0.23765
3133.01410,0.23682
3131.98384,0.23633
3130.95358,0.23522
3129.92333,0.23362
3128.89307,0.23247
3127.86281,0.23170
3126.83255,0.23084
3125.80229,0.22980
3124.77204,0.22889
3123.74178,0.22803
3122.71152,0.22704
3121.68126,0.22597
3120.65101,0.22474
3119.62075,0.22354
3118.59049,0.22265
3117.56023,0.22200
3116.52997,0.22113
3115.49972,0.21951
3114.46946,0.21772
3113.43920,0.21649
3112.40894,0.21562
3111.37868,0.21481
3110.34843,0.21390
3109.31817,0.21298
3108.28791,0.21211
3107.25765,0.21115
3106.22740,0.21042
3105.19714,0.20972
3104.16688,0.20833
3103.13662,0.20697
3102.10636,0.20619
3101.07611,0.20535
3100.04585,0.20415
3099.01559,0.20283
3097.98533,0.20165
3096.95507,0.20050
3095.92482,0.19931
3094.89456,0.19843
3093.86430,0.19795
3092.83404,0.19737
3091.80379,0.19617
3090.77353,0.19460
3089.74327,0.19343
3088.71301,0.19252
3087.68275,0.19144
3086.65250,0.19034
3085.62224,0.18949
3084.59198,0.18881
3083.56172,0.18805
3082.53147,0.18747
3081.50121,0.18680
3080.47095,0.18535
3079.44069,0.18384
3078.41043,0.18313
3077.38018,0.18277
3076.34992,0.18225
3075.31966,0.18150
3074.28940,0.18042
3073.25914,0.17896
3072.22889,0.17781
3071.19863,0.17740
3070.16837,0.17696
3069.13811,0.17613
3068.10786,0.17519
3067.07760,0.17373
3066.04734,0.17214
3065.01708,0.17142
3063.98682,0.17119
3062.95657,0.17052
3061.92631,0.16931
3060.89605,0.16818
3059.86579,0.16749
3058.83553,0.16663
3057.80528,0.16547
3056.77502,0.16458
3055.74476,0.16397
3054.71450,0.16360
3053.68425,0.16337
3052.65399,0.16239
3051.62373,0.16092
3050.59347,0.16017
3049.56321,0.15995
3048.53296,0.15945
3047.50270,0.15875
3046.47244,0.15812
3045.44218,0.15734
3044.41192,0.15625
3043.38167,0.15511
3042.35141,0.15423
3041.32115,0.15365
3040.29089,0.15326
3039.26064,0.15253
3038.23038,0.15135
3037.20012,0.15067
3036.16986,0.15056
3035.13960,0.15000
3034.10935,0.14909
3033.07909,0.14842
3032.04883,0.14793
3031.01857,0.14748
3029.98832,0.14669
3028.95806,0.14550
3027.92780,0.14459
3026.89754,0.14413
3025.86728,0.14338
3024.83703,0.14218
3023.80677,0.14110
3022.77651,0.14027
3021.74625,0.13945
3020.71599,0.13824
3019.68574,0.13706
3018.65548,0.13644
3017.62522,0.13592
3016.59496,0.13502
3015.56471,0.13395
3014.53445,0.13302
3013.50419,0.13235
3012.47393,0.13184
3011.44367,0.13129
3010.41342,0.13048
3009.38316,0.12958
3008.35290,0.12907
3007.32264,0.12883
3006.29238,0.12834
3005.26213,0.12735
3004.23187,0.12609
3003.20161,0.12511
3002.17135,0.12452
3001.14110,0.12396
3000.11084,0.12336
2999.08058,0.12274
2998.05032,0.12184
2997.02006,0.12112
2995.98981,0.12059
2994.95955,0.11974
2993.92929,0.11876
2992.89903,0.11785
2991.86877,0.11703
2990.83852,0.11627
2989.80826,0.11572
2988.77800,0.11540
2987.74774,0.11471
2986.71749,0.11373
2985.68723,0.11314
2984.65697,0.11268
2983.62671,0.11211
2982.59645,0.11172
2981.56620,0.11120
2980.53594,0.11017
2979.50568,0.10938
2978.47542,0.10947
2977.44517,0.10953
2976.41491,0.10900
2975.38465,0.10837
2974.35439,0.10785
2973.32413,0.10742
2972.29388,0.10702
2971.26362,0.10657
2970.23336,0.10603
2969.20310,0.10546
2968.17284,0.10511
2967.14259,0.10509
2966.11233,0.10475
2965.08207,0.10399
2964.05181,0.10354
2963.02156,0.10333
2961.99130,0.10288
2960.96104,0.10218
2959.93078,0.10142
2958.90052,0.10054
2957.87027,0.09955
2956.84001,0.09870
2955.80975,0.09795
2954.77949,0.09707
2953.74923,0.09630
2952.71898,0.09567
2951.68872,0.09497
2950.65846,0.09435
2949.62820,0.09370
2948.59795,0.09292
2947.56769,0.09230
2946.53743,0.09180
2945.50717,0.09132
2944.47691,0.09079
2943.44666,0.08992
2942.41640,0.08895
2941.38614,0.08826
2940.35588,0.08760
2939.32562,0.08681
2938.29537,0.08607
2937.26511,0.08554
2936.23485,0.08533
2935.20459,0.08501
2934.17434,0.08440
2933.14408,0.08386
2932.11382,0.08334
2931.08356,0.08293
2930.05330,0.08261
2929.02305,0.08180
2927.99279,0.08060
2926.96253,0.07986
2925.93227,0.07979
2924.90202,0.07976
2923.87176,0.07919
2922.84150,0.07823
2921.81124,0.07739
2920.78098,0.07693
2919.75073,0.07663
2918.72047,0.07616
2917.69021,0.07561
2916.65995,0.07515
2915.62969,0.07466
2914.59944,0.07422
2913.56918,0.07387
2912.53892,0.07326
2911.50866,0.07245
2910.47841,0.07189
2909.44815,0.07164
2908.41789,0.07150
2907.38763,0.07130
2906.35737,0.07095
2905.32712,0.07054
2904.29686,0.06989
2903.26660,0.06898
2902.23634,0.06831
2901.20608,0.06811
2900.17583,0.06792
2899.14557,0.06765
2898.11531,0.06761
2897.08505,0.06738
2896.05480,0.06670
2895.02454,0.06600
2893.99428,0.06538
2892.96402,0.06465
2891.93376,0.06412
2890.90351,0.06389
2889.87325,0.06368
2888.84299,0.06323
2887.81273,0.06249
2886.78247,0.06185
2885.75222,0.06140
2884.72196,0.06089
2883.69170,0.06044
2882.66144,0.06033
2881.63119,0.06037
2880.60093,0.06015
2879.57067,0.05960
2878.54041,0.05905
2877.51015,0.05848
2876.47990,0.05783
2875.44964,0.05748
2874.41938,0.05738
2873.38912,0.05712
2872.35887,0.05663
2871.32861,0.05616
2870.29835,0.05586
2869.26809,0.05565
2868.23783,0.05542
2867.20758,0.05508
2866.17732,0.05468
2865.14706,0.05429
2864.11680,0.05404
2863.08654,0.05403
2862.05629,0.05391
2861.02603,0.05338
2859.99577,0.05269
2858.96551,0.05199
2857.93526,0.05134
2856.90500,0.05089
2855.87474,0.05066
2854.84448,0.05055
2853.81422,0.05046
2852.78397,0.05011
2851.75371,0.04951
2850.72345,0.04903
2849.69319,0.04879
2848.66293,0.04853
2847.63268,0.04829
2846.60242,0.04830
2845.57216,0.04820
2844.54190,0.04783
2843.51165,0.04755
2842.48139,0.04717
2841.45113,0.04659
2840.42087,0.04609
2839.39061,0.04580
2838.36036,0.04542
2837.33010,0.04479
2836.29984,0.04449
2835.26958,0.04451
2834.23933,0.04438
2833.20907,0.04416
2832.17881,0.04383
2831.14855,0.04333
2830.11829,0.04300
2829.08804,0.04294
2828.05778,0.04274
2827.02752,0.04217
2825.99726,0.04154
2824.96700,0.04107
2823.93675,0.04058
2822.90649,0.04014
2821.87623,0.04008
2820.84597,0.04041
2819.81572,0.04071
2818.78546,0.04044
2817.75520,0.03983
2816.72494,0.03946
2815.69468,0.03937
2814.66443,0.03921
2813.63417,0.03888
2812.60391,0.03851
2811.57365,0.03809
2810.54339,0.03779
2809.51314,0.03760
2808.48288,0.03730
2807.45262,0.03703
2806.42236,0.03678
2805.39211,0.03637
2804.36185,0.03595
2803.33159,0.03572
2802.30133,0.03562
2801.27107,0.03563
2800.24082,0.03582
2799.21056,0.03592
2798.18030,0.03562
2797.15004,0.03527
2796.11978,0.03514
2795.08953,0.03497
2794.05927,0.03463
2793.02901,0.03412
2791.99875,0.03365
2790.96850,0.03347
2789.93824,0.03339
2788.90798,0.03308
2787.87772,0.03269
2786.84746,0.03248
2785.81721,0.03245
2784.78695,0.03232
2783.75669,0.03208
2782.72643,0.03201
2781.69618,0.03209
2780.66592,0.03201
2779.63566,0.03161
2778.60540,0.03104
2777.57514,0.03067
2776.54489,0.03051
2775.51463,0.03036
2774.48437,0.03040
2773.45411,0.03051
2772.42385,0.03031
2771.39360,0.02980
2770.36334,0.02927
2769.33308,0.02897
2768.30282,0.02880
2767.27257,0.02858
2766.24231,0.02847
2765.21205,0.02852
2764.18179,0.02851
2763.15153,0.02831
2762.12128,0.02792
2761.09102,0.02756
2760.06076,0.02761
2759.03050,0.02776
2758.00024,0.02748
2756.96999,0.02703
2755.93973,0.02695
2754.90947,0.02712
2753.87921,0.02714
2752.84896,0.02689
2751.81870,0.02643
2750.78844,0.02600
2749.75818,0.02586
2748.72792,0.02589
2747.69767,0.02577
2746.66741,0.02546
2745.63715,0.02514
2744.60689,0.02498
2743.57663,0.02512
2742.54638,0.02541
2741.51612,0.02547
2740.48586,0.02527
2739.45560,0.02504
2738.42535,0.02488
2737.39509,0.02465
2736.36483,0.02440
2735.33457,0.02433
2734.30431,0.02432
2733.27406,0.02425
2732.24380,0.02397
2731.21354,0.02349
2730.18328,0.02320
2729.15303,0.02324
2728.12277,0.02332
2727.09251,0.02321
2726.06225,0.02303
2725.03199,0.02290
2724.00174,0.02269
2722.97148,0.02232
2721.94122,0.02203
2720.91096,0.02193
2719.88070,0.02186
2718.85045,0.02187
2717.82019,0.02183
2716.78993,0.02161
2715.75967,0.02151
2714.72942,0.02145
2713.69916,0.02118
2712.66890,0.02103
2711.63864,0.02113
2710.60838,0.02125
2709.57813,0.02137
2708.54787,0.02135
2707.51761,0.02116
2706.48735,0.02098
2705.45709,0.02091
2704.42684,0.02064
2703.39658,0.02024
2702.36632,0.02014
2701.33606,0.02026
2700.30581,0.02030
2699.27555,0.02030
2698.24529,0.02036
2697.21503,0.02015
2696.18477,0.01956
2695.15452,0.01915
2694.12426,0.01917
2693.09400,0.01933
2692.06374,0.01911
2691.03348,0.01855
2690.00323,0.01823
2688.97297,0.01844
2687.94271,0.01870
2686.91245,0.01858
2685.88220,0.01842
2684.85194,0.01846
2683.82168,0.01832
2682.79142,0.01799
2681.76116,0.01775
2680.73091,0.01775
2679.70065,0.01795
2678.67039,0.01805
2677.64013,0.01786
2676.60988,0.01764
2675.57962,0.01771
2674.54936,0.01785
2673.51910,0.01776
2672.48884,0.01741
2671.45859,0.01697
2670.42833,0.01675
2669.39807,0.01691
2668.36781,0.01722
2667.33755,0.01738
2666.30730,0.01741
2665.27704,0.01734
2664.24678,0.01708
2663.21652,0.01667
2662.18627,0.01633
2661.15601,0.01613
2660.12575,0.01610
2659.09549,0.01608
2658.06523,0.01602
2657.03498,0.01596
2656.00472,0.01582
2654.97446,0.01559
2653.94420,0.01522
2652.91394,0.01492
2651.88369,0.01500
2650.85343,0.01531
2649.82317,0.01556
2648.79291,0.01566
2647.76266,0.01545
2646.73240,0.01499
2645.70214,0.01459
2644.67188,0.01465
2643.64162,0.01517
2642.61137,0.01546
2641.58111,0.01521
2640.55085,0.01484
2639.52059,0.01461
2638.49033,0.01438
2637.46008,0.01427
2636.42982,0.01449
2635.39956,0.01473
2634.36930,0.01471
2633.33905,0.01459
2632.30879,0.01432
2631.27853,0.01396
2630.24827,0.01387
2629.21801,0.01391
2628.18776,0.01393
2627.15750,0.01396
2626.12724,0.01384
2625.09698,0.01373
2624.06673,0.01375
2623.03647,0.01373
2622.00621,0.01371
2620.97595,0.01376
2619.94569,0.01372
2618.91544,0.01357
2617.88518,0.01329
2616.85492,0.01309
2615.82466,0.01353
2614.79440,0.01417
2613.76415,0.01411
2612.73389,0.01355
2611.70363,0.01314
2610.67337,0.01322
2609.64312,0.01367
2608.61286,0.01379
2607.58260,0.01358
2606.55234,0.01351
2605.52208,0.01343
2604.49183,0.01324
2603.46157,0.01298
2602.43131,0.01267
2601.40105,0.01262
2600.37079,0.01282
2599.34054,0.01290
2598.31028,0.01285
2597.28002,0.01281
2596.24976,0.01300
2595.21951,0.01314
2594.18925,0.01292
2593.15899,0.01262
2592.12873,0.01236
2591.09847,0.01214
2590.06822,0.01220
2589.03796,0.01254
2588.00770,0.01278
2586.97744,0.01286
2585.94718,0.01281
2584.91693,0.01270
2583.88667,0.01270
2582.85641,0.01285
2581.82615,0.01335
2580.79590,0.01372
2579.76564,0.01345
2578.73538,0.01306
2577.70512,0.01291
2576.67486,0.01282
2575.64461,0.01262
2574.61435,0.01243
2573.58409,0.01246
2572.55383,0.01238
2571.52358,0.01209
2570.49332,0.01213
2569.46306,0.01256
2568.43280,0.01315
2567.40254,0.01361
2566.37229,0.01333
2565.34203,0.01234
2564.31177,0.01166
2563.28151,0.01175
2562.25125,0.01211
2561.22100,0.01240
2560.19074,0.01246
2559.16048,0.01229
2558.13022,0.01223
2557.09997,0.01254
2556.06971,0.01306
2555.03945,0.01306
2554.00919,0.01237
2552.97893,0.01176
2551.94868,0.01156
2550.91842,0.01159
2549.88816,0.01178
2548.85790,0.01199
2547.82764,0.01205
2546.79739,0.01187
2545.76713,0.01164
2544.73687,0.01140
2543.70661,0.01103
2542.67636,0.01095
2541.64610,0.01145
2540.61584,0.01213
2539.58558,0.01257
2538.55532,0.01263
2537.52507,0.01221
2536.49481,0.01178
2535.46455,0.01181
2534.43429,0.01211
2533.40403,0.01225
2532.37378,0.01204
2531.34352,0.01180
2530.31326,0.01211
2529.28300,0.01266
2528.25275,0.01241
2527.22249,0.01162
2526.19223,0.01154
2525.16197,0.01212
2524.13171,0.01231
2523.10146,0.01202
2522.07120,0.01172
2521.04094,0.01172
2520.01068,0.01213
2518.98043,0.01244
2517.95017,0.01229
2516.91991,0.01211
2515.88965,0.01227
2514.85939,0.01266
2513.82914,0.01304
2512.79888,0.01310
2511.76862,0.01297
2510.73836,0.01285
2509.70810,0.01261
2508.67785,0.01245
2507.64759,0.01241
2506.61733,0.01218
2505.58707,0.01210
2504.55682,0.01254
2503.52656,0.01288
2502.49630,0.01286
2501.46604,0.01270
2500.43578,0.01242
2499.40553,0.01205
2498.37527,0.01196
2497.34501,0.01196
2496.31475,0.01173
2495.28449,0.01179
2494.25424,0.01213
2493.22398,0.01252
2492.19372,0.01284
2491.16346,0.01291
2490.13321,0.01286
2489.10295,0.01246
2488.07269,0.01184
2487.04243,0.01178
2486.01217,0.01220
2484.98192,0.01235
2483.95166,0.01241
2482.92140,0.01287
2481.89114,0.01312
2480.86088,0.01275
2479.83063,0.01232
2478.80037,0.01181
2477.77011,0.01119
2476.73985,0.01130
2475.70960,0.01211
2474.67934,0.01254
2473.64908,0.01238
2472.61882,0.01223
2471.58856,0.01216
2470.55831,0.01170
2469.52805,0.01121
2468.49779,0.01128
2467.46753,0.01154
2466.43728,0.01196
2465.40702,0.01281
2464.37676,0.01341
2463.34650,0.01345
2462.31624,0.01355
2461.28599,0.01381
2460.25573,0.01342
2459.22547,0.01263
2458.19521,0.01238
2457.16495,0.01226
2456.13470,0.01168
2455.10444,0.01151
2454.07418,0.01203
2453.04392,0.01226
2452.01367,0.01222
2450.98341,0.01253
2449.95315,0.01302
2448.92289,0.01320
2447.89263,0.01293
2446.86238,0.01252
2445.83212,0.01250
2444.80186,0.01285
2443.77160,0.01304
2442.74134,0.01316
2441.71109,0.01328
2440.68083,0.01319
2439.65057,0.01310
2438.62031,0.01306
2437.59006,0.01307
2436.55980,0.01337
2435.52954,0.01364
2434.49928,0.01336
2433.46902,0.01299
2432.43877,0.01321
2431.40851,0.01404
2430.37825,0.01471
2429.34799,0.01441
2428.31774,0.01360
2427.28748,0.01339
2426.25722,0.01356
2425.22696,0.01329
2424.19670,0.01307
2423.16645,0.01367
2422.13619,0.01424
2421.10593,0.01387
2420.07567,0.01350
2419.04541,0.01370
2418.01516,0.01390
2416.98490,0.01413
2415.95464,0.01452
2414.92438,0.01447
2413.89413,0.01403
2412.86387,0.01387
2411.83361,0.01398
2410.80335,0.01418
2409.77309,0.01432
2408.74284,0.01424
2407.71258,0.01423
2406.68232,0.01413
2405.65206,0.01395
2404.62180,0.01419
2403.59155,0.01455
2402.56129,0.01486
2401.53103,0.01532
2400.50077,0.01553
2399.47052,0.01530
2398.44026,0.01507
2397.41000,0.01522
2396.37974,0.01539
2395.34948,0.01509
2394.31923,0.01466
2393.28897,0.01468
2392.25871,0.01495
2391.22845,0.01526
2390.19819,0.01575
2389.16794,0.01590
2388.13768,0.01552
2387.10742,0.01530
2386.07716,0.01531
2385.04691,0.01525
2384.01665,0.01528
2382.98639,0.01541
2381.95613,0.01559
2380.92587,0.01563
2379.89562,0.01531
2378.86536,0.01514
2377.83510,0.01538
2376.80484,0.01540
2375.77459,0.01509
2374.74433,0.01478
2373.71407,0.01458
2372.68381,0.01495
2371.65355,0.01607
2370.62330,0.01710
2369.59304,0.01719
2368.56278,0.01649
2367.53252,0.01584
2366.50226,0.01608
2365.47201,0.01713
2364.44175,0.01755
2363.41149,0.01661
2362.38123,0.01582
2361.35098,0.01594
2360.32072,0.01635
2359.29046,0.01722
2358.26020,0.01822
2357.22994,0.01810
2356.19969,0.01702
2355.16943,0.01682
2354.13917,0.01743
2353.10891,0.01680
2352.07865,0.01553
2351.04840,0.01533
2350.01814,0.01611
2348.98788,0.01687
2347.95762,0.01720
2346.92737,0.01738
2345.89711,0.01734
2344.86685,0.01686
2343.83659,0.01636
2342.80633,0.01617
2341.77608,0.01662
2340.74582,0.01716
2339.71556,0.01714
2338.68530,0.01735
2337.65504,0.01784
2336.62479,0.01770
2335.59453,0.01748
2334.56427,0.01774
2333.53401,0.01733
2332.50376,0.01665
2331.47350,0.01744
2330.44324,0.01850
2329.41298,0.01811
2328.38272,0.01770
2327.35247,0.01815
2326.32221,0.01878
2325.29195,0.01940
2324.26169,0.01922
2323.23144,0.01829
2322.20118,0.01823
2321.17092,0.01888
2320.14066,0.01906
2319.11040,0.01878
2318.08015,0.01866
2317.04989,0.01898
2316.01963,0.01917
2314.98937,0.01877
2313.95911,0.01811
2312.92886,0.01795
2311.89860,0.01838
2310.86834,0.01851
2309.83808,0.01824
2308.80783,0.01834
2307.77757,0.01878
2306.74731,0.01893
2305.71705,0.01882
2304.68679,0.01896
2303.65654,0.01917
2302.62628,0.01917
2301.59602,0.01913
2300.56576,0.01917
2299.53550,0.01916
2298.50525,0.01870
2297.47499,0.01840
2296.44473,0.01925
2295.41447,0.02031
2294.38422,0.02064
2293.35396,0.02065
2292.32370,0.02074
2291.29344,0.02106
2290.26318,0.02163
2289.23293,0.02181
2288.20267,0.02090
2287.17241,0.01940
2286.14215,0.01866
2285.11189,0.01906
2284.08164,0.01982
2283.05138,0.02029
2282.02112,0.02034
2280.99086,0.02045
2279.96061,0.02096
2278.93035,0.02120
2277.90009,0.02109
2276.86983,0.02119
2275.83957,0.02088
2274.80932,0.02015
2273.77906,0.02009
2272.74880,0.02053
2271.71854,0.02077
2270.68829,0.02114
2269.65803,0.02127
2268.62777,0.02054
2267.59751,0.02004
2266.56725,0.02059
2265.53700,0.02131
2264.50674,0.02143
2263.47648,0.02130
2262.44622,0.02129
2261.41596,0.02147
2260.38571,0.02173
2259.35545,0.02170
2258.32519,0.02152
2257.29493,0.02154
2256.26468,0.02130
2255.23442,0.02072
2254.20416,0.02086
2253.17390,0.02160
2252.14364,0.02160
2251.11339,0.02122
2250.08313,0.02151
2249.05287,0.02194
2248.02261,0.02202
2246.99235,0.02229
2245.96210,0.02246
2244.93184,0.02194
2243.90158,0.02157
2242.87132,0.02191
2241.84107,0.02232
2240.81081,0.02263
2239.78055,0.02309
2238.75029,0.02339
2237.72003,0.02314
2236.68978,0.02244
2235.65952,0.02242
2234.62926,0.02374
2233.59900,0.02479
2232.56874,0.02433
2231.53849,0.02304
2230.50823,0.02227
2229.47797,0.02221
2228.44771,0.02271
2227.41746,0.02359
2226.38720,0.02396
2225.35694,0.02329
2224.32668,0.02257
2223.29642,0.02299
2222.26617,0.02392
2221.23591,0.02470
2220.20565,0.02508
2219.17539,0.02490
2218.14514,0.02448
2217.11488,0.02409
2216.08462,0.02326
2215.05436,0.02163
2214.02410,0.02028
2212.99385,0.01975
2211.96359,0.02055
2210.93333,0.02281
2209.90307,0.02424
2208.87281,0.02364
2207.84256,0.02309
2206.81230,0.02353
2205.78204,0.02363
2204.75178,0.02350
2203.72153,0.02465
2202.69127,0.02663
2201.66101,0.02736
2200.63075,0.02650
2199.60049,0.02512
2198.57024,0.02375
2197.53998,0.02246
2196.50972,0.02225
2195.47946,0.02330
2194.44920,0.02326
2193.41895,0.02225
2192.38869,0.02304
2191.35843,0.02495
2190.32817,0.02571
2189.29792,0.02521
2188.26766,0.02486
2187.23740,0.02554
2186.20714,0.02603
2185.17688,0.02584
2184.14663,0.02584
2183.11637,0.02651
2182.08611,0.02743
2181.05585,0.02591
2180.02559,0.02291
2178.99534,0.02309
2177.96508,0.02447
2176.93482,0.02397
2175.90456,0.02416
2174.87431,0.02505
2173.84405,0.02489
2172.81379,0.02454
2171.78353,0.02495
2170.75327,0.02621
2169.72302,0.02722
2168.69276,0.02720
2167.66250,0.02679
2166.63224,0.02668
2165.60199,0.02752
2164.57173,0.02851
2163.54147,0.02802
2162.51121,0.02701
2161.48095,0.02737
2160.45070,0.02926
2159.42044,0.02924
2158.39018,0.02460
2157.35992,0.02029
2156.32966,0.02044
2155.29941,0.02244
2154.26915,0.02348
2153.23889,0.02426
2152.20863,0.02616
2151.17838,0.02778
2150.14812,0.02803
2149.11786,0.02833
2148.08760,0.02816
2147.05734,0.02738
2146.02709,0.02712
2144.99683,0.02600
2143.96657,0.02475
2142.93631,0.02538
2141.90605,0.02648
2140.87580,0.02666
2139.84554,0.02670
2138.81528,0.02654
2137.78502,0.02565
2136.75477,0.02482
2135.72451,0.02468
2134.69425,0.02484
2133.66399,0.02455
2132.63373,0.02416
2131.60348,0.02482
2130.57322,0.02530
2129.54296,0.02429
2128.51270,0.02370
2127.48244,0.02387
2126.45219,0.02318
2125.42193,0.02292
2124.39167,0.02404
2123.36141,0.02524
2122.33116,0.02597
2121.30090,0.02611
2120.27064,0.02626
2119.24038,0.02629
2118.21012,0.02495
2117.17987,0.02413
2116.14961,0.02494
2115.11935,0.02521
2114.08909,0.02478
2113.05884,0.02468
2112.02858,0.02500
2110.99832,0.02509
2109.96806,0.02428
2108.93780,0.02369
2107.90755,0.02348
2106.87729,0.02275
2105.84703,0.02242
2104.81677,0.02316
2103.78651,0.02394
2102.75626,0.02365
2101.72600,0.02291
2100.69574,0.02330
2099.66548,0.02457
2098.63523,0.02514
2097.60497,0.02473
2096.57471,0.02432
2095.54445,0.02450
2094.51419,0.02502
2093.48394,0.02494
2092.45368,0.02349
2091.42342,0.02225
2090.39316,0.02289
2089.36290,0.02385
2088.33265,0.02355
2087.30239,0.02279
2086.27213,0.02258
2085.24187,0.02309
2084.21162,0.02361
2083.18136,0.02320
2082.15110,0.02263
2081.12084,0.02264
2080.09058,0.02219
2079.06033,0.02158
2078.03007,0.02216
2076.99981,0.02298
2075.96955,0.02260
2074.93930,0.02196
2073.90904,0.02174
2072.87878,0.02154
2071.84852,0.02161
2070.81826,0.02200
2069.78801,0.02190
2068.75775,0.02089
2067.72749,0.02058
2066.69723,0.02123
2065.66697,0.02109
2064.63672,0.02062
2063.60646,0.02087
2062.57620,0.02165
2061.54594,0.02192
2060.51569,0.02096
2059.48543,0.02018
2058.45517,0.02061
2057.42491,0.02064
2056.39465,0.01990
2055.36440,0.01960
2054.33414,0.01993
2053.30388,0.02060
2052.27362,0.02102
2051.24336,0.02116
2050.21311,0.02117
2049.18285,0.02066
2048.15259,0.02013
2047.12233,0.02006
2046.09208,0.02025
2045.06182,0.02023
2044.03156,0.01971
2043.00130,0.01993
2041.97104,0.02125
2040.94079,0.02175
2039.91053,0.02154
2038.88027,0.02191
2037.85001,0.02264
2036.81975,0.02309
2035.78950,0.02290
2034.75924,0.02275
2033.72898,0.02280
2032.69872,0.02292
2031.66847,0.02286
2030.63821,0.02099
2029.60795,0.01803
2028.57769,0.01604
2027.54743,0.01518
2026.51718,0.01566
2025.48692,0.01725
2024.45666,0.01786
2023.42640,0.01716
2022.39615,0.01687
2021.36589,0.01745
2020.33563,0.01953
2019.30537,0.02060
2018.27511,0.01790
2017.24486,0.01574
2016.21460,0.01602
2015.18434,0.01546
2014.15408,0.01484
2013.12382,0.01597
2012.09357,0.01670
2011.06331,0.01607
2010.03305,0.01683
2009.00279,0.01912
2007.97254,0.01943
2006.94228,0.01831
2005.91202,0.01849
2004.88176,0.01887
2003.85150,0.01842
2002.82125,0.01746
2001.79099,0.01590
2000.76073,0.01414
1999.73047,0.01372
1998.70021,0.01493
1997.66996,0.01611
1996.63970,0.01649
1995.60944,0.01629
1994.57918,0.01622
1993.54893,0.01714
1992.51867,0.01816
1991.48841,0.01737
1990.45815,0.01563
1989.42789,0.01546
1988.39764,0.01599
1987.36738,0.01553
1986.33712,0.01550
1985.30686,0.01657
1984.27660,0.01693
1983.24635,0.01624
1982.21609,0.01637
1981.18583,0.01677
1980.15557,0.01595
1979.12532,0.01444
1978.09506,0.01292
1977.06480,0.01284
1976.03454,0.01408
1975.00428,0.01462
1973.97403,0.01516
1972.94377,0.01590
1971.91351,0.01500
1970.88325,0.01354
1969.85300,0.01398
1968.82274,0.01627
1967.79248,0.01807
1966.76222,0.01797
1965.73196,0.01719
1964.70171,0.01660
1963.67145,0.01596
1962.64119,0.01539
1961.61093,0.01505
1960.58067,0.01505
1959.55042,0.01556
1958.52016,0.01602
1957.48990,0.01651
1956.45964,0.01769
1955.42939,0.01737
1954.39913,0.01429
1953.36887,0.01236
1952.33861,0.01327
1951.30835,0.01418
1950.27810,0.01374
1949.24784,0.01289
1948.21758,0.01313
1947.18732,0.01378
1946.15706,0.01361
1945.12681,0.01350
1944.09655,0.01361
1943.06629,0.01402
1942.03603,0.01487
1941.00578,0.01488
1939.97552,0.01458
1938.94526,0.01450
1937.91500,0.01403
1936.88474,0.01419
1935.85449,0.01501
1934.82423,0.01533
1933.79397,0.01524
1932.76371,0.01506
1931.73345,0.01470
1930.70320,0.01429
1929.67294,0.01438
1928.64268,0.01502
1927.61242,0.01553
1926.58217,0.01522
1925.55191,0.01453
1924.52165,0.01414
1923.49139,0.01382
1922.46113,0.01323
1921.43088,0.01286
1920.40062,0.01329
1919.37036,0.01382
1918.34010,0.01381
1917.30985,0.01374
1916.27959,0.01418
1915.24933,0.01490
1914.21907,0.01542
1913.18881,0.01547
1912.15856,0.01484
1911.12830,0.01407
1910.09804,0.01430
1909.06778,0.01499
1908.03752,0.01510
1907.00727,0.01503
1905.97701,0.01500
1904.94675,0.01490
1903.91649,0.01481
1902.88624,0.01472
1901.85598,0.01503
1900.82572,0.01600
1899.79546,0.01682
1898.76520,0.01638
1897.73495,0.01532
1896.70469,0.01512
1895.67443,0.01558
1894.64417,0.01596
1893.61391,0.01608
1892.58366,0.01585
1891.55340,0.01547
1890.52314,0.01482
1889.49288,0.01399
1888.46263,0.01407
1887.43237,0.01498
1886.40211,0.01586
1885.37185,0.01629
1884.34159,0.01610
1883.31134,0.01576
1882.28108,0.01588
1881.25082,0.01609
1880.22056,0.01589
1879.19030,0.01560
1878.16005,0.01532
1877.12979,0.01524
1876.09953,0.01577
1875.06927,0.01628
1874.03902,0.01619
1873.00876,0.01629
1871.97850,0.01637
1870.94824,0.01556
1869.91798,0.01477
1868.88773,0.01487
1867.85747,0.01519
1866.82721,0.01540
1865.79695,0.01530
1864.76670,0.01496
1863.73644,0.01526
1862.70618,0.01597
1861.67592,0.01625
1860.64566,0.01598
1859.61541,0.01541
1858.58515,0.01501
1857.55489,0.01488
1856.52463,0.01467
1855.49437,0.01455
1854.46412,0.01482
1853.43386,0.01523
1852.40360,0.01541
1851.37334,0.01536
1850.34309,0.01559
1849.31283,0.01613
1848.28257,0.01635
1847.25231,0.01617
1846.22205,0.01601
1845.19180,0.01585
1844.16154,0.01598
1843.13128,0.01643
1842.10102,0.01627
1841.07076,0.01569
1840.04051,0.01559
1839.01025,0.01606
1837.97999,0.01635
1836.94973,0.01633
1835.91948,0.01634
1834.88922,0.01633
1833.85896,0.01614
1832.82870,0.01588
1831.79844,0.01586
1830.76819,0.01603
1829.73793,0.01602
1828.70767,0.01593
1827.67741,0.01610
1826.64715,0.01625
1825.61690,0.01611
1824.58664,0.01618
1823.55638,0.01687
1822.52612,0.01760
1821.49587,0.01783
1820.46561,0.01747
1819.43535,0.01687
1818.40509,0.01652
1817.37483,0.01663
1816.34458,0.01698
1815.31432,0.01714
1814.28406,0.01703
1813.25380,0.01695
1812.22355,0.01700
1811.19329,0.01717
1810.16303,0.01759
1809.13277,0.01799
1808.10251,0.01790
1807.07226,0.01771
1806.04200,0.01765
1805.01174,0.01769
1803.98148,0.01794
1802.95122,0.01829
1801.92097,0.01862
1800.89071,0.01868
1799.86045,0.01826
1798.83019,0.01808
1797.79994,0.01850
1796.76968,0.01890
1795.73942,0.01891
1794.70916,0.01900
1793.67890,0.01935
1792.64865,0.01960
1791.61839,0.01951
1790.58813,0.01933
1789.55787,0.01939
1788.52761,0.01981
1787.49736,0.02029
1786.46710,0.02066
1785.43684,0.02096
1784.40658,0.02099
1783.37633,0.02104
1782.34607,0.02149
1781.31581,0.02198
1780.28555,0.02204
1779.25529,0.02173
1778.22504,0.02161
1777.19478,0.02194
1776.16452,0.02229
1775.13426,0.02254
1774.10400,0.02289
1773.07375,0.02318
1772.04349,0.02337
1771.01323,0.02357
1769.98297,0.02378
1768.95272,0.02374
1767.92246,0.02350
1766.89220,0.02373
1765.86194,0.02423
1764.83168,0.02443
1763.80143,0.02448
1762.77117,0.02464
1761.74091,0.02486
1760.71065,0.02512
1759.68040,0.02551
1758.65014,0.02604
1757.61988,0.02661
1756.58962,0.02693
1755.55936,0.02698
1754.52911,0.02714
1753.49885,0.02726
1752.46859,0.02708
1751.43833,0.02706
1750.40807,0.02769
1749.37782,0.02828
1748.34756,0.02869
1747.31730,0.02923
1746.28704,0.02972
1745.25679,0.03008
1744.22653,0.03052
1743.19627,0.03117
1742.16601,0.03187
1741.13575,0.03228
1740.10550,0.03254
1739.07524,0.03305
1738.04498,0.03375
1737.01472,0.03441
1735.98446,0.03499
1734.95421,0.03548
1733.92395,0.03591
1732.89369,0.03627
1731.86343,0.03667
1730.83318,0.03720
1729.80292,0.03795
1728.77266,0.03871
1727.74240,0.03929
1726.71214,0.04013
1725.68189,0.04120
1724.65163,0.04204
1723.62137,0.04270
1722.59111,0.04351
1721.56085,0.04452
1720.53060,0.04542
1719.50034,0.04610
1718.47008,0.04677
1717.43982,0.04761
1716.40957,0.04837
1715.37931,0.04926
1714.34905,0.05042
1713.31879,0.05150
1712.28853,0.05258
1711.25828,0.05389
1710.22802,0.05535
1709.19776,0.05655
1708.16750,0.05747
1707.13725,0.05861
1706.10699,0.05989
1705.07673,0.06105
1704.04647,0.06234
1703.01621,0.06374
1701.98596,0.06495
1700.95570,0.06627
1699.92544,0.06838
1698.89518,0.06997
1697.86492,0.07111
1696.83467,0.07244
1695.80441,0.07417
1694.77415,0.07577
1693.74389,0.07722
1692.71364,0.07880
1691.68338,0.08020
1690.65312,0.08165
1689.62286,0.08356
1688.59260,0.08563
1687.56235,0.08735
1686.53209,0.08862
1685.50183,0.08976
1684.47157,0.09128
1683.44131,0.09348
1682.41106,0.09566
1681.38080,0.09747
1680.35054,0.09906
1679.32028,0.10091
1678.29003,0.10283
1677.25977,0.10422
1676.22951,0.10509
1675.19925,0.10643
1674.16899,0.10876
1673.13874,0.11084
1672.10848,0.11236
1671.07822,0.11393
1670.04796,0.11597
1669.01771,0.11788
1667.98745,0.11922
1666.95719,0.12063
1665.92693,0.12228
1664.89667,0.12377
1663.86642,0.12518
1662.83616,0.12682
1661.80590,0.12850
1660.77564,0.12999
1659.74538,0.13157
1658.71513,0.13294
1657.68487,0.13380
1656.65461,0.13480
1655.62435,0.13639
1654.59410,0.13807
1653.56384,0.13866
1652.53358,0.13829
1651.50332,0.13957
1650.47306,0.14128
1649.44281,0.14256
1648.41255,0.14355
1647.38229,0.14442
1646.35203,0.14498
1645.32177,0.14497
1644.29152,0.14506
1643.26126,0.14546
1642.23100,0.14596
1641.20074,0.14633
1640.17049,0.14624
1639.14023,0.14568
1638.10997,0.14488
1637.07971,0.14425
1636.04945,0.14353
1635.01920,0.14217
1633.98894,0.14155
1632.95868,0.14132
1631.92842,0.14058
1630.89816,0.13954
1629.86791,0.13849
1628.83765,0.13742
1627.80739,0.13601
1626.77713,0.13417
1625.74688,0.13248
1624.71662,0.13089
1623.68636,0.12865
1622.65610,0.12629
1621.62584,0.12502
1620.59559,0.12384
1619.56533,0.12218
1618.53507,0.12046
1617.50481,0.11860
1616.47456,0.11586
1615.44430,0.11351
1614.41404,0.11197
1613.38378,0.11046
1612.35352,0.10895
1611.32327,0.10724
1610.29301,0.10520
1609.26275,0.10313
1608.23249,0.10133
1607.20223,0.09965
1606.17198,0.09814
1605.14172,0.09670
1604.11146,0.09494
1603.08120,0.09306
1602.05095,0.09158
1601.02069,0.09047
1599.99043,0.08951
1598.96017,0.08834
1597.92991,0.08683
1596.89966,0.08536
1595.86940,0.08414
1594.83914,0.08303
1593.80888,0.08189
1592.77862,0.08075
1591.74837,0.07956
1590.71811,0.07856
1589.68785,0.07788
1588.65759,0.07728
1587.62734,0.07648
1586.59708,0.07562
1585.56682,0.07480
1584.53656,0.07378
1583.50630,0.07274
1582.47605,0.07187
1581.44579,0.07109
1580.41553,0.07044
1579.38527,0.06977
1578.35501,0.06908
1577.32476,0.06853
1576.29450,0.06772
1575.26424,0.06684
1574.23398,0.06628
1573.20373,0.06578
1572.17347,0.06549
1571.14321,0.06530
1570.11295,0.06462
1569.08269,0.06349
1568.05244,0.06309
1567.02218,0.06316
1565.99192,0.06306
1564.96166,0.06272
1563.93141,0.06217
1562.90115,0.06151
1561.87089,0.06106
1560.84063,0.06081
1559.81037,0.06017
1558.78012,0.05917
1557.74986,0.05871
1556.71960,0.05881
1555.68934,0.05898
1554.65908,0.05876
1553.62883,0.05818
1552.59857,0.05791
1551.56831,0.05775
1550.53805,0.05740
1549.50780,0.05700
1548.47754,0.05672
1547.44728,0.05643
1546.41702,0.05617
1545.38676,0.05585
1544.35651,0.05527
1543.32625,0.05480
1542.29599,0.05475
1541.26573,0.05482
1540.23547,0.05443
1539.20522,0.05388
1538.17496,0.05380
1537.14470,0.05389
1536.11444,0.05395
1535.08419,0.05391
1534.05393,0.05364
1533.02367,0.05318
1531.99341,0.05292
1530.96315,0.05271
1529.93290,0.05245
1528.90264,0.05219
1527.87238,0.05215
1526.84212,0.05244
1525.81186,0.05251
1524.78161,0.05207
1523.75135,0.05173
1522.72109,0.05149
1521.69083,0.05123
1520.66058,0.05135
1519.63032,0.05144
1518.60006,0.05140
1517.56980,0.05119
1516.53954,0.05082
1515.50929,0.05082
1514.47903,0.05116
1513.44877,0.05141
1512.41851,0.05125
1511.38826,0.05084
1510.35800,0.05052
1509.32774,0.05054
1508.29748,0.05082
1507.26722,0.05079
1506.23697,0.05013
1505.20671,0.04978
1504.17645,0.04989
1503.14619,0.05016
1502.11593,0.05043
1501.08568,0.05058
1500.05542,0.05057
1499.02516,0.05046
1497.99490,0.05038
1496.96465,0.05042
1495.93439,0.05044
1494.90413,0.05056
1493.87387,0.05095
1492.84361,0.05152
1491.81336,0.05218
1490.78310,0.05304
1489.75284,0.05446
1488.72258,0.05640
1487.69232,0.05905
1486.66207,0.06296
1485.63181,0.06832
1484.60155,0.07534
1483.57129,0.08386
1482.54104,0.09206
1481.51078,0.09660
1480.48052,0.09509
1479.45026,0.08907
1478.42000,0.08202
1477.38975,0.07630
1476.35949,0.07223
1475.32923,0.07021
1474.29897,0.07013
1473.26871,0.07129
1472.23846,0.07352
1471.20820,0.07642
1470.17794,0.07959
1469.14768,0.08298
1468.11743,0.08618
1467.08717,0.08862
1466.05691,0.09013
1465.02665,0.09046
1463.99639,0.08936
1462.96614,0.08751
1461.93588,0.08532
1460.90562,0.08309
1459.87536,0.08099
1458.84511,0.07890
1457.81485,0.07672
1456.78459,0.07403
1455.75433,0.07225
1454.72407,0.07167
1453.69382,0.07109
1452.66356,0.07040
1451.63330,0.06971
1450.60304,0.06889
1449.57278,0.06808
1448.54253,0.06720
1447.51227,0.06599
1446.48201,0.06501
1445.45175,0.06439
1444.42150,0.06361
1443.39124,0.06269
1442.36098,0.06182
1441.33072,0.06093
1440.30046,0.06000
1439.27021,0.05936
1438.23995,0.05897
1437.20969,0.05812
1436.17943,0.05666
1435.14917,0.05580
1434.11892,0.05537
1433.08866,0.05491
1432.05840,0.05432
1431.02814,0.05360
1429.99789,0.05286
1428.96763,0.05233
1427.93737,0.05213
1426.90711,0.05202
1425.87685,0.05181
1424.84660,0.05148
1423.81634,0.05091
1422.78608,0.05041
1421.75582,0.05029
1420.72556,0.05028
1419.69531,0.04983
1418.66505,0.04914
1417.63479,0.04916
1416.60453,0.04947
1415.57428,0.04949
1414.54402,0.04933
1413.51376,0.04941
1412.48350,0.04980
1411.45324,0.05021
1410.42299,0.05050
1409.39273,0.05110
1408.36247,0.05233
1407.33221,0.05398
1406.30196,0.05587
1405.27170,0.05791
1404.24144,0.05959
1403.21118,0.06016
1402.18092,0.05959
1401.15067,0.05823
1400.12041,0.05642
1399.09015,0.05448
1398.05989,0.05298
1397.02963,0.05184
1395.99938,0.05074
1394.96912,0.04967
1393.93886,0.04894
1392.90860,0.04857
1391.87835,0.04809
1390.84809,0.04758
1389.81783,0.04724
1388.78757,0.04699
1387.75731,0.04682
1386.72706,0.04668
1385.69680,0.04666
1384.66654,0.04672
1383.63628,0.04661
1382.60602,0.04641
1381.57577,0.04628
1380.54551,0.04620
1379.51525,0.04623
1378.48499,0.04619
1377.45474,0.04599
1376.42448,0.04596
1375.39422,0.04603
1374.36396,0.04591
1373.33370,0.04587
1372.30345,0.04610
1371.27319,0.04622
1370.24293,0.04602
1369.21267,0.04583
1368.18241,0.04579
1367.15216,0.04573
1366.12190,0.04568
1365.09164,0.04569
1364.06138,0.04568
1363.03113,0.04553
1362.00087,0.04542
1360.97061,0.04545
1359.94035,0.04547
1358.91009,0.04541
1357.87984,0.04529
1356.84958,0.04531
1355.81932,0.04533
1354.78906,0.04517
1353.75881,0.04514
1352.72855,0.04525
1351.69829,0.04524
1350.66803,0.04511
1349.63777,0.04497
1348.60752,0.04494
1347.57726,0.04503
1346.54700,0.04521
1345.51674,0.04534
1344.48648,0.04525
1343.45623,0.04502
1342.42597,0.04495
1341.39571,0.04504
1340.36545,0.04509
1339.33520,0.04518
1338.30494,0.04533
1337.27468,0.04533
1336.24442,0.04517
1335.21416,0.04494
1334.18391,0.04465
1333.15365,0.04442
1332.12339,0.04438
1331.09313,0.04448
1330.06287,0.04448
1329.03262,0.04438
1328.00236,0.04438
1326.97210,0.04445
1325.94184,0.04451
1324.91159,0.04458
1323.88133,0.04465
1322.85107,0.04468
1321.82081,0.04460
1320.79055,0.04436
1319.76030,0.04408
1318.73004,0.04395
1317.69978,0.04411
1316.66952,0.04443
1315.63927,0.04459
1314.60901,0.04465
1313.57875,0.04468
1312.54849,0.04446
1311.51823,0.04404
1310.48798,0.04389
1309.45772,0.04396
1308.42746,0.04403
1307.39720,0.04414
1306.36694,0.04428
1305.33669,0.04444
1304.30643,0.04450
1303.27617,0.04447
1302.24591,0.04457
1301.21566,0.04470
1300.18540,0.04464
1299.15514,0.04445
1298.12488,0.04424
1297.09462,0.04414
1296.06437,0.04436
1295.03411,0.04468
1294.00385,0.04458
1292.97359,0.04411
1291.94333,0.04391
1290.91308,0.04422
1289.88282,0.04449
1288.85256,0.04441
1287.82230,0.04419
1286.79205,0.04412
1285.76179,0.04421
1284.73153,0.04422
1283.70127,0.04404
1282.67101,0.04397
1281.64076,0.04404
1280.61050,0.04411
1279.58024,0.04413
1278.54998,0.04408
1277.51972,0.04402
1276.48947,0.04395
1275.45921,0.04381
1274.42895,0.04384
1273.39869,0.04418
1272.36844,0.04444
1271.33818,0.04448
1270.30792,0.04446
1269.27766,0.04451
1268.24740,0.04471
1267.21715,0.04501
1266.18689,0.04515
1265.15663,0.04510
1264.12637,0.04501
1263.09612,0.04477
1262.06586,0.04442
1261.03560,0.04429
1260.00534,0.04444
1258.97508,0.04481
1257.94483,0.04527
1256.91457,0.04573
1255.88431,0.04611
1254.85405,0.04646
1253.82379,0.04693
1252.79354,0.04746
1251.76328,0.04797
1250.73302,0.04889
1249.70276,0.05031
1248.67251,0.05186
1247.64225,0.05347
1246.61199,0.05546
1245.58173,0.05804
1244.55147,0.06110
1243.52122,0.06443
1242.49096,0.06754
1241.46070,0.07007
1240.43044,0.07199
1239.40018,0.07308
1238.36993,0.07308
1237.33967,0.07198
1236.30941,0.07001
1235.27915,0.06757
1234.24890,0.06489
1233.21864,0.06221
1232.18838,0.05989
1231.15812,0.05779
1230.12786,0.05580
1229.09761,0.05404
1228.06735,0.05268
1227.03709,0.05178
1226.00683,0.05104
1224.97657,0.05025
1223.94632,0.04951
1222.91606,0.04908
1221.88580,0.04876
1220.85554,0.04823
1219.82529,0.04769
1218.79503,0.04729
1217.76477,0.04698
1216.73451,0.04679
1215.70425,0.04666
1214.67400,0.04646
1213.64374,0.04627
1212.61348,0.04616
1211.58322,0.04607
1210.55297,0.04594
1209.52271,0.04576
1208.49245,0.04561
1207.46219,0.04552
1206.43193,0.04547
1205.40168,0.04549
1204.37142,0.04557
1203.34116,0.04535
1202.31090,0.04496
1201.28064,0.04498
1200.25039,0.04512
1199.22013,0.04505
1198.18987,0.04517
1197.15961,0.04545
1196.12936,0.04541
1195.09910,0.04518
1194.06884,0.04525
1193.03858,0.04551
1192.00832,0.04548
1190.97807,0.04515
1189.94781,0.04491
1188.91755,0.04491
1187.88729,0.04489
1186.85703,0.04474
1185.82678,0.04465
1184.79652,0.04477
1183.76626,0.04487
1182.73600,0.04470
1181.70575,0.04440
1180.67549,0.04427
1179.64523,0.04437
1178.61497,0.04452
1177.58471,0.04457
1176.55446,0.04459
1175.52420,0.04478
1174.49394,0.04502
1173.46368,0.04504
1172.43342,0.04496
1171.40317,0.04507
1170.37291,0.04515
1169.34265,0.04492
1168.31239,0.04465
1167.28214,0.04459
1166.25188,0.04478
1165.22162,0.04492
1164.19136,0.04483
1163.16110,0.04476
1162.13085,0.04464
1161.10059,0.04441
1160.07033,0.04428
1159.04007,0.04431
1158.00982,0.04446
1156.97956,0.04454
1155.94930,0.04427
1154.91904,0.04392
1153.88878,0.04395
1152.85853,0.04431
1151.82827,0.04461
1150.79801,0.04481
1149.76775,0.04486
1148.73749,0.04461
1147.70724,0.04436
1146.67698,0.04436
1145.64672,0.04466
1144.61646,0.04513
1143.58621,0.04536
1142.55595,0.04526
1141.52569,0.04498
1140.49543,0.04477
1139.46517,0.04470
1138.43492,0.04463
1137.40466,0.04471
1136.37440,0.04508
1135.34414,0.04527
1134.31388,0.04497
1133.28363,0.04463
1132.25337,0.04462
1131.22311,0.04470
1130.19285,0.04481
1129.16260,0.04494
1128.13234,0.04520
1127.10208,0.04588
1126.07182,0.04658
1125.04156,0.04683
1124.01131,0.04708
1122.98105,0.04757
1121.95079,0.04775
1120.92053,0.04743
1119.89027,0.04709
1118.86002,0.04697
1117.82976,0.04692
1116.79950,0.04678
1115.76924,0.04665
1114.73899,0.04648
1113.70873,0.04614
1112.67847,0.04591
1111.64821,0.04578
1110.61795,0.04561
1109.58770,0.04567
1108.55744,0.04581
1107.52718,0.04574
1106.49692,0.04577
1105.46667,0.04608
1104.43641,0.04641
1103.40615,0.04636
1102.37589,0.04614
1101.34563,0.04599
1100.31538,0.04585
1099.28512,0.04597
1098.25486,0.04636
1097.22460,0.04650
1096.19434,0.04647
1095.16409,0.04658
1094.13383,0.04661
1093.10357,0.04653
1092.07331,0.04656
1091.04306,0.04676
1090.01280,0.04702
1088.98254,0.04732
1087.95228,0.04762
1086.92202,0.04760
1085.89177,0.04735
1084.86151,0.04724
1083.83125,0.04717
1082.80099,0.04717
1081.77073,0.04740
1080.74048,0.04768
1079.71022,0.04778
1078.67996,0.04772
1077.64970,0.04771
1076.61945,0.04785
1075.58919,0.04793
1074.55893,0.04780
1073.52867,0.04770
1072.49841,0.04782
1071.46816,0.04795
1070.43790,0.04805
1069.40764,0.04827
1068.37738,0.04850
1067.34712,0.04836
1066.31687,0.04785
1065.28661,0.04752
1064.25635,0.04769
1063.22609,0.04792
1062.19584,0.04783
1061.16558,0.04772
1060.13532,0.04785
1059.10506,0.04786
1058.07480,0.04779
1057.04455,0.04801
1056.01429,0.04829
1054.98403,0.04831
1053.95377,0.04813
1052.92352,0.04805
1051.89326,0.04828
1050.86300,0.04836
1049.83274,0.04819
1048.80248,0.04827
1047.77223,0.04855
1046.74197,0.04876
1045.71171,0.04869
1044.68145,0.04842
1043.65119,0.04834
1042.62094,0.04845
1041.59068,0.04856
1040.56042,0.04844
1039.53016,0.04820
1038.49991,0.04837
1037.46965,0.04879
1036.43939,0.04912
1035.40913,0.04944
1034.37887,0.04962
1033.34862,0.04957
1032.31836,0.04952
1031.28810,0.04967
1030.25784,0.04974
1029.22758,0.04950
1028.19733,0.04937
1027.16707,0.04971
1026.13681,0.05017
1025.10655,0.05025
1024.07630,0.04999
1023.04604,0.04981
1022.01578,0.04972
1020.98552,0.04957
1019.95526,0.04974
1018.92501,0.05055
1017.89475,0.05130
1016.86449,0.05132
1015.83423,0.05104
1014.80397,0.05094
1013.77372,0.05115
1012.74346,0.05143
1011.71320,0.05157
1010.68294,0.05185
1009.65269,0.05231
1008.62243,0.05277
1007.59217,0.05322
1006.56191,0.05361
1005.53165,0.05369
1004.50140,0.05345
1003.47114,0.05336
1002.44088,0.05366
1001.41062,0.05396
1000.38037,0.05407
999.35011,0.05433
998.31985,0.05484
997.28959,0.05529
996.25933,0.05550
995.22908,0.05562
994.19882,0.05605
993.16856,0.05675
992.13830,0.05709
991.10804,0.05710
990.07779,0.05737
989.04753,0.05788
988.01727,0.05832
986.98701,0.05860
985.95676,0.05890
984.92650,0.05933
983.89624,0.05973
982.86598,0.06003
981.83572,0.06037
980.80547,0.06062
979.77521,0.06073
978.74495,0.06108
977.71469,0.06164
976.68443,0.06204
975.65418,0.06231
974.62392,0.06268
973.59366,0.06314
972.56340,0.06376
971.53315,0.06470
970.50289,0.06559
969.47263,0.06636
968.44237,0.06732
967.41211,0.06837
966.38186,0.06948
965.35160,0.07082
964.32134,0.07261
963.29108,0.07494
962.26082,0.07742
961.23057,0.07997
960.20031,0.08318
959.17005,0.08724
958.13979,0.09199
957.10954,0.09763
956.07928,0.10436
955.04902,0.11155
954.01876,0.11836
952.98850,0.12453
951.95825,0.13005
950.92799,0.13447
949.89773,0.13728
948.86747,0.13856
947.83722,0.13841
946.80696,0.13658
945.77670,0.13283
944.74644,0.12718
943.71618,0.12053
942.68593,0.11410
941.65567,0.10852
940.62541,0.10403
939.59515,0.10057
938.56489,0.09773
937.53464,0.09538
936.50438,0.09363
935.47412,0.09238
934.44386,0.09147
933.41361,0.09082
932.38335,0.09033
931.35309,0.08992
930.32283,0.08941
929.29257,0.08889
928.26232,0.08889
927.23206,0.08932
926.20180,0.08929
925.17154,0.08915
924.14128,0.08966
923.11103,0.09029
922.08077,0.09058
921.05051,0.09094
920.02025,0.09154
918.99000,0.09204
917.95974,0.09261
916.92948,0.09341
915.89922,0.09411
914.86896,0.09461
913.83871,0.09519
912.80845,0.09619
911.77819,0.09727
910.74793,0.09790
909.71768,0.09833
908.68742,0.09909
907.65716,0.10004
906.62690,0.10063
905.59664,0.10114
904.56639,0.10193
903.53613,0.10302
902.50587,0.10425
901.47561,0.10507
900.44535,0.10561
899.41510,0.10653
898.38484,0.10769
897.35458,0.10883
896.32432,0.11018
895.29407,0.11147
894.26381,0.11213
893.23355,0.11239
892.20329,0.11278
891.17303,0.11361
890.14278,0.11498
889.11252,0.11627
888.08226,0.11724
887.05200,0.11844
886.02174,0.11954
884.99149,0.12054
883.96123,0.12218
882.93097,0.12359
881.90071,0.12390
880.87046,0.12373
879.84020,0.12421
878.80994,0.12577
877.77968,0.12757
876.74942,0.12913
875.71917,0.13037
874.68891,0.13144
873.65865,0.13252
872.62839,0.13334
871.59813,0.13434
870.56788,0.13604
869.53762,0.13773
868.50736,0.13864
867.47710,0.13904
866.44685,0.13956
865.41659,0.14065
864.38633,0.14220
863.35607,0.14356
862.32581,0.14485
861.29556,0.14629
860.26530,0.14749
859.23504,0.14874
858.20478,0.15023
857.17453,0.15157
856.14427,0.15278
855.11401,0.15391
854.08375,0.15510
853.05349,0.15658
852.02324,0.15784
850.99298,0.15861
849.96272,0.15940
848.93246,0.16074
847.90220,0.16235
846.87195,0.16353
845.84169,0.16441
844.81143,0.16565
843.78117,0.16706
842.75092,0.16847
841.72066,0.16996
840.69040,0.17127
839.66014,0.17246
838.62988,0.17357
837.59963,0.17473
836.56937,0.17614
835.53911,0.17727
834.50885,0.17815
833.47859,0.17948
832.44834,0.18086
831.41808,0.18200
830.38782,0.18353
829.35756,0.18554
828.32731,0.18733
827.29705,0.18872
826.26679,0.19022
825.23653,0.19143
824.20627,0.19204
823.17602,0.19294
822.14576,0.19447
821.11550,0.19619
820.08524,0.19756
819.05498,0.19839
818.02473,0.19908
816.99447,0.20013
815.96421,0.20167
814.93395,0.20376
813.90370,0.20604
812.87344,0.20748
811.84318,0.20811
810.81292,0.20947
809.78266,0.21180
808.75241,0.21357
807.72215,0.21426
806.69189,0.21474
805.66163,0.21571
804.63138,0.21687
803.60112,0.21818
802.57086,0.22016
801.54060,0.22200
800.51034,0.22330
799.48009,0.22522
798.44983,0.22708
797.41957,0.22795
796.38931,0.22856
795.35905,0.22944
794.32880,0.23091
793.29854,0.23286
792.26828,0.23495
791.23802,0.23697
790.20777,0.23842
789.17751,0.23925
788.14725,0.24032
787.11699,0.24202
786.08673,0.24352
785.05648,0.24454
784.02622,0.24552
782.99596,0.24663
781.96570,0.24815
780.93544,0.24990
779.90519,0.25154
778.87493,0.25323
777.84467,0.25500
776.81441,0.25673
775.78416,0.25847
774.75390,0.26027
773.72364,0.26230
772.69338,0.26464
771.66312,0.26693
770.63287,0.26864
769.60261,0.26996
768.57235,0.27174
767.54209,0.27382
766.51183,0.27599
765.48158,0.27872
764.45132,0.28153
763.42106,0.28422
762.39080,0.28742
761.36055,0.29134
760.33029,0.29560
759.30003,0.29991
758.26977,0.30447
757.23951,0.30830
756.20926,0.31055
755.17900,0.31224
754.14874,0.31318
753.11848,0.31270
752.08823,0.31165
751.05797,0.31060
750.02771,0.30957
748.99745,0.30847
747.96719,0.30776
746.93694,0.30842
745.90668,0.30995
744.87642,0.31106
743.84616,0.31177
742.81590,0.31256
741.78565,0.31325
740.75539,0.31336
739.72513,0.31356
738.69487,0.31494
737.66462,0.31670
736.63436,0.31818
735.60410,0.31964
734.57384,0.32044
733.54358,0.32121
732.51333,0.32308
731.48307,0.32474
730.45281,0.32557
729.42255,0.32659
728.39229,0.32804
727.36204,0.32909
726.33178,0.32993
725.30152,0.33137
724.27126,0.33291
723.24101,0.33415
722.21075,0.33517
721.18049,0.33651
720.15023,0.33838
719.11997,0.33972
718.08972,0.34045
717.05946,0.34175
716.02920,0.34314
714.99894,0.34353
713.96868,0.34379
712.93843,0.34476
711.90817,0.34620
710.87791,0.34842
709.84765,0.35123
708.81740,0.35373
707.78714,0.35567
706.75688,0.35663
705.72662,0.35695
704.69636,0.35751
703.66611,0.35834
702.63585,0.35935
701.60559,0.36047
700.57533,0.36165
699.54508,0.36269
698.51482,0.36365
697.48456,0.36478
696.45430,0.36632
695.42404,0.36840
694.39379,0.37094
693.36353,0.37305
692.33327,0.37349
691.30301,0.37313
690.27275,0.37405
689.24250,0.37617
688.21224,0.37732
687.18198,0.37727
686.15172,0.37773
685.12147,0.37924
684.09121,0.38110
683.06095,0.38250
682.03069,0.38312
681.00043,0.38384
679.97018,0.38504
678.93992,0.38561
677.90966,0.38701
676.87940,0.39017
675.84914,0.39149
674.81889,0.39083
673.78863,0.39152
672.75837,0.39364
671.72811,0.39516
670.69786,0.39529
669.66760,0.39481
668.63734,0.39423
667.60708,0.39515
666.57682,0.39670
665.54657,0.39738
664.51631,0.39849
663.48605,0.40034
662.45579,0.40250
661.42553,0.40487
660.39528,0.40729
659.36502,0.40906
658.33476,0.40978
657.30450,0.41041
656.27425,0.41081
655.24399,0.41083
654.21373,0.41199
653.18347,0.41376
652.15321,0.41441
651.12296,0.41424
650.09270,0.41441
649.06244,0.41493
648.03218,0.41577
647.00193,0.41798
645.97167,0.42054
644.94141,0.42105
643.91115,0.42023
642.88089,0.42043
641.85064,0.42170
640.82038,0.42249
639.79012,0.42260
638.75986,0.42308
637.72960,0.42310
636.69935,0.42300
635.66909,0.42484
634.63883,0.42723
633.60857,0.42853
632.57832,0.42925
631.54806,0.42997
630.51780,0.43125
629.48754,0.43263
628.45728,0.43393
627.42703,0.43563
626.39677,0.43705
625.36651,0.43713
624.33625,0.43548
623.30599,0.43401
622.27574,0.43477
621.24548,0.43654
620.21522,0.43827
619.18496,0.44026
618.15471,0.44115
617.12445,0.44064
616.09419,0.44063
615.06393,0.44137
614.03367,0.44219
613.00342,0.44289
611.97316,0.44337
610.94290,0.44377
609.91264,0.44427
608.88238,0.44497
607.85213,0.44601
606.82187,0.44730
605.79161,0.44835
604.76135,0.44907
603.73110,0.44968
602.70084,0.45024
601.67058,0.45109
600.64032,0.45210
599.61006,0.45248
598.57981,0.45281
597.54955,0.45359
596.51929,0.45465
595.48903,0.45549
594.45878,0.45516
593.42852,0.45456
592.39826,0.45501
591.36800,0.45585
590.33774,0.45641
589.30749,0.45663
588.27723,0.45634
587.24697,0.45687
586.21671,0.45881
585.18645,0.46017
584.15620,0.45936
583.12594,0.45800
582.09568,0.45812
581.06542,0.45940
580.03517,0.46140
579.00491,0.46290
577.97465,0.46338
576.94439,0.46313
575.91413,0.46162
574.88388,0.46010
573.85362,0.45949
572.82336,0.45973
571.79310,0.46135
570.76284,0.46370
569.73259,0.46711
568.70233,0.47045
567.67207,0.46956
566.64181,0.46651
565.61156,0.46578
564.58130,0.46584
563.55104,0.46614
562.52078,0.46770
561.49052,0.46894
560.46027,0.46913
559.43001,0.46860
558.39975,0.46771
557.36949,0.46733
556.33924,0.46751
555.30898,0.46772
554.27872,0.46758
553.24846,0.46618
552.21820,0.46435
551.18795,0.46510
550.15769,0.46745
549.12743,0.46877
548.09717,0.46847
547.06691,0.46689
546.03666,0.46595
545.00640,0.46673
543.97614,0.46970
542.94588,0.47240
541.91563,0.47165
540.88537,0.47124
539.85511,0.47351
538.82485,0.47411
537.79459,0.47219
536.76434,0.47115
535.73408,0.47070
534.70382,0.46884
533.67356,0.46734
532.64330,0.46880
531.61305,0.47475
530.58279,0.48243
529.55253,0.48456
528.52227,0.48189
527.49202,0.48097
526.46176,0.48342
525.43150,0.48585
524.40124,0.48531
523.37098,0.48464
522.34073,0.48715
521.31047,0.48961
520.28021,0.48976
519.24995,0.49103
518.21969,0.49261
517.18944,0.49414
516.15918,0.49911
515.12892,0.50368
514.09866,0.50399
513.06841,0.50315
512.03815,0.50245
511.00789,0.50289
509.97763,0.50760
508.94737,0.51413
507.91712,0.51827
506.88686,0.52057
505.85660,0.52256
504.82634,0.52444
503.79609,0.52569
502.76583,0.52737
501.73557,0.53100
500.70531,0.53494
499.67505,0.53926
498.64480,0.54351
497.61454,0.54622
496.58428,0.54514
495.55402,0.53871
494.52376,0.53527
493.49351,0.53800
492.46325,0.53801
491.43299,0.53502
490.40273,0.53404
489.37248,0.53234
488.34222,0.52644
487.31196,0.52031
486.28170,0.51867
485.25144,0.51833
484.22119,0.51663
483.19093,0.51524
482.16067,0.51384
481.13041,0.51432
480.10015,0.51641
479.06990,0.51411
478.03964,0.50885
477.00938,0.50419
475.97912,0.49840
474.94887,0.49565
473.91861,0.49943
472.88835,0.50665
471.85809,0.51342
470.82783,0.51480
469.79758,0.51461
468.76732,0.52265
467.73706,0.53647
466.70680,0.54899
465.67654,0.56012
464.64629,0.56673
463.61603,0.56953
462.58577,0.57265
461.55551,0.57249
460.52526,0.56790
459.49500,0.56554
458.46474,0.56694
457.43448,0.56553
456.40422,0.55847
455.37397,0.55117
454.34371,0.54400
453.31345,0.53577
452.28319,0.53335
451.25294,0.53723
450.22268,0.53760
449.19242,0.53504
448.16216,0.53409
447.13190,0.53475
446.10165,0.53442
445.07139,0.53448
444.04113,0.53222
443.01087,0.52160
441.98061,0.51425
440.95036,0.51327
439.92010,0.50786
438.88984,0.50586
437.85958,0.51379
436.82933,0.52157
435.79907,0.52255
434.76881,0.51798
433.73855,0.51143
432.70829,0.50709
431.67804,0.50346
430.64778,0.49828
429.61752,0.49675
428.58726,0.49824
427.55700,0.49745
426.52675,0.49593
425.49649,0.49476
424.46623,0.49387
423.43597,0.49210
422.40572,0.48907
421.37546,0.48689
420.34520,0.48527
419.31494,0.48455
418.28468,0.48923
417.25443,0.49508
416.22417,0.49528
415.19391,0.49406
414.16365,0.49627
413.13339,0.49889
412.10314,0.49584
411.07288,0.48812
410.04262,0.48295
409.01236,0.47922
407.98211,0.47070
406.95185,0.46461
405.92159,0.47002
404.89133,0.47952
403.86107,0.48228
402.83082,0.48043
401.80056,0.47698
400.77030,0.47212
399.74004,0.47190
