4998.81105,0.00289
4997.78079,0.00260
4996.75054,0.00218
4995.72028,0.00172
4994.69002,0.00242
4993.65976,0.00365
4992.62951,0.00377
4991.59925,0.00347
4990.56899,0.00281
4989.53873,0.00158
4988.50847,0.00125
4987.47822,0.00261
4986.44796,0.00399
4985.41770,0.00405
4984.38744,0.00314
4983.35718,0.00193
4982.32693,0.00121
4981.29667,0.00061
4980.26641,0.00015
4979.23615,0.00096
4978.20590,0.00205
4977.17564,0.00248
4976.14538,0.00288
4975.11512,0.00288
4974.08486,0.00221
4973.05461,0.00192
4972.02435,0.00223
4970.99409,0.00213
4969.96383,0.00174
4968.93357,0.00229
4967.90332,0.00303
4966.87306,0.00276
4965.84280,0.00199
4964.81254,0.00150
4963.78229,0.00177
4962.75203,0.00208
4961.72177,0.00210
4960.69151,0.00246
4959.66125,0.00259
4958.63100,0.00251
4957.60074,0.00285
4956.57048,0.00344
4955.54022,0.00376
4954.50997,0.00325
4953.47971,0.00229
4952.44945,0.00151
4951.41919,0.00156
4950.38893,0.00253
4949.35868,0.00343
4948.32842,0.00355
4947.29816,0.00291
4946.26790,0.00192
4945.23764,0.00095
4944.20739,0.00055
4943.17713,0.00176
4942.14687,0.00341
4941.11661,0.00354
4940.08636,0.00302
4939.05610,0.00238
4938.02584,0.00060
4936.99558,-0.00051
4935.96532,0.00069
4934.93507,0.00232
4933.90481,0.00341
4932.87455,0.00401
4931.84429,0.00367
4930.81403,0.00242
4929.78378,0.00131
4928.75352,0.00154
4927.72326,0.00205
4926.69300,0.00187
4925.66275,0.00179
4924.63249,0.00179
4923.60223,0.00161
4922.57197,0.00175
4921.54171,0.00225
4920.51146,0.00256
4919.48120,0.00269
4918.45094,0.00319
4917.42068,0.00410
4916.39042,0.00503
4915.36017,0.00529
4914.32991,0.00410
4913.29965,0.00242
4912.26939,0.00252
4911.23914,0.00419
4910.20888,0.00492
4909.17862,0.00338
4908.14836,0.00080
4907.11810,-0.00008
4906.08785,0.00117
4905.05759,0.00204
4904.02733,0.00168
4902.99707,0.00141
4901.96682,0.00145
4900.93656,0.00124
4899.90630,0.00151
4898.87604,0.00264
4897.84578,0.00326
4896.81553,0.00260
4895.78527,0.00161
4894.75501,0.00116
4893.72475,0.00113
4892.69449,0.00108
4891.66424,0.00132
4890.63398,0.00190
4889.60372,0.00191
4888.57346,0.00148
4887.54321,0.00145
4886.51295,0.00165
4885.48269,0.00188
4884.45243,0.00188
4883.42217,0.00173
4882.39192,0.00186
4881.36166,0.00183
4880.33140,0.00197
4879.30114,0.00247
4878.27088,0.00237
4877.24063,0.00199
4876.21037,0.00175
4875.18011,0.00139
4874.14985,0.00106
4873.11960,0.00104
4872.08934,0.00148
4871.05908,0.00198
4870.02882,0.00186
4868.99856,0.00117
4867.96831,0.00039
4866.93805,0.00054
4865.90779,0.00213
4864.87753,0.00360
4863.84727,0.00356
4862.81702,0.00317
4861.78676,0.00359
4860.75650,0.00371
4859.72624,0.00280
4858.69599,0.00211
4857.66573,0.00224
4856.63547,0.00214
4855.60521,0.00170
4854.57495,0.00180
4853.54470,0.00226
4852.51444,0.00228
4851.48418,0.00187
4850.45392,0.00191
4849.42367,0.00268
4848.39341,0.00312
4847.36315,0.00283
4846.33289,0.00237
4845.30263,0.00202
4844.27238,0.00231
4843.24212,0.00302
4842.21186,0.00303
4841.18160,0.00245
4840.15134,0.00200
4839.12109,0.00191
4838.09083,0.00229
4837.06057,0.00291
4836.03031,0.00312
4835.00006,0.00266
4833.96980,0.00213
4832.93954,0.00208
4831.90928,0.00231
4830.87902,0.00256
4829.84877,0.00283
4828.81851,0.00295
4827.78825,0.00288
4826.75799,0.00315
4825.72773,0.00364
4824.69748,0.00379
4823.66722,0.00346
4822.63696,0.00266
4821.60670,0.00174
4820.57645,0.00151
4819.54619,0.00253
4818.51593,0.00375
4817.48567,0.00355
4816.45541,0.00243
4815.42516,0.00183
4814.39490,0.00174
4813.36464,0.00141
4812.33438,0.00094
4811.30412,0.00104
4810.27387,0.00150
4809.24361,0.00164
4808.21335,0.00174
4807.18309,0.00214
4806.15284,0.00238
4805.12258,0.00221
4804.09232,0.00185
4803.06206,0.00149
4802.03180,0.00154
4801.00155,0.00248
4799.97129,0.00342
4798.94103,0.00330
4797.91077,0.00267
4796.88052,0.00198
4795.85026,0.00153
4794.82000,0.00158
4793.78974,0.00195
4792.75948,0.00254
4791.72923,0.00297
4790.69897,0.00267
4789.66871,0.00189
4788.63845,0.00173
4787.60819,0.00202
4786.57794,0.00165
4785.54768,0.00096
4784.51742,0.00096
4783.48716,0.00172
4782.45691,0.00221
4781.42665,0.00181
4780.39639,0.00125
4779.36613,0.00097
4778.33587,0.00091
4777.30562,0.00115
4776.27536,0.00121
4775.24510,0.00110
4774.21484,0.00100
4773.18458,0.00068
4772.15433,0.00057
4771.12407,0.00111
4770.09381,0.00175
4769.06355,0.00174
4768.03330,0.00140
4767.00304,0.00167
4765.97278,0.00277
4764.94252,0.00382
4763.91226,0.00339
4762.88201,0.00159
4761.85175,0.00035
4760.82149,0.00054
4759.79123,0.00160
4758.76098,0.00224
4757.73072,0.00165
4756.70046,0.00110
4755.67020,0.00123
4754.63994,0.00117
4753.60969,0.00100
4752.57943,0.00126
4751.54917,0.00166
4750.51891,0.00196
4749.48865,0.00207
4748.45840,0.00205
4747.42814,0.00203
4746.39788,0.00204
4745.36762,0.00209
4744.33737,0.00163
4743.30711,0.00090
4742.27685,0.00124
4741.24659,0.00253
4740.21633,0.00318
4739.18608,0.00272
4738.15582,0.00220
4737.12556,0.00205
4736.09530,0.00187
4735.06504,0.00152
4734.03479,0.00138
4733.00453,0.00144
4731.97427,0.00166
4730.94401,0.00216
4729.91376,0.00220
4728.88350,0.00162
4727.85324,0.00162
4726.82298,0.00236
4725.79272,0.00297
4724.76247,0.00334
4723.73221,0.00337
4722.70195,0.00301
4721.67169,0.00285
4720.64143,0.00276
4719.61118,0.00263
4718.58092,0.00264
4717.55066,0.00237
4716.52040,0.00216
4715.49015,0.00206
4714.45989,0.00151
4713.42963,0.00111
4712.39937,0.00139
4711.36911,0.00192
4710.33886,0.00239
4709.30860,0.00281
4708.27834,0.00264
4707.24808,0.00174
4706.21783,0.00131
4705.18757,0.00153
4704.15731,0.00167
4703.12705,0.00177
4702.09679,0.00182
4701.06654,0.00186
4700.03628,0.00189
4699.00602,0.00157
4697.97576,0.00123
4696.94550,0.00154
4695.91525,0.00210
4694.88499,0.00218
4693.85473,0.00219
4692.82447,0.00212
4691.79422,0.00163
4690.76396,0.00140
4689.73370,0.00181
4688.70344,0.00214
4687.67318,0.00210
4686.64293,0.00187
4685.61267,0.00150
4684.58241,0.00130
4683.55215,0.00140
4682.52189,0.00181
4681.49164,0.00228
4680.46138,0.00216
4679.43112,0.00146
4678.40086,0.00116
4677.37061,0.00205
4676.34035,0.00319
4675.31009,0.00335
4674.27983,0.00280
4673.24957,0.00206
4672.21932,0.00107
4671.18906,0.00064
4670.15880,0.00073
4669.12854,0.00056
4668.09828,0.00056
4667.06803,0.00105
4666.03777,0.00199
4665.00751,0.00261
4663.97725,0.00210
4662.94700,0.00126
4661.91674,0.00136
4660.88648,0.00237
4659.85622,0.00274
4658.82596,0.00207
4657.79571,0.00138
4656.76545,0.00120
4655.73519,0.00151
4654.70493,0.00168
4653.67468,0.00140
4652.64442,0.00137
4651.61416,0.00199
4650.58390,0.00269
4649.55364,0.00317
4648.52339,0.00341
4647.49313,0.00300
4646.46287,0.00218
4645.43261,0.00156
4644.40235,0.00157
4643.37210,0.00210
4642.34184,0.00213
4641.31158,0.00139
4640.28132,0.00035
4639.25107,-0.00024
4638.22081,0.00046
4637.19055,0.00179
4636.16029,0.00240
4635.13003,0.00192
4634.09978,0.00148
4633.06952,0.00208
4632.03926,0.00253
4631.00900,0.00226
4629.97874,0.00215
4628.94849,0.00216
4627.91823,0.00225
4626.88797,0.00249
4625.85771,0.00267
4624.82746,0.00282
4623.79720,0.00271
4622.76694,0.00252
4621.73668,0.00254
4620.70642,0.00199
4619.67617,0.00092
4618.64591,0.00113
4617.61565,0.00265
4616.58539,0.00362
4615.55513,0.00346
4614.52488,0.00255
4613.49462,0.00145
4612.46436,0.00084
4611.43410,0.00097
4610.40385,0.00137
4609.37359,0.00148
4608.34333,0.00126
4607.31307,0.00144
4606.28281,0.00214
4605.25256,0.00221
4604.22230,0.00138
4603.19204,0.00090
4602.16178,0.00143
4601.13153,0.00194
4600.10127,0.00199
4599.07101,0.00194
4598.04075,0.00133
4597.01049,0.00012
4595.98024,-0.00046
4594.94998,-0.00017
4593.91972,0.00026
4592.88946,0.00105
4591.85920,0.00162
4590.82895,0.00113
4589.79869,0.00038
4588.76843,0.00030
4587.73817,0.00085
4586.70792,0.00124
4585.67766,0.00132
4584.64740,0.00183
4583.61714,0.00267
4582.58688,0.00285
4581.55663,0.00231
4580.52637,0.00188
4579.49611,0.00159
4578.46585,0.00140
4577.43559,0.00151
4576.40534,0.00139
4575.37508,0.00097
4574.34482,0.00084
4573.31456,0.00128
4572.28431,0.00176
4571.25405,0.00159
4570.22379,0.00108
4569.19353,0.00093
4568.16327,0.00112
4567.13302,0.00126
4566.10276,0.00121
4565.07250,0.00127
4564.04224,0.00143
4563.01198,0.00120
4561.98173,0.00083
4560.95147,0.00111
4559.92121,0.00198
4558.89095,0.00273
4557.86070,0.00287
4556.83044,0.00245
4555.80018,0.00197
4554.76992,0.00177
4553.73966,0.00168
4552.70941,0.00138
4551.67915,0.00102
4550.64889,0.00071
4549.61863,0.00035
4548.58838,0.00004
4547.55812,-0.00009
4546.52786,0.00012
4545.49760,0.00060
4544.46734,0.00109
4543.43709,0.00183
4542.40683,0.00277
4541.37657,0.00287
4540.34631,0.00150
4539.31605,-0.00018
4538.28580,-0.00044
4537.25554,0.00079
4536.22528,0.00215
4535.19502,0.00236
4534.16477,0.00157
4533.13451,0.00139
4532.10425,0.00211
4531.07399,0.00214
4530.04373,0.00146
4529.01348,0.00142
4527.98322,0.00174
4526.95296,0.00187
4525.92270,0.00212
4524.89244,0.00240
4523.86219,0.00230
4522.83193,0.00212
4521.80167,0.00252
4520.77141,0.00321
4519.74116,0.00348
4518.71090,0.00299
4517.68064,0.00228
4516.65038,0.00199
4515.62012,0.00206
4514.58987,0.00247
4513.55961,0.00275
4512.52935,0.00274
4511.49909,0.00267
4510.46883,0.00252
4509.43858,0.00265
4508.40832,0.00313
4507.37806,0.00314
4506.34780,0.00238
4505.31755,0.00225
4504.28729,0.00313
4503.25703,0.00359
4502.22677,0.00356
4501.19651,0.00362
4500.16626,0.00348
4499.13600,0.00299
4498.10574,0.00250
4497.07548,0.00251
4496.04523,0.00282
4495.01497,0.00253
4493.98471,0.00191
4492.95445,0.00182
4491.92419,0.00209
4490.89394,0.00253
4489.86368,0.00305
4488.83342,0.00296
4487.80316,0.00225
4486.77290,0.00177
4485.74265,0.00162
4484.71239,0.00186
4483.68213,0.00287
4482.65187,0.00374
4481.62162,0.00358
4480.59136,0.00305
4479.56110,0.00306
4478.53084,0.00323
4477.50058,0.00326
4476.47033,0.00370
4475.44007,0.00411
4474.40981,0.00399
4473.37955,0.00412
4472.34929,0.00430
4471.31904,0.00388
4470.28878,0.00346
4469.25852,0.00344
4468.22826,0.00358
4467.19801,0.00339
4466.16775,0.00283
4465.13749,0.00267
4464.10723,0.00311
4463.07697,0.00343
4462.04672,0.00303
4461.01646,0.00245
4459.98620,0.00227
4458.95594,0.00225
4457.92568,0.00232
4456.89543,0.00240
4455.86517,0.00237
4454.83491,0.00244
4453.80465,0.00261
4452.77440,0.00276
4451.74414,0.00277
4450.71388,0.00262
4449.68362,0.00246
4448.65336,0.00252
4447.62311,0.00312
4446.59285,0.00372
4445.56259,0.00322
4444.53233,0.00226
4443.50208,0.00206
4442.47182,0.00235
4441.44156,0.00254
4440.41130,0.00279
4439.38104,0.00362
4438.35079,0.00459
4437.32053,0.00457
4436.29027,0.00390
4435.26001,0.00351
4434.22975,0.00343
4433.19950,0.00330
4432.16924,0.00281
4431.13898,0.00211
4430.10872,0.00188
4429.07847,0.00216
4428.04821,0.00241
4427.01795,0.00287
4425.98769,0.00373
4424.95743,0.00437
4423.92718,0.00431
4422.89692,0.00383
4421.86666,0.00352
4420.83640,0.00372
4419.80614,0.00421
4418.77589,0.00419
4417.74563,0.00347
4416.71537,0.00278
4415.68511,0.00279
4414.65486,0.00317
4413.62460,0.00326
4412.59434,0.00314
4411.56408,0.00320
4410.53382,0.00359
4409.50357,0.00377
4408.47331,0.00329
4407.44305,0.00299
4406.41279,0.00310
4405.38253,0.00276
4404.35228,0.00234
4403.32202,0.00226
4402.29176,0.00197
4401.26150,0.00166
4400.23125,0.00178
4399.20099,0.00186
4398.17073,0.00188
4397.14047,0.00239
4396.11021,0.00281
4395.07996,0.00260
4394.04970,0.00227
4393.01944,0.00230
4391.98918,0.00225
4390.95893,0.00184
4389.92867,0.00179
4388.89841,0.00213
4387.86815,0.00233
4386.83789,0.00236
4385.80764,0.00201
4384.77738,0.00142
4383.74712,0.00096
4382.71686,0.00073
4381.68660,0.00066
4380.65635,0.00046
4379.62609,0.00051
4378.59583,0.00141
4377.56557,0.00242
4376.53532,0.00270
4375.50506,0.00249
4374.47480,0.00230
4373.44454,0.00206
4372.41428,0.00163
4371.38403,0.00146
4370.35377,0.00165
4369.32351,0.00185
4368.29325,0.00182
4367.26299,0.00192
4366.23274,0.00230
4365.20248,0.00243
4364.17222,0.00210
4363.14196,0.00184
4362.11171,0.00219
4361.08145,0.00247
4360.05119,0.00228
4359.02093,0.00220
4357.99067,0.00225
4356.96042,0.00217
4355.93016,0.00195
4354.89990,0.00142
4353.86964,0.00098
4352.83939,0.00098
4351.80913,0.00123
4350.77887,0.00152
4349.74861,0.00169
4348.71835,0.00212
4347.68810,0.00266
4346.65784,0.00236
4345.62758,0.00179
4344.59732,0.00186
4343.56706,0.00230
4342.53681,0.00276
4341.50655,0.00273
4340.47629,0.00215
4339.44603,0.00199
4338.41578,0.00231
4337.38552,0.00216
4336.35526,0.00140
4335.32500,0.00071
4334.29474,0.00074
4333.26449,0.00132
4332.23423,0.00135
4331.20397,0.00073
4330.17371,0.00046
4329.14345,0.00090
4328.11320,0.00175
4327.08294,0.00241
4326.05268,0.00240
4325.02242,0.00197
4323.99217,0.00180
4322.96191,0.00226
4321.93165,0.00273
4320.90139,0.00266
4319.87113,0.00238
4318.84088,0.00203
4317.81062,0.00151
4316.78036,0.00124
4315.75010,0.00140
4314.71984,0.00168
4313.68959,0.00151
4312.65933,0.00093
4311.62907,0.00096
4310.59881,0.00151
4309.56856,0.00183
4308.53830,0.00190
4307.50804,0.00210
4306.47778,0.00261
4305.44752,0.00307
4304.41727,0.00324
4303.38701,0.00313
4302.35675,0.00299
4301.32649,0.00296
4300.29624,0.00288
4299.26598,0.00286
4298.23572,0.00299
4297.20546,0.00280
4296.17520,0.00255
4295.14495,0.00283
4294.11469,0.00290
4293.08443,0.00253
4292.05417,0.00232
4291.02391,0.00237
4289.99366,0.00239
4288.96340,0.00217
4287.93314,0.00171
4286.90288,0.00119
4285.87263,0.00104
4284.84237,0.00152
4283.81211,0.00242
4282.78185,0.00315
4281.75159,0.00298
4280.72134,0.00232
4279.69108,0.00227
4278.66082,0.00260
4277.63056,0.00232
4276.60030,0.00166
4275.57005,0.00131
4274.53979,0.00148
4273.50953,0.00229
4272.47927,0.00291
4271.44902,0.00243
4270.41876,0.00200
4269.38850,0.00226
4268.35824,0.00210
4267.32798,0.00163
4266.29773,0.00173
4265.26747,0.00214
4264.23721,0.00211
4263.20695,0.00165
4262.17669,0.00143
4261.14644,0.00155
4260.11618,0.00165
4259.08592,0.00170
4258.05566,0.00170
4257.02541,0.00151
4255.99515,0.00147
4254.96489,0.00164
4253.93463,0.00140
4252.90437,0.00097
4251.87412,0.00095
4250.84386,0.00119
4249.81360,0.00154
4248.78334,0.00207
4247.75309,0.00237
4246.72283,0.00190
4245.69257,0.00140
4244.66231,0.00152
4243.63205,0.00177
4242.60180,0.00201
4241.57154,0.00246
4240.54128,0.00286
4239.51102,0.00272
4238.48076,0.00219
4237.45051,0.00169
4236.42025,0.00134
4235.38999,0.00126
4234.35973,0.00178
4233.32948,0.00258
4232.29922,0.00288
4231.26896,0.00282
4230.23870,0.00272
4229.20844,0.00258
4228.17819,0.00242
4227.14793,0.00197
4226.11767,0.00162
4225.08741,0.00185
4224.05715,0.00208
4223.02690,0.00212
4221.99664,0.00219
4220.96638,0.00234
4219.93612,0.00263
4218.90587,0.00275
4217.87561,0.00273
4216.84535,0.00272
4215.81509,0.00257
4214.78483,0.00223
4213.75458,0.00163
4212.72432,0.00121
4211.69406,0.00149
4210.66380,0.00177
4209.63354,0.00175
4208.60329,0.00184
4207.57303,0.00180
4206.54277,0.00148
4205.51251,0.00115
4204.48226,0.00104
4203.45200,0.00126
4202.42174,0.00152
4201.39148,0.00172
4200.36122,0.00207
4199.33097,0.00250
4198.30071,0.00279
4197.27045,0.00267
4196.24019,0.00224
4195.20994,0.00166
4194.17968,0.00119
4193.14942,0.00148
4192.11916,0.00194
4191.08890,0.00168
4190.05865,0.00131
4189.02839,0.00145
4187.99813,0.00179
4186.96787,0.00208
4185.93761,0.00212
4184.90736,0.00191
4183.87710,0.00178
4182.84684,0.00189
4181.81658,0.00226
4180.78633,0.00244
4179.75607,0.00214
4178.72581,0.00201
4177.69555,0.00213
4176.66529,0.00208
4175.63504,0.00190
4174.60478,0.00193
4173.57452,0.00246
4172.54426,0.00295
4171.51400,0.00293
4170.48375,0.00282
4169.45349,0.00260
4168.42323,0.00214
4167.39297,0.00196
4166.36272,0.00212
4165.33246,0.00195
4164.30220,0.00158
4163.27194,0.00183
4162.24168,0.00253
4161.21143,0.00295
4160.18117,0.00303
4159.15091,0.00307
4158.12065,0.00298
4157.09039,0.00253
4156.06014,0.00207
4155.02988,0.00211
4153.99962,0.00273
4152.96936,0.00328
4151.93911,0.00311
4150.90885,0.00274
4149.87859,0.00279
4148.84833,0.00293
4147.81807,0.00282
4146.78782,0.00266
4145.75756,0.00285
4144.72730,0.00332
4143.69704,0.00349
4142.66679,0.00342
4141.63653,0.00316
4140.60627,0.00245
4139.57601,0.00186
4138.54575,0.00211
4137.51550,0.00284
4136.48524,0.00331
4135.45498,0.00319
4134.42472,0.00261
4133.39446,0.00208
4132.36421,0.00210
4131.33395,0.00266
4130.30369,0.00320
4129.27343,0.00328
4128.24318,0.00288
4127.21292,0.00233
4126.18266,0.00213
4125.15240,0.00251
4124.12214,0.00286
4123.09189,0.00252
4122.06163,0.00213
4121.03137,0.00214
4120.00111,0.00221
4118.97085,0.00218
4117.94060,0.00196
4116.91034,0.00157
4115.88008,0.00156
4114.84982,0.00177
4113.81957,0.00180
4112.78931,0.00212
4111.75905,0.00262
4110.72879,0.00257
4109.69853,0.00219
4108.66828,0.00181
4107.63802,0.00145
4106.60776,0.00141
4105.57750,0.00178
4104.54724,0.00235
4103.51699,0.00286
4102.48673,0.00292
4101.45647,0.00237
4100.42621,0.00162
4099.39596,0.00153
4098.36570,0.00217
4097.33544,0.00256
4096.30518,0.00246
4095.27492,0.00247
4094.24467,0.00271
4093.21441,0.00295
4092.18415,0.00298
4091.15389,0.00274
4090.12364,0.00225
4089.09338,0.00177
4088.06312,0.00169
4087.03286,0.00206
4086.00260,0.00247
4084.97235,0.00289
4083.94209,0.00349
4082.91183,0.00367
4081.88157,0.00328
4080.85131,0.00294
4079.82106,0.00277
4078.79080,0.00259
4077.76054,0.00216
4076.73028,0.00196
4075.70003,0.00249
4074.66977,0.00318
4073.63951,0.00335
4072.60925,0.00285
4071.57899,0.00219
4070.54874,0.00212
4069.51848,0.00235
4068.48822,0.00236
4067.45796,0.00247
4066.42770,0.00292
4065.39745,0.00311
4064.36719,0.00275
4063.33693,0.00251
4062.30667,0.00265
4061.27642,0.00289
4060.24616,0.00300
4059.21590,0.00286
4058.18564,0.00244
4057.15538,0.00204
4056.12513,0.00212
4055.09487,0.00240
4054.06461,0.00269
4053.03435,0.00285
4052.00409,0.00248
4050.97384,0.00192
4049.94358,0.00180
4048.91332,0.00214
4047.88306,0.00243
4046.85281,0.00253
4045.82255,0.00249
4044.79229,0.00218
4043.76203,0.00177
4042.73177,0.00159
4041.70152,0.00177
4040.67126,0.00220
4039.64100,0.00281
4038.61074,0.00322
4037.58049,0.00293
4036.55023,0.00260
4035.51997,0.00271
4034.48971,0.00274
4033.45945,0.00259
4032.42920,0.00257
4031.39894,0.00265
4030.36868,0.00249
4029.33842,0.00204
4028.30816,0.00189
4027.27791,0.00244
4026.24765,0.00313
4025.21739,0.00337
4024.18713,0.00326
4023.15688,0.00316
4022.12662,0.00314
4021.09636,0.00301
4020.06610,0.00294
4019.03584,0.00295
4018.00559,0.00275
4016.97533,0.00278
4015.94507,0.00319
4014.91481,0.00324
4013.88455,0.00296
4012.85430,0.00287
4011.82404,0.00277
4010.79378,0.00268
4009.76352,0.00259
4008.73327,0.00230
4007.70301,0.00212
4006.67275,0.00212
4005.64249,0.00223
4004.61223,0.00270
4003.58198,0.00320
4002.55172,0.00313
4001.52146,0.00273
4000.49120,0.00237
3999.46095,0.00238
3998.43069,0.00279
3997.40043,0.00277
3996.37017,0.00226
3995.33991,0.00223
3994.30966,0.00252
3993.27940,0.00245
3992.24914,0.00243
3991.21888,0.00261
3990.18862,0.00269
3989.15837,0.00282
3988.12811,0.00298
3987.09785,0.00279
3986.06759,0.00252
3985.03734,0.00265
3984.00708,0.00271
3982.97682,0.00242
3981.94656,0.00205
3980.91630,0.00187
3979.88605,0.00207
3978.85579,0.00228
3977.82553,0.00231
3976.79527,0.00248
3975.76501,0.00276
3974.73476,0.00280
3973.70450,0.00259
3972.67424,0.00232
3971.64398,0.00186
3970.61373,0.00163
3969.58347,0.00218
3968.55321,0.00291
3967.52295,0.00310
3966.49269,0.00285
3965.46244,0.00244
3964.43218,0.00219
3963.40192,0.00230
3962.37166,0.00229
3961.34140,0.00207
3960.31115,0.00227
3959.28089,0.00278
3958.25063,0.00309
3957.22037,0.00312
3956.19012,0.00299
3955.15986,0.00291
3954.12960,0.00301
3953.09934,0.00304
3952.06908,0.00286
3951.03883,0.00255
3950.00857,0.00232
3948.97831,0.00232
3947.94805,0.00256
3946.91780,0.00280
3945.88754,0.00273
3944.85728,0.00248
3943.82702,0.00219
3942.79676,0.00177
3941.76651,0.00143
3940.73625,0.00164
3939.70599,0.00219
3938.67573,0.00236
3937.64547,0.00228
3936.61522,0.00222
3935.58496,0.00213
3934.55470,0.00221
3933.52444,0.00236
3932.49419,0.00220
3931.46393,0.00182
3930.43367,0.00174
3929.40341,0.00209
3928.37315,0.00234
3927.34290,0.00191
3926.31264,0.00118
3925.28238,0.00107
3924.25212,0.00136
3923.22186,0.00144
3922.19161,0.00186
3921.16135,0.00262
3920.13109,0.00286
3919.10083,0.00241
3918.07058,0.00178
3917.04032,0.00159
3916.01006,0.00194
3914.97980,0.00229
3913.94954,0.00261
3912.91929,0.00274
3911.88903,0.00252
3910.85877,0.00215
3909.82851,0.00190
3908.79825,0.00195
3907.76800,0.00222
3906.73774,0.00233
3905.70748,0.00224
3904.67722,0.00230
3903.64697,0.00230
3902.61671,0.00183
3901.58645,0.00150
3900.55619,0.00172
3899.52593,0.00189
3898.49568,0.00197
3897.46542,0.00251
3896.43516,0.00341
3895.40490,0.00382
3894.37465,0.00337
3893.34439,0.00287
3892.31413,0.00288
3891.28387,0.00306
3890.25361,0.00302
3889.22336,0.00269
3888.19310,0.00226
3887.16284,0.00191
3886.13258,0.00180
3885.10232,0.00211
3884.07207,0.00236
3883.04181,0.00251
3882.01155,0.00250
3880.98129,0.00202
3879.95104,0.00151
3878.92078,0.00155
3877.89052,0.00189
3876.86026,0.00217
3875.83000,0.00246
3874.79975,0.00264
3873.76949,0.00235
3872.73923,0.00221
3871.70897,0.00242
3870.67871,0.00249
3869.64846,0.00242
3868.61820,0.00224
3867.58794,0.00196
3866.55768,0.00204
3865.52743,0.00223
3864.49717,0.00199
3863.46691,0.00213
3862.43665,0.00259
3861.40639,0.00270
3860.37614,0.00263
3859.34588,0.00245
3858.31562,0.00225
3857.28536,0.00227
3856.25510,0.00253
3855.22485,0.00286
3854.19459,0.00264
3853.16433,0.00193
3852.13407,0.00212
3851.10382,0.00275
3850.07356,0.00291
3849.04330,0.00251
3848.01304,0.00204
3846.98278,0.00180
3845.95253,0.00177
3844.92227,0.00203
3843.89201,0.00250
3842.86175,0.00289
3841.83150,0.00295
3840.80124,0.00255
3839.77098,0.00223
3838.74072,0.00225
3837.71046,0.00214
3836.68021,0.00213
3835.64995,0.00229
3834.61969,0.00215
3833.58943,0.00188
3832.55917,0.00186
3831.52892,0.00194
3830.49866,0.00211
3829.46840,0.00243
3828.43814,0.00253
3827.40789,0.00206
3826.37763,0.00139
3825.34737,0.00118
3824.31711,0.00124
3823.28685,0.00131
3822.25660,0.00169
3821.22634,0.00244
3820.19608,0.00292
3819.16582,0.00320
3818.13556,0.00341
3817.10531,0.00320
3816.07505,0.00283
3815.04479,0.00286
3814.01453,0.00305
3812.98428,0.00307
3811.95402,0.00279
3810.92376,0.00231
3809.89350,0.00195
3808.86324,0.00209
3807.83299,0.00261
3806.80273,0.00285
3805.77247,0.00259
3804.74221,0.00229
3803.71195,0.00215
3802.68170,0.00200
3801.65144,0.00168
3800.62118,0.00156
3799.59092,0.00190
3798.56067,0.00252
3797.53041,0.00294
3796.50015,0.00264
3795.46989,0.00209
3794.43963,0.00195
3793.40938,0.00207
3792.37912,0.00225
3791.34886,0.00240
3790.31860,0.00275
3789.28835,0.00332
3788.25809,0.00334
3787.22783,0.00277
3786.19757,0.00251
3785.16731,0.00266
3784.13706,0.00279
3783.10680,0.00283
3782.07654,0.00286
3781.04628,0.00296
3780.01602,0.00323
3778.98577,0.00322
3777.95551,0.00248
3776.92525,0.00179
3775.89499,0.00180
3774.86474,0.00222
3773.83448,0.00254
3772.80422,0.00290
3771.77396,0.00343
3770.74370,0.00380
3769.71345,0.00375
3768.68319,0.00343
3767.65293,0.00312
3766.62267,0.00300
3765.59241,0.00310
3764.56216,0.00326
3763.53190,0.00337
3762.50164,0.00350
3761.47138,0.00369
3760.44113,0.00385
3759.41087,0.00381
3758.38061,0.00343
3757.35035,0.00305
3756.32009,0.00301
3755.28984,0.00303
3754.25958,0.00290
3753.22932,0.00276
3752.19906,0.00276
3751.16880,0.00298
3750.13855,0.00347
3749.10829,0.00450
3748.07803,0.00532
3747.04777,0.00518
3746.01752,0.00458
3744.98726,0.00449
3743.95700,0.00520
3742.92674,0.00542
3741.89648,0.00531
3740.86623,0.00514
3739.83597,0.00471
3738.80571,0.00385
3737.77545,0.00291
3736.74520,0.00235
3735.71494,0.00230
3734.68468,0.00294
3733.65442,0.00379
3732.62416,0.00414
3731.59391,0.00379
3730.56365,0.00356
3729.53339,0.00383
3728.50313,0.00407
3727.47287,0.00403
3726.44262,0.00414
3725.41236,0.00434
3724.38210,0.00398
3723.35184,0.00367
3722.32159,0.00414
3721.29133,0.00470
3720.26107,0.00454
3719.23081,0.00397
3718.20055,0.00365
3717.17030,0.00365
3716.14004,0.00394
3715.10978,0.00452
3714.07952,0.00468
3713.04926,0.00424
3712.01901,0.00418
3710.98875,0.00455
3709.95849,0.00466
3708.92823,0.00484
3707.89798,0.00499
3706.86772,0.00481
3705.83746,0.00466
3704.80720,0.00482
3703.77694,0.00540
3702.74669,0.00594
3701.71643,0.00572
3700.68617,0.00498
3699.65591,0.00476
3698.62565,0.00496
3697.59540,0.00493
3696.56514,0.00500
3695.53488,0.00545
3694.50462,0.00579
3693.47437,0.00608
3692.44411,0.00667
3691.41385,0.00710
3690.38359,0.00703
3689.35333,0.00701
3688.32308,0.00739
3687.29282,0.00797
3686.26256,0.00809
3685.23230,0.00783
3684.20205,0.00768
3683.17179,0.00777
3682.14153,0.00809
3681.11127,0.00862
3680.08101,0.00875
3679.05076,0.00810
3678.02050,0.00768
3676.99024,0.00835
3675.95998,0.00983
3674.92972,0.01087
3673.89947,0.01067
3672.86921,0.01012
3671.83895,0.01005
3670.80869,0.01092
3669.77844,0.01196
3668.74818,0.01215
3667.71792,0.01213
3666.68766,0.01246
3665.65740,0.01293
3664.62715,0.01353
3663.59689,0.01416
3662.56663,0.01471
3661.53637,0.01523
3660.50611,0.01561
3659.47586,0.01563
3658.44560,0.01527
3657.41534,0.01503
3656.38508,0.01564
3655.35483,0.01686
3654.32457,0.01748
3653.29431,0.01772
3652.26405,0.01807
3651.23379,0.01876
3650.20354,0.01973
3649.17328,0.02006
3648.14302,0.01941
3647.11276,0.01911
3646.08250,0.02013
3645.05225,0.02118
3644.02199,0.02163
3642.99173,0.02249
3641.96147,0.02372
3640.93122,0.02403
3639.90096,0.02372
3638.87070,0.02396
3637.84044,0.02489
3636.81018,0.02599
3635.77993,0.02670
3634.74967,0.02707
3633.71941,0.02752
3632.68915,0.02792
3631.65890,0.02815
3630.62864,0.02844
3629.59838,0.02887
3628.56812,0.02958
3627.53786,0.03022
3626.50761,0.03035
3625.47735,0.03020
3624.44709,0.03041
3623.41683,0.03110
3622.38657,0.03206
3621.35632,0.03319
3620.32606,0.03392
3619.29580,0.03371
3618.26554,0.03324
3617.23529,0.03350
3616.20503,0.03451
3615.17477,0.03574
3614.14451,0.03668
3613.11425,0.03719
3612.08400,0.03769
3611.05374,0.03858
3610.02348,0.03934
3608.99322,0.03955
3607.96296,0.03999
3606.93271,0.04056
3605.90245,0.04090
3604.87219,0.04165
3603.84193,0.04250
3602.81168,0.04300
3601.78142,0.04348
3600.75116,0.04370
3599.72090,0.04388
3598.69064,0.04468
3597.66039,0.04536
3596.63013,0.04568
3595.59987,0.04632
3594.56961,0.04691
3593.53936,0.04712
3592.50910,0.04779
3591.47884,0.04894
3590.44858,0.04979
3589.41832,0.05052
3588.38807,0.05145
3587.35781,0.05214
3586.32755,0.05276
3585.29729,0.05384
3584.26703,0.05489
3583.23678,0.05555
3582.20652,0.05601
3581.17626,0.05647
3580.14600,0.05708
3579.11575,0.05760
3578.08549,0.05795
3577.05523,0.05887
3576.02497,0.06029
3574.99471,0.06118
3573.96446,0.06145
3572.93420,0.06182
3571.90394,0.06251
3570.87368,0.06329
3569.84342,0.06406
3568.81317,0.06518
3567.78291,0.06662
3566.75265,0.06729
3565.72239,0.06747
3564.69214,0.06835
3563.66188,0.06948
3562.63162,0.07013
3561.60136,0.07091
3560.57110,0.07216
3559.54085,0.07304
3558.51059,0.07358
3557.48033,0.07450
3556.45007,0.07554
3555.41981,0.07629
3554.38956,0.07724
3553.35930,0.07843
3552.32904,0.07923
3551.29878,0.07962
3550.26853,0.08036
3549.23827,0.08176
3548.20801,0.08309
3547.17775,0.08391
3546.14749,0.08453
3545.11724,0.08498
3544.08698,0.08540
3543.05672,0.08619
3542.02646,0.08730
3540.99621,0.08875
3539.96595,0.09008
3538.93569,0.09084
3537.90543,0.09176
3536.87517,0.09307
3535.84492,0.09448
3534.81466,0.09567
3533.78440,0.09629
3532.75414,0.09695
3531.72388,0.09803
3530.69363,0.09918
3529.66337,0.10035
3528.63311,0.10166
3527.60285,0.10307
3526.57260,0.10448
3525.54234,0.10551
3524.51208,0.10611
3523.48182,0.10643
3522.45156,0.10661
3521.42131,0.10726
3520.39105,0.10856
3519.36079,0.11013
3518.33053,0.11162
3517.30027,0.11264
3516.27002,0.11326
3515.23976,0.11395
3514.20950,0.11470
3513.17924,0.11535
3512.14899,0.11668
3511.11873,0.11874
3510.08847,0.12036
3509.05821,0.12149
3508.02795,0.12236
3506.99770,0.12272
3505.96744,0.12301
3504.93718,0.12394
3503.90692,0.12530
3502.87666,0.12627
3501.84641,0.12707
3500.81615,0.12837
3499.78589,0.12982
3498.75563,0.13098
3497.72538,0.13176
3496.69512,0.13243
3495.66486,0.13328
3494.63460,0.13414
3493.60434,0.13503
3492.57409,0.13621
3491.54383,0.13741
3490.51357,0.13855
3489.48331,0.13989
3488.45306,0.14093
3487.42280,0.14127
3486.39254,0.14183
3485.36228,0.14332
3484.33202,0.14495
3483.30177,0.14611
3482.27151,0.14709
3481.24125,0.14786
3480.21099,0.14847
3479.18073,0.14938
3478.15048,0.15041
3477.12022,0.15136
3476.08996,0.15222
3475.05970,0.15294
3474.02945,0.15396
3472.99919,0.15524
3471.96893,0.15639
3470.93867,0.15709
3469.90841,0.15739
3468.87816,0.15798
3467.84790,0.15913
3466.81764,0.16070
3465.78738,0.16227
3464.75712,0.16318
3463.72687,0.16346
3462.69661,0.16384
3461.66635,0.16496
3460.63609,0.16680
3459.60584,0.16866
3458.57558,0.16973
3457.54532,0.17013
3456.51506,0.17074
3455.48480,0.17183
3454.45455,0.17290
3453.42429,0.17368
3452.39403,0.17451
3451.36377,0.17540
3450.33351,0.17611
3449.30326,0.17716
3448.27300,0.17846
3447.24274,0.17908
3446.21248,0.17951
3445.18223,0.18069
3444.15197,0.18189
3443.12171,0.18271
3442.09145,0.18375
3441.06119,0.18514
3440.03094,0.18681
3439.00068,0.18807
3437.97042,0.18843
3436.94016,0.18893
3435.90991,0.18982
3434.87965,0.19045
3433.84939,0.19116
3432.81913,0.19226
3431.78887,0.19324
3430.75862,0.19404
3429.72836,0.19437
3428.69810,0.19465
3427.66784,0.19596
3426.63758,0.19755
3425.60733,0.19845
3424.57707,0.19895
3423.54681,0.19972
3422.51655,0.20113
3421.48630,0.20242
3420.45604,0.20308
3419.42578,0.20369
3418.39552,0.20461
3417.36526,0.20557
3416.33501,0.20623
3415.30475,0.20705
3414.27449,0.20843
3413.24423,0.20967
3412.21397,0.21048
3411.18372,0.21125
3410.15346,0.21188
3409.12320,0.21241
3408.09294,0.21345
3407.06269,0.21517
3406.03243,0.21658
3405.00217,0.21705
3403.97191,0.21735
3402.94165,0.21794
3401.91140,0.21856
3400.88114,0.21912
3399.85088,0.21953
3398.82062,0.22009
3397.79036,0.22068
3396.76011,0.22098
3395.72985,0.22147
3394.69959,0.22243
3393.66933,0.22342
3392.63908,0.22423
3391.60882,0.22496
3390.57856,0.22550
3389.54830,0.22591
3388.51804,0.22651
3387.48779,0.22722
3386.45753,0.22771
3385.42727,0.22802
3384.39701,0.22862
3383.36676,0.22963
3382.33650,0.23065
3381.30624,0.23147
3380.27598,0.23212
3379.24572,0.23257
3378.21547,0.23302
3377.18521,0.23354
3376.15495,0.23399
3375.12469,0.23473
3374.09443,0.23574
3373.06418,0.23613
3372.03392,0.23580
3371.00366,0.23552
3369.97340,0.23580
3368.94315,0.23629
3367.91289,0.23656
3366.88263,0.23735
3365.85237,0.23853
3364.82211,0.23883
3363.79186,0.23865
3362.76160,0.23890
3361.73134,0.23886
3360.70108,0.23849
3359.67082,0.23874
3358.64057,0.23964
3357.61031,0.24046
3356.58005,0.24087
3355.54979,0.24131
3354.51954,0.24177
3353.48928,0.24220
3352.45902,0.24290
3351.42876,0.24331
3350.39850,0.24332
3349.36825,0.24325
3348.33799,0.24311
3347.30773,0.24339
3346.27747,0.24414
3345.24721,0.24479
3344.21696,0.24524
3343.18670,0.24544
3342.15644,0.24543
3341.12618,0.24581
3340.09593,0.24651
3339.06567,0.24687
3338.03541,0.24684
3337.00515,0.24660
3335.97489,0.24665
3334.94464,0.24711
3333.91438,0.24701
3332.88412,0.24628
3331.85386,0.24594
3330.82361,0.24633
3329.79335,0.24698
3328.76309,0.24769
3327.73283,0.24830
3326.70257,0.24808
3325.67232,0.24727
3324.64206,0.24749
3323.61180,0.24862
3322.58154,0.24893
3321.55128,0.24834
3320.52103,0.24779
3319.49077,0.24784
3318.46051,0.24853
3317.43025,0.24956
3316.40000,0.25041
3315.36974,0.25042
3314.33948,0.24970
3313.30922,0.24909
3312.27896,0.24904
3311.24871,0.24940
3310.21845,0.25008
3309.18819,0.25089
3308.15793,0.25133
3307.12767,0.25120
3306.09742,0.25072
3305.06716,0.25053
3304.03690,0.25072
3303.00664,0.25097
3301.97639,0.25155
3300.94613,0.25227
3299.91587,0.25271
3298.88561,0.25262
3297.85535,0.25239
3296.82510,0.25290
3295.79484,0.25363
3294.76458,0.25359
3293.73432,0.25338
3292.70406,0.25377
3291.67381,0.25400
3290.64355,0.25377
3289.61329,0.25391
3288.58303,0.25461
3287.55278,0.25539
3286.52252,0.25568
3285.49226,0.25547
3284.46200,0.25558
3283.43174,0.25626
3282.40149,0.25648
3281.37123,0.25610
3280.34097,0.25624
3279.31071,0.25689
3278.28046,0.25703
3277.25020,0.25644
3276.21994,0.25621
3275.18968,0.25645
3274.15942,0.25626
3273.12917,0.25601
3272.09891,0.25605
3271.06865,0.25609
3270.03839,0.25640
3269.00813,0.25726
3267.97788,0.25789
3266.94762,0.25787
3265.91736,0.25816
3264.88710,0.25888
3263.85685,0.25916
3262.82659,0.25893
3261.79633,0.25847
3260.76607,0.25822
3259.73581,0.25882
3258.70556,0.25971
3257.67530,0.25995
3256.64504,0.26001
3255.61478,0.26041
3254.58452,0.26080
3253.55427,0.26069
3252.52401,0.26011
3251.49375,0.26002
3250.46349,0.26026
3249.43324,0.25980
3248.40298,0.25905
3247.37272,0.25901
3246.34246,0.25995
3245.31220,0.26116
3244.28195,0.26165
3243.25169,0.26144
3242.22143,0.26093
3241.19117,0.26006
3240.16092,0.25964
3239.13066,0.26004
3238.10040,0.26027
3237.07014,0.26025
3236.03988,0.26009
3235.00963,0.25952
3233.97937,0.25881
3232.94911,0.25841
3231.91885,0.25860
3230.88859,0.25900
3229.85834,0.25924
3228.82808,0.25949
3227.79782,0.25977
3226.76756,0.25991
3225.73731,0.25976
3224.70705,0.25967
3223.67679,0.26007
3222.64653,0.26032
3221.61627,0.25997
3220.58602,0.25976
3219.55576,0.25960
3218.52550,0.25908
3217.49524,0.25854
3216.46498,0.25799
3215.43473,0.25786
3214.40447,0.25864
3213.37421,0.25907
3212.34395,0.25839
3211.31370,0.25782
3210.28344,0.25788
3209.25318,0.25803
3208.22292,0.25775
3207.19266,0.25707
3206.16241,0.25654
3205.13215,0.25617
3204.10189,0.25589
3203.07163,0.25572
3202.04137,0.25546
3201.01112,0.25545
3199.98086,0.25575
3198.95060,0.25553
3197.92034,0.25486
3196.89009,0.25456
3195.85983,0.25491
3194.82957,0.25556
3193.79931,0.25571
3192.76905,0.25508
3191.73880,0.25430
3190.70854,0.25391
3189.67828,0.25369
3188.64802,0.25326
3187.61777,0.25287
3186.58751,0.25261
3185.55725,0.25223
3184.52699,0.25195
3183.49673,0.25165
3182.46648,0.25103
3181.43622,0.25056
3180.40596,0.25022
3179.37570,0.24979
3178.34544,0.24972
3177.31519,0.24986
3176.28493,0.24966
3175.25467,0.24933
3174.22441,0.24912
3173.19416,0.24874
3172.16390,0.24801
3171.13364,0.24752
3170.10338,0.24707
3169.07312,0.24626
3168.04287,0.24591
3167.01261,0.24598
3165.98235,0.24588
3164.95209,0.24602
3163.92183,0.24609
3162.89158,0.24545
3161.86132,0.24477
3160.83106,0.24445
3159.80080,0.24404
3158.77055,0.24375
3157.74029,0.24331
3156.71003,0.24225
3155.67977,0.24146
3154.64951,0.24112
3153.61926,0.24067
3152.58900,0.24020
3151.55874,0.23990
3150.52848,0.23996
3149.49822,0.24021
3148.46797,0.23999
3147.43771,0.23931
3146.40745,0.23887
3145.37719,0.23836
3144.34694,0.23749
3143.31668,0.23708
3142.28642,0.23716
3141.25616,0.23679
3140.22590,0.23591
3139.19565,0.23519
3138.16539,0.23466
3137.13513,0.23419
3136.10487,0.23385
3135.07462,0.23348
3134.04436,0.23319
3133.01410,0.23324
3131.98384,0.23306
3130.95358,0.23217
3129.92333,0.23152
3128.89307,0.23160
3127.86281,0.23146
3126.83255,0.23071
3125.80229,0.23017
3124.77204,0.23022
3123.74178,0.23007
3122.71152,0.22934
3121.68126,0.22849
3120.65101,0.22793
3119.62075,0.22761
3118.59049,0.22708
3117.56023,0.22648
3116.52997,0.22604
3115.49972,0.22545
3114.46946,0.22491
3113.43920,0.22462
3112.40894,0.22435
3111.37868,0.22396
3110.34843,0.22300
3109.31817,0.22173
3108.28791,0.22095
3107.25765,0.22057
3106.22740,0.22042
3105.19714,0.22033
3104.16688,0.21973
3103.13662,0.21901
3102.10636,0.21864
3101.07611,0.21814
3100.04585,0.21767
3099.01559,0.21760
3097.98533,0.21747
3096.95507,0.21706
3095.92482,0.21648
3094.89456,0.21588
3093.86430,0.21566
3092.83404,0.21571
3091.80379,0.21518
3090.77353,0.21378
3089.74327,0.21253
3088.71301,0.21243
3087.68275,0.21297
3086.65250,0.21298
3085.62224,0.21223
3084.59198,0.21124
3083.56172,0.21044
3082.53147,0.20994
3081.50121,0.20964
3080.47095,0.20906
3079.44069,0.20813
3078.41043,0.20761
3077.38018,0.20739
3076.34992,0.20692
3075.31966,0.20638
3074.28940,0.20590
3073.25914,0.20536
3072.22889,0.20502
3071.19863,0.20479
3070.16837,0.20403
3069.13811,0.20284
3068.10786,0.20200
3067.07760,0.20185
3066.04734,0.20211
3065.01708,0.20215
3063.98682,0.20167
3062.95657,0.20104
3061.92631,0.20031
3060.89605,0.19950
3059.86579,0.19907
3058.83553,0.19883
3057.80528,0.19834
3056.77502,0.19778
3055.74476,0.19711
3054.71450,0.19640
3053.68425,0.19592
3052.65399,0.19547
3051.62373,0.19508
3050.59347,0.19499
3049.56321,0.19514
3048.53296,0.19514
3047.50270,0.19476
3046.47244,0.19439
3045.44218,0.19418
3044.41192,0.19384
3043.38167,0.19306
3042.35141,0.19218
3041.32115,0.19211
3040.29089,0.19271
3039.26064,0.19313
3038.23038,0.19284
3037.20012,0.19189
3036.16986,0.19106
3035.13960,0.19065
3034.10935,0.19063
3033.07909,0.19075
3032.04883,0.19066
3031.01857,0.19049
3029.98832,0.19017
3028.95806,0.18969
3027.92780,0.18933
3026.89754,0.18910
3025.86728,0.18884
3024.83703,0.18819
3023.80677,0.18723
3022.77651,0.18627
3021.74625,0.18518
3020.71599,0.18408
3019.68574,0.18344
3018.65548,0.18304
3017.62522,0.18231
3016.59496,0.18124
3015.56471,0.18024
3014.53445,0.17926
3013.50419,0.17801
3012.47393,0.17683
3011.44367,0.17618
3010.41342,0.17584
3009.38316,0.17538
3008.35290,0.17473
3007.32264,0.17402
3006.29238,0.17318
3005.26213,0.17200
3004.23187,0.17079
3003.20161,0.17019
3002.17135,0.17012
3001.14110,0.16988
3000.11084,0.16915
2999.08058,0.16789
2998.05032,0.16661
2997.02006,0.16600
2995.98981,0.16583
2994.95955,0.16564
2993.92929,0.16503
2992.89903,0.16390
2991.86877,0.16311
2990.83852,0.16298
2989.80826,0.16258
2988.77800,0.16168
2987.74774,0.16091
2986.71749,0.16028
2985.68723,0.15957
2984.65697,0.15916
2983.62671,0.15914
2982.59645,0.15890
2981.56620,0.15832
2980.53594,0.15749
2979.50568,0.15668
2978.47542,0.15660
2977.44517,0.15670
2976.41491,0.15629
2975.38465,0.15593
2974.35439,0.15601
2973.32413,0.15631
2972.29388,0.15662
2971.26362,0.15693
2970.23336,0.15695
2969.20310,0.15662
2968.17284,0.15648
2967.14259,0.15683
2966.11233,0.15712
2965.08207,0.15694
2964.05181,0.15689
2963.02156,0.15719
2961.99130,0.15728
2960.96104,0.15690
2959.93078,0.15626
2958.90052,0.15564
2957.87027,0.15516
2956.84001,0.15467
2955.80975,0.15371
2954.77949,0.15221
2953.74923,0.15066
2952.71898,0.14967
2951.68872,0.14906
2950.65846,0.14809
2949.62820,0.14654
2948.59795,0.14491
2947.56769,0.14395
2946.53743,0.14351
2945.50717,0.14299
2944.47691,0.14216
2943.44666,0.14099
2942.41640,0.13964
2941.38614,0.13848
2940.35588,0.13745
2939.32562,0.13648
2938.29537,0.13572
2937.26511,0.13502
2936.23485,0.13444
2935.20459,0.13397
2934.17434,0.13322
2933.14408,0.13227
2932.11382,0.13149
2931.08356,0.13118
2930.05330,0.13094
2929.02305,0.13015
2927.99279,0.12901
2926.96253,0.12806
2925.93227,0.12741
2924.90202,0.12682
2923.87176,0.12632
2922.84150,0.12603
2921.81124,0.12548
2920.78098,0.12480
2919.75073,0.12439
2918.72047,0.12363
2917.69021,0.12253
2916.65995,0.12201
2915.62969,0.12180
2914.59944,0.12138
2913.56918,0.12084
2912.53892,0.12008
2911.50866,0.11924
2910.47841,0.11861
2909.44815,0.11790
2908.41789,0.11715
2907.38763,0.11670
2906.35737,0.11626
2905.32712,0.11545
2904.29686,0.11444
2903.26660,0.11343
2902.23634,0.11273
2901.20608,0.11241
2900.17583,0.11201
2899.14557,0.11153
2898.11531,0.11133
2897.08505,0.11104
2896.05480,0.11028
2895.02454,0.10941
2893.99428,0.10852
2892.96402,0.10750
2891.93376,0.10681
2890.90351,0.10664
2889.87325,0.10659
2888.84299,0.10624
2887.81273,0.10560
2886.78247,0.10520
2885.75222,0.10474
2884.72196,0.10380
2883.69170,0.10291
2882.66144,0.10238
2881.63119,0.10190
2880.60093,0.10138
2879.57067,0.10091
2878.54041,0.10051
2877.51015,0.10009
2876.47990,0.09961
2875.44964,0.09917
2874.41938,0.09854
2873.38912,0.09771
2872.35887,0.09704
2871.32861,0.09641
2870.29835,0.09580
2869.26809,0.09548
2868.23783,0.09537
2867.20758,0.09503
2866.17732,0.09412
2865.14706,0.09317
2864.11680,0.09282
2863.08654,0.09287
2862.05629,0.09246
2861.02603,0.09150
2859.99577,0.09068
2858.96551,0.09023
2857.93526,0.08977
2856.90500,0.08895
2855.87474,0.08797
2854.84448,0.08748
2853.81422,0.08754
2852.78397,0.08739
2851.75371,0.08681
2850.72345,0.08617
2849.69319,0.08558
2848.66293,0.08503
2847.63268,0.08477
2846.60242,0.08487
2845.57216,0.08481
2844.54190,0.08435
2843.51165,0.08377
2842.48139,0.08304
2841.45113,0.08216
2840.42087,0.08129
2839.39061,0.08067
2838.36036,0.08042
2837.33010,0.07996
2836.29984,0.07929
2835.26958,0.07895
2834.23933,0.07870
2833.20907,0.07829
2832.17881,0.07764
2831.14855,0.07678
2830.11829,0.07609
2829.08804,0.07571
2828.05778,0.07539
2827.02752,0.07503
2825.99726,0.07461
2824.96700,0.07401
2823.93675,0.07327
2822.90649,0.07277
2821.87623,0.07266
2820.84597,0.07270
2819.81572,0.07244
2818.78546,0.07187
2817.75520,0.07126
2816.72494,0.07062
2815.69468,0.07022
2814.66443,0.07015
2813.63417,0.07001
2812.60391,0.06964
2811.57365,0.06919
2810.54339,0.06866
2809.51314,0.06794
2808.48288,0.06722
2807.45262,0.06674
2806.42236,0.06632
2805.39211,0.06581
2804.36185,0.06522
2803.33159,0.06478
2802.30133,0.06473
2801.27107,0.06468
2800.24082,0.06442
2799.21056,0.06421
2798.18030,0.06381
2797.15004,0.06308
2796.11978,0.06269
2795.08953,0.06274
2794.05927,0.06254
2793.02901,0.06183
2791.99875,0.06102
2790.96850,0.06058
2789.93824,0.06041
2788.90798,0.06029
2787.87772,0.06019
2786.84746,0.05995
2785.81721,0.05946
2784.78695,0.05893
2783.75669,0.05854
2782.72643,0.05818
2781.69618,0.05775
2780.66592,0.05724
2779.63566,0.05665
2778.60540,0.05615
2777.57514,0.05589
2776.54489,0.05562
2775.51463,0.05524
2774.48437,0.05508
2773.45411,0.05502
2772.42385,0.05477
2771.39360,0.05442
2770.36334,0.05382
2769.33308,0.05315
2768.30282,0.05278
2767.27257,0.05244
2766.24231,0.05207
2765.21205,0.05190
2764.18179,0.05177
2763.15153,0.05152
2762.12128,0.05112
2761.09102,0.05058
2760.06076,0.05008
2759.03050,0.04964
2758.00024,0.04927
2756.96999,0.04908
2755.93973,0.04909
2754.90947,0.04911
2753.87921,0.04892
2752.84896,0.04867
2751.81870,0.04836
2750.78844,0.04782
2749.75818,0.04726
2748.72792,0.04692
2747.69767,0.04670
2746.66741,0.04658
2745.63715,0.04636
2744.60689,0.04602
2743.57663,0.04587
2742.54638,0.04581
2741.51612,0.04564
2740.48586,0.04535
2739.45560,0.04501
2738.42535,0.04470
2737.39509,0.04438
2736.36483,0.04411
2735.33457,0.04394
2734.30431,0.04371
2733.27406,0.04338
2732.24380,0.04295
2731.21354,0.04266
2730.18328,0.04273
2729.15303,0.04271
2728.12277,0.04224
2727.09251,0.04161
2726.06225,0.04133
2725.03199,0.04139
2724.00174,0.04135
2722.97148,0.04096
2721.94122,0.04039
2720.91096,0.04002
2719.88070,0.03975
2718.85045,0.03955
2717.82019,0.03963
2716.78993,0.03970
2715.75967,0.03952
2714.72942,0.03921
2713.69916,0.03893
2712.66890,0.03883
2711.63864,0.03874
2710.60838,0.03852
2709.57813,0.03833
2708.54787,0.03824
2707.51761,0.03797
2706.48735,0.03766
2705.45709,0.03756
2704.42684,0.03725
2703.39658,0.03672
2702.36632,0.03635
2701.33606,0.03603
2700.30581,0.03574
2699.27555,0.03569
2698.24529,0.03575
2697.21503,0.03555
2696.18477,0.03521
2695.15452,0.03499
2694.12426,0.03482
2693.09400,0.03461
2692.06374,0.03432
2691.03348,0.03397
2690.00323,0.03371
2688.97297,0.03366
2687.94271,0.03364
2686.91245,0.03339
2685.88220,0.03306
2684.85194,0.03289
2683.82168,0.03270
2682.79142,0.03241
2681.76116,0.03231
2680.73091,0.03235
2679.70065,0.03232
2678.67039,0.03214
2677.64013,0.03176
2676.60988,0.03148
2675.57962,0.03131
2674.54936,0.03108
2673.51910,0.03101
2672.48884,0.03102
2671.45859,0.03075
2670.42833,0.03029
2669.39807,0.02997
2668.36781,0.02985
2667.33755,0.02973
2666.30730,0.02966
2665.27704,0.02973
2664.24678,0.02955
2663.21652,0.02909
2662.18627,0.02877
2661.15601,0.02858
2660.12575,0.02839
2659.09549,0.02832
2658.06523,0.02833
2657.03498,0.02810
2656.00472,0.02769
2654.97446,0.02743
2653.94420,0.02728
2652.91394,0.02719
2651.88369,0.02720
2650.85343,0.02720
2649.82317,0.02711
2648.79291,0.02704
2647.76266,0.02692
2646.73240,0.02658
2645.70214,0.02621
2644.67188,0.02614
2643.64162,0.02631
2642.61137,0.02627
2641.58111,0.02587
2640.55085,0.02542
2639.52059,0.02519
2638.49033,0.02518
2637.46008,0.02509
2636.42982,0.02483
2635.39956,0.02469
2634.36930,0.02482
2633.33905,0.02494
2632.30879,0.02457
2631.27853,0.02406
2630.24827,0.02397
2629.21801,0.02408
2628.18776,0.02408
2627.15750,0.02390
2626.12724,0.02354
2625.09698,0.02330
2624.06673,0.02328
2623.03647,0.02321
2622.00621,0.02314
2620.97595,0.02313
2619.94569,0.02287
2618.91544,0.02243
2617.88518,0.02220
2616.85492,0.02225
2615.82466,0.02262
2614.79440,0.02288
2613.76415,0.02265
2612.73389,0.02239
2611.70363,0.02234
2610.67337,0.02245
2609.64312,0.02255
2608.61286,0.02232
2607.58260,0.02190
2606.55234,0.02167
2605.52208,0.02173
2604.49183,0.02175
2603.46157,0.02145
2602.43131,0.02110
2601.40105,0.02122
2600.37079,0.02152
2599.34054,0.02161
2598.31028,0.02153
2597.28002,0.02128
2596.24976,0.02111
2595.21951,0.02120
2594.18925,0.02119
2593.15899,0.02069
2592.12873,0.02031
2591.09847,0.02044
2590.06822,0.02067
2589.03796,0.02072
2588.00770,0.02036
2586.97744,0.01996
2585.94718,0.02015
2584.91693,0.02081
2583.88667,0.02136
2582.85641,0.02158
2581.82615,0.02176
2580.79590,0.02175
2579.76564,0.02128
2578.73538,0.02098
2577.70512,0.02117
2576.67486,0.02108
2575.64461,0.02054
2574.61435,0.02040
2573.58409,0.02051
2572.55383,0.02009
2571.52358,0.01961
2570.49332,0.01968
2569.46306,0.02003
2568.43280,0.02034
2567.40254,0.02047
2566.37229,0.02037
2565.34203,0.01993
2564.31177,0.01931
2563.28151,0.01902
2562.25125,0.01891
2561.22100,0.01890
2560.19074,0.01924
2559.16048,0.01970
2558.13022,0.01992
2557.09997,0.01998
2556.06971,0.02012
2555.03945,0.02023
2554.00919,0.02017
2552.97893,0.01996
2551.94868,0.01979
2550.91842,0.01966
2549.88816,0.01927
2548.85790,0.01910
2547.82764,0.01959
2546.79739,0.02003
2545.76713,0.01977
2544.73687,0.01924
2543.70661,0.01897
2542.67636,0.01898
2541.64610,0.01942
2540.61584,0.02012
2539.58558,0.02045
2538.55532,0.02004
2537.52507,0.01933
2536.49481,0.01915
2535.46455,0.01912
2534.43429,0.01882
2533.40403,0.01891
2532.37378,0.01904
2531.34352,0.01882
2530.31326,0.01902
2529.28300,0.01973
2528.25275,0.02012
2527.22249,0.01976
2526.19223,0.01921
2525.16197,0.01915
2524.13171,0.01932
2523.10146,0.01944
2522.07120,0.01964
2521.04094,0.01973
2520.01068,0.01972
2518.98043,0.01975
2517.95017,0.01991
2516.91991,0.02001
2515.88965,0.01974
2514.85939,0.01952
2513.82914,0.01972
2512.79888,0.01999
2511.76862,0.01994
2510.73836,0.01983
2509.70810,0.01981
2508.67785,0.01958
2507.64759,0.01910
2506.61733,0.01869
2505.58707,0.01888
2504.55682,0.01947
2503.52656,0.01957
2502.49630,0.01938
2501.46604,0.01940
2500.43578,0.01922
2499.40553,0.01892
2498.37527,0.01898
2497.34501,0.01914
2496.31475,0.01909
2495.28449,0.01904
2494.25424,0.01890
2493.22398,0.01869
2492.19372,0.01863
2491.16346,0.01847
2490.13321,0.01810
2489.10295,0.01772
2488.07269,0.01751
2487.04243,0.01758
2486.01217,0.01804
2484.98192,0.01850
2483.95166,0.01870
2482.92140,0.01889
2481.89114,0.01870
2480.86088,0.01817
2479.83063,0.01781
2478.80037,0.01730
2477.77011,0.01675
2476.73985,0.01706
2475.70960,0.01779
2474.67934,0.01774
2473.64908,0.01750
2472.61882,0.01794
2471.58856,0.01838
2470.55831,0.01818
2469.52805,0.01788
2468.49779,0.01781
2467.46753,0.01783
2466.43728,0.01821
2465.40702,0.01897
2464.37676,0.01958
2463.34650,0.01966
2462.31624,0.01965
2461.28599,0.01969
2460.25573,0.01922
2459.22547,0.01877
2458.19521,0.01904
2457.16495,0.01934
2456.13470,0.01902
2455.10444,0.01857
2454.07418,0.01838
2453.04392,0.01816
2452.01367,0.01814
2450.98341,0.01858
2449.95315,0.01921
2448.92289,0.01961
2447.89263,0.01940
2446.86238,0.01879
2445.83212,0.01858
2444.80186,0.01876
2443.77160,0.01877
2442.74134,0.01874
2441.71109,0.01867
2440.68083,0.01872
2439.65057,0.01901
2438.62031,0.01908
2437.59006,0.01923
2436.55980,0.01970
2435.52954,0.01975
2434.49928,0.01943
2433.46902,0.01934
2432.43877,0.01950
2431.40851,0.01983
2430.37825,0.02000
2429.34799,0.01980
2428.31774,0.01969
2427.28748,0.01969
2426.25722,0.01931
2425.22696,0.01920
2424.19670,0.01994
2423.16645,0.02061
2422.13619,0.02066
2421.10593,0.02044
2420.07567,0.02029
2419.04541,0.02015
2418.01516,0.02009
2416.98490,0.02066
2415.95464,0.02158
2414.92438,0.02184
2413.89413,0.02139
2412.86387,0.02112
2411.83361,0.02123
2410.80335,0.02124
2409.77309,0.02087
2408.74284,0.02027
2407.71258,0.01992
2406.68232,0.01999
2405.65206,0.02038
2404.62180,0.02089
2403.59155,0.02116
2402.56129,0.02121
2401.53103,0.02114
2400.50077,0.02090
2399.47052,0.02065
2398.44026,0.02072
2397.41000,0.02104
2396.37974,0.02133
2395.34948,0.02150
2394.31923,0.02152
2393.28897,0.02138
2392.25871,0.02152
2391.22845,0.02221
2390.19819,0.02301
2389.16794,0.02319
2388.13768,0.02282
2387.10742,0.02261
2386.07716,0.02262
2385.04691,0.02252
2384.01665,0.02224
2382.98639,0.02195
2381.95613,0.02213
2380.92587,0.02253
2379.89562,0.02235
2378.86536,0.02197
2377.83510,0.02198
2376.80484,0.02202
2375.77459,0.02220
2374.74433,0.02286
2373.71407,0.02342
2372.68381,0.02362
2371.65355,0.02392
2370.62330,0.02423
2369.59304,0.02435
2368.56278,0.02452
2367.53252,0.02461
2366.50226,0.02475
2365.47201,0.02536
2364.44175,0.02499
2363.41149,0.02356
2362.38123,0.02348
2361.35098,0.02432
2360.32072,0.02487
2359.29046,0.02585
2358.26020,0.02683
2357.22994,0.02680
2356.19969,0.02629
2355.16943,0.02647
2354.13917,0.02705
2353.10891,0.02626
2352.07865,0.02472
2351.04840,0.02443
2350.01814,0.02505
2348.98788,0.02557
2347.95762,0.02612
2346.92737,0.02676
2345.89711,0.02694
2344.86685,0.02652
2343.83659,0.02588
2342.80633,0.02574
2341.77608,0.02659
2340.74582,0.02732
2339.71556,0.02706
2338.68530,0.02645
2337.65504,0.02610
2336.62479,0.02598
2335.59453,0.02602
2334.56427,0.02627
2333.53401,0.02636
2332.50376,0.02631
2331.47350,0.02679
2330.44324,0.02748
2329.41298,0.02749
2328.38272,0.02701
2327.35247,0.02662
2326.32221,0.02673
2325.29195,0.02740
2324.26169,0.02763
2323.23144,0.02719
2322.20118,0.02731
2321.17092,0.02776
2320.14066,0.02745
2319.11040,0.02686
2318.08015,0.02669
2317.04989,0.02678
2316.01963,0.02697
2314.98937,0.02719
2313.95911,0.02728
2312.92886,0.02739
2311.89860,0.02785
2310.86834,0.02805
2309.83808,0.02743
2308.80783,0.02683
2307.77757,0.02667
2306.74731,0.02660
2305.71705,0.02668
2304.68679,0.02681
2303.65654,0.02680
2302.62628,0.02705
2301.59602,0.02739
2300.56576,0.02782
2299.53550,0.02831
2298.50525,0.02787
2297.47499,0.02724
2296.44473,0.02764
2295.41447,0.02820
2294.38422,0.02801
2293.35396,0.02745
2292.32370,0.02715
2291.29344,0.02738
2290.26318,0.02832
2289.23293,0.02913
2288.20267,0.02843
2287.17241,0.02713
2286.14215,0.02674
2285.11189,0.02701
2284.08164,0.02758
2283.05138,0.02823
2282.02112,0.02812
2280.99086,0.02753
2279.96061,0.02750
2278.93035,0.02776
2277.90009,0.02763
2276.86983,0.02708
2275.83957,0.02680
2274.80932,0.02709
2273.77906,0.02727
2272.74880,0.02730
2271.71854,0.02749
2270.68829,0.02784
2269.65803,0.02808
2268.62777,0.02767
2267.59751,0.02746
2266.56725,0.02839
2265.53700,0.02936
2264.50674,0.02937
2263.47648,0.02883
2262.44622,0.02792
2261.41596,0.02730
2260.38571,0.02777
2259.35545,0.02826
2258.32519,0.02792
2257.29493,0.02753
2256.26468,0.02739
2255.23442,0.02747
2254.20416,0.02803
2253.17390,0.02847
2252.14364,0.02833
2251.11339,0.02858
2250.08313,0.02923
2249.05287,0.02891
2248.02261,0.02781
2246.99235,0.02740
2245.96210,0.02805
2244.93184,0.02881
2243.90158,0.02887
2242.87132,0.02847
2241.84107,0.02859
2240.81081,0.02934
2239.78055,0.02998
2238.75029,0.03064
2237.72003,0.03103
2236.68978,0.03020
2235.65952,0.02940
2234.62926,0.03021
2233.59900,0.03122
2232.56874,0.03070
2231.53849,0.03007
2230.50823,0.03046
2229.47797,0.03013
2228.44771,0.02879
2227.41746,0.02848
2226.38720,0.02954
2225.35694,0.03038
2224.32668,0.03068
2223.29642,0.03104
2222.26617,0.03124
2221.23591,0.03129
2220.20565,0.03114
2219.17539,0.03079
2218.14514,0.03057
2217.11488,0.03068
2216.08462,0.03053
2215.05436,0.02860
2214.02410,0.02608
2212.99385,0.02600
2211.96359,0.02800
2210.93333,0.02984
2209.90307,0.03068
2208.87281,0.02978
2207.84256,0.02816
2206.81230,0.02816
2205.78204,0.02930
2204.75178,0.03056
2203.72153,0.03198
2202.69127,0.03296
2201.66101,0.03319
2200.63075,0.03216
2199.60049,0.03005
2198.57024,0.02931
2197.53998,0.03006
2196.50972,0.03021
2195.47946,0.02944
2194.44920,0.02836
2193.41895,0.02808
2192.38869,0.02902
2191.35843,0.03005
2190.32817,0.03081
2189.29792,0.03134
2188.26766,0.03203
2187.23740,0.03274
2186.20714,0.03112
2185.17688,0.02834
2184.14663,0.02861
2183.11637,0.03113
2182.08611,0.03275
2181.05585,0.03160
2180.02559,0.02886
2178.99534,0.02881
2177.96508,0.03068
2176.93482,0.03107
2175.90456,0.03026
2174.87431,0.02946
2173.84405,0.02881
2172.81379,0.02814
2171.78353,0.02857
2170.75327,0.03011
2169.72302,0.03103
2168.69276,0.03098
2167.66250,0.03021
2166.63224,0.02920
2165.60199,0.02979
2164.57173,0.03172
2163.54147,0.03265
2162.51121,0.03216
2161.48095,0.03136
2160.45070,0.03078
2159.42044,0.02859
2158.39018,0.02454
2157.35992,0.02259
2156.32966,0.02408
2155.29941,0.02613
2154.26915,0.02730
2153.23889,0.02807
2152.20863,0.02848
2151.17838,0.02818
2150.14812,0.02773
2149.11786,0.02805
2148.08760,0.02826
2147.05734,0.02778
2146.02709,0.02727
2144.99683,0.02677
2143.96657,0.02654
2142.93631,0.02694
2141.90605,0.02717
2140.87580,0.02658
2139.84554,0.02641
2138.81528,0.02725
2137.78502,0.02729
2136.75477,0.02591
2135.72451,0.02487
2134.69425,0.02466
2133.66399,0.02436
2132.63373,0.02363
2131.60348,0.02351
2130.57322,0.02448
2129.54296,0.02485
2128.51270,0.02467
2127.48244,0.02504
2126.45219,0.02514
2125.42193,0.02466
2124.39167,0.02449
2123.36141,0.02568
2122.33116,0.02718
2121.30090,0.02638
2120.27064,0.02447
2119.24038,0.02394
2118.21012,0.02409
2117.17987,0.02412
2116.14961,0.02407
2115.11935,0.02383
2114.08909,0.02343
2113.05884,0.02292
2112.02858,0.02259
2110.99832,0.02237
2109.96806,0.02215
2108.93780,0.02261
2107.90755,0.02318
2106.87729,0.02268
2105.84703,0.02210
2104.81677,0.02232
2103.78651,0.02253
2102.75626,0.02224
2101.72600,0.02223
2100.69574,0.02287
2099.66548,0.02305
2098.63523,0.02226
2097.60497,0.02153
2096.57471,0.02184
2095.54445,0.02276
2094.51419,0.02323
2093.48394,0.02289
2092.45368,0.02165
2091.42342,0.02092
2090.39316,0.02204
2089.36290,0.02298
2088.33265,0.02243
2087.30239,0.02148
2086.27213,0.02097
2085.24187,0.02116
2084.21162,0.02127
2083.18136,0.02041
2082.15110,0.01930
2081.12084,0.01925
2080.09058,0.01997
2079.06033,0.02071
2078.03007,0.02160
2076.99981,0.02168
2075.96955,0.02029
2074.93930,0.01923
2073.90904,0.01960
2072.87878,0.02062
2071.84852,0.02177
2070.81826,0.02193
2069.78801,0.02054
2068.75775,0.01957
2067.72749,0.01989
2066.69723,0.01968
2065.66697,0.01813
2064.63672,0.01672
2063.60646,0.01657
2062.57620,0.01739
2061.54594,0.01825
2060.51569,0.01820
2059.48543,0.01792
2058.45517,0.01817
2057.42491,0.01815
2056.39465,0.01799
2055.36440,0.01864
2054.33414,0.01949
2053.30388,0.02006
2052.27362,0.02046
2051.24336,0.01994
2050.21311,0.01835
2049.18285,0.01659
2048.15259,0.01629
2047.12233,0.01780
2046.09208,0.01949
2045.06182,0.02036
2044.03156,0.02012
2043.00130,0.01942
2041.97104,0.01918
2040.94079,0.01891
2039.91053,0.01833
2038.88027,0.01780
2037.85001,0.01771
2036.81975,0.01833
2035.78950,0.01887
2034.75924,0.01936
2033.72898,0.01959
2032.69872,0.01881
2031.66847,0.01867
2030.63821,0.01957
2029.60795,0.01919
2028.57769,0.01602
2027.54743,0.01329
2026.51718,0.01450
2025.48692,0.01670
2024.45666,0.01731
2023.42640,0.01760
2022.39615,0.01800
2021.36589,0.01785
2020.33563,0.01758
2019.30537,0.01732
2018.27511,0.01610
2017.24486,0.01501
2016.21460,0.01533
2015.18434,0.01492
2014.15408,0.01363
2013.12382,0.01455
2012.09357,0.01664
2011.06331,0.01676
2010.03305,0.01629
2009.00279,0.01775
2007.97254,0.01867
2006.94228,0.01702
2005.91202,0.01567
2004.88176,0.01604
2003.85150,0.01680
2002.82125,0.01656
2001.79099,0.01579
2000.76073,0.01514
1999.73047,0.01452
1998.70021,0.01472
1997.66996,0.01557
1996.63970,0.01689
1995.60944,0.01769
1994.57918,0.01684
1993.54893,0.01544
1992.51867,0.01475
1991.48841,0.01464
1990.45815,0.01428
1989.42789,0.01410
1988.39764,0.01456
1987.36738,0.01455
1986.33712,0.01409
1985.30686,0.01452
1984.27660,0.01520
1983.24635,0.01526
1982.21609,0.01515
1981.18583,0.01470
1980.15557,0.01416
1979.12532,0.01388
1978.09506,0.01314
1977.06480,0.01243
1976.03454,0.01301
1975.00428,0.01394
1973.97403,0.01443
1972.94377,0.01493
1971.91351,0.01491
1970.88325,0.01417
1969.85300,0.01411
1968.82274,0.01547
1967.79248,0.01700
1966.76222,0.01739
1965.73196,0.01712
1964.70171,0.01702
1963.67145,0.01593
1962.64119,0.01366
1961.61093,0.01253
1960.58067,0.01334
1959.55042,0.01491
1958.52016,0.01616
1957.48990,0.01670
1956.45964,0.01665
1955.42939,0.01543
1954.39913,0.01341
1953.36887,0.01276
1952.33861,0.01335
1951.30835,0.01403
1950.27810,0.01470
1949.24784,0.01446
1948.21758,0.01348
1947.18732,0.01319
1946.15706,0.01339
1945.12681,0.01340
1944.09655,0.01361
1943.06629,0.01457
1942.03603,0.01574
1941.00578,0.01621
1939.97552,0.01585
1938.94526,0.01448
1937.91500,0.01336
1936.88474,0.01399
1935.85449,0.01501
1934.82423,0.01495
1933.79397,0.01399
1932.76371,0.01331
1931.73345,0.01396
1930.70320,0.01508
1929.67294,0.01552
1928.64268,0.01557
1927.61242,0.01550
1926.58217,0.01518
1925.55191,0.01483
1924.52165,0.01435
1923.49139,0.01367
1922.46113,0.01352
1921.43088,0.01449
1920.40062,0.01571
1919.37036,0.01552
1918.34010,0.01383
1917.30985,0.01288
1916.27959,0.01358
1915.24933,0.01416
1914.21907,0.01408
1913.18881,0.01420
1912.15856,0.01443
1911.12830,0.01449
1910.09804,0.01489
1909.06778,0.01552
1908.03752,0.01562
1907.00727,0.01528
1905.97701,0.01514
1904.94675,0.01541
1903.91649,0.01572
1902.88624,0.01604
1901.85598,0.01648
1900.82572,0.01694
1899.79546,0.01737
1898.76520,0.01744
1897.73495,0.01706
1896.70469,0.01697
1895.67443,0.01743
1894.64417,0.01765
1893.61391,0.01734
1892.58366,0.01721
1891.55340,0.01775
1890.52314,0.01817
1889.49288,0.01770
1888.46263,0.01745
1887.43237,0.01804
1886.40211,0.01853
1885.37185,0.01861
1884.34159,0.01833
1883.31134,0.01782
1882.28108,0.01799
1881.25082,0.01868
1880.22056,0.01904
1879.19030,0.01920
1878.16005,0.01894
1877.12979,0.01828
1876.09953,0.01810
1875.06927,0.01819
1874.03902,0.01800
1873.00876,0.01794
1871.97850,0.01777
1870.94824,0.01722
1869.91798,0.01696
1868.88773,0.01703
1867.85747,0.01696
1866.82721,0.01692
1865.79695,0.01698
1864.76670,0.01707
1863.73644,0.01728
1862.70618,0.01737
1861.67592,0.01714
1860.64566,0.01691
1859.61541,0.01693
1858.58515,0.01692
1857.55489,0.01658
1856.52463,0.01632
1855.49437,0.01660
1854.46412,0.01689
1853.43386,0.01662
1852.40360,0.01628
1851.37334,0.01628
1850.34309,0.01654
1849.31283,0.01715
1848.28257,0.01772
1847.25231,0.01770
1846.22205,0.01738
1845.19180,0.01736
1844.16154,0.01777
1843.13128,0.01781
1842.10102,0.01733
1841.07076,0.01687
1840.04051,0.01673
1839.01025,0.01700
1837.97999,0.01737
1836.94973,0.01743
1835.91948,0.01727
1834.88922,0.01715
1833.85896,0.01701
1832.82870,0.01695
1831.79844,0.01709
1830.76819,0.01712
1829.73793,0.01692
1828.70767,0.01698
1827.67741,0.01738
1826.64715,0.01781
1825.61690,0.01807
1824.58664,0.01793
1823.55638,0.01778
1822.52612,0.01809
1821.49587,0.01838
1820.46561,0.01825
1819.43535,0.01799
1818.40509,0.01789
1817.37483,0.01810
1816.34458,0.01841
1815.31432,0.01835
1814.28406,0.01820
1813.25380,0.01833
1812.22355,0.01854
1811.19329,0.01872
1810.16303,0.01906
1809.13277,0.01947
1808.10251,0.01972
1807.07226,0.01975
1806.04200,0.01966
1805.01174,0.01952
1803.98148,0.01942
1802.95122,0.01944
1801.92097,0.01974
1800.89071,0.01995
1799.86045,0.01974
1798.83019,0.01969
1797.79994,0.01995
1796.76968,0.01992
1795.73942,0.01991
1794.70916,0.02044
1793.67890,0.02095
1792.64865,0.02098
1791.61839,0.02084
1790.58813,0.02084
1789.55787,0.02090
1788.52761,0.02121
1787.49736,0.02184
1786.46710,0.02241
1785.43684,0.02265
1784.40658,0.02249
1783.37633,0.02237
1782.34607,0.02267
1781.31581,0.02313
1780.28555,0.02334
1779.25529,0.02326
1778.22504,0.02334
1777.19478,0.02373
1776.16452,0.02394
1775.13426,0.02391
1774.10400,0.02399
1773.07375,0.02401
1772.04349,0.02418
1771.01323,0.02492
1769.98297,0.02548
1768.95272,0.02542
1767.92246,0.02517
1766.89220,0.02546
1765.86194,0.02602
1764.83168,0.02631
1763.80143,0.02639
1762.77117,0.02654
1761.74091,0.02674
1760.71065,0.02695
1759.68040,0.02738
1758.65014,0.02807
1757.61988,0.02850
1756.58962,0.02856
1755.55936,0.02878
1754.52911,0.02913
1753.49885,0.02943
1752.46859,0.02957
1751.43833,0.02977
1750.40807,0.03031
1749.37782,0.03076
1748.34756,0.03104
1747.31730,0.03146
1746.28704,0.03197
1745.25679,0.03242
1744.22653,0.03306
1743.19627,0.03382
1742.16601,0.03429
1741.13575,0.03431
1740.10550,0.03435
1739.07524,0.03508
1738.04498,0.03595
1737.01472,0.03642
1735.98446,0.03672
1734.95421,0.03717
1733.92395,0.03772
1732.89369,0.03819
1731.86343,0.03879
1730.83318,0.03942
1729.80292,0.04015
1728.77266,0.04105
1727.74240,0.04182
1726.71214,0.04252
1725.68189,0.04336
1724.65163,0.04431
1723.62137,0.04520
1722.59111,0.04608
1721.56085,0.04688
1720.53060,0.04750
1719.50034,0.04828
1718.47008,0.04940
1717.43982,0.05044
1716.40957,0.05105
1715.37931,0.05180
1714.34905,0.05288
1713.31879,0.05392
1712.28853,0.05502
1711.25828,0.05654
1710.22802,0.05828
1709.19776,0.05976
1708.16750,0.06088
1707.13725,0.06182
1706.10699,0.06280
1705.07673,0.06411
1704.04647,0.06568
1703.01621,0.06701
1701.98596,0.06801
1700.95570,0.06923
1699.92544,0.07123
1698.89518,0.07255
1697.86492,0.07342
1696.83467,0.07439
1695.80441,0.07570
1694.77415,0.07732
1693.74389,0.07871
1692.71364,0.07996
1691.68338,0.08120
1690.65312,0.08271
1689.62286,0.08430
1688.59260,0.08558
1687.56235,0.08673
1686.53209,0.08776
1685.50183,0.08841
1684.47157,0.08906
1683.44131,0.09091
1682.41106,0.09297
1681.38080,0.09447
1680.35054,0.09575
1679.32028,0.09719
1678.29003,0.09848
1677.25977,0.09914
1676.22951,0.09945
1675.19925,0.10011
1674.16899,0.10136
1673.13874,0.10250
1672.10848,0.10330
1671.07822,0.10407
1670.04796,0.10507
1669.01771,0.10601
1667.98745,0.10678
1666.95719,0.10744
1665.92693,0.10797
1664.89667,0.10856
1663.86642,0.10923
1662.83616,0.10958
1661.80590,0.10955
1660.77564,0.10983
1659.74538,0.11049
1658.71513,0.11079
1657.68487,0.11052
1656.65461,0.11039
1655.62435,0.11069
1654.59410,0.11083
1653.56384,0.11007
1652.53358,0.10877
1651.50332,0.10894
1650.47306,0.10932
1649.44281,0.10916
1648.41255,0.10864
1647.38229,0.10807
1646.35203,0.10742
1645.32177,0.10672
1644.29152,0.10638
1643.26126,0.10615
1642.23100,0.10570
1641.20074,0.10507
1640.17049,0.10435
1639.14023,0.10349
1638.10997,0.10233
1637.07971,0.10092
1636.04945,0.09911
1635.01920,0.09729
1633.98894,0.09678
1632.95868,0.09651
1631.92842,0.09575
1630.89816,0.09469
1629.86791,0.09361
1628.83765,0.09267
1627.80739,0.09148
1626.77713,0.08994
1625.74688,0.08854
1624.71662,0.08740
1623.68636,0.08618
1622.65610,0.08491
1621.62584,0.08387
1620.59559,0.08280
1619.56533,0.08175
1618.53507,0.08095
1617.50481,0.08002
1616.47456,0.07846
1615.44430,0.07736
1614.41404,0.07669
1613.38378,0.07585
1612.35352,0.07498
1611.32327,0.07409
1610.29301,0.07311
1609.26275,0.07210
1608.23249,0.07126
1607.20223,0.07065
1606.17198,0.06998
1605.14172,0.06908
1604.11146,0.06805
1603.08120,0.06710
1602.05095,0.06650
1601.02069,0.06616
1599.99043,0.06582
1598.96017,0.06534
1597.92991,0.06474
1596.89966,0.06414
1595.86940,0.06349
1594.83914,0.06286
1593.80888,0.06236
1592.77862,0.06198
1591.74837,0.06152
1590.71811,0.06100
1589.68785,0.06067
1588.65759,0.06052
1587.62734,0.06029
1586.59708,0.05989
1585.56682,0.05936
1584.53656,0.05872
1583.50630,0.05826
1582.47605,0.05798
1581.44579,0.05764
1580.41553,0.05728
1579.38527,0.05695
1578.35501,0.05669
1577.32476,0.05647
1576.29450,0.05602
1575.26424,0.05580
1574.23398,0.05569
1573.20373,0.05528
1572.17347,0.05499
1571.14321,0.05489
1570.11295,0.05454
1569.08269,0.05403
1568.05244,0.05381
1567.02218,0.05385
1565.99192,0.05404
1564.96166,0.05397
1563.93141,0.05349
1562.90115,0.05311
1561.87089,0.05294
1560.84063,0.05261
1559.81037,0.05173
1558.78012,0.05097
1557.74986,0.05123
1556.71960,0.05173
1555.68934,0.05186
1554.65908,0.05147
1553.62883,0.05093
1552.59857,0.05080
1551.56831,0.05082
1550.53805,0.05073
1549.50780,0.05064
1548.47754,0.05064
1547.44728,0.05053
1546.41702,0.05029
1545.38676,0.04985
1544.35651,0.04938
1543.32625,0.04931
1542.29599,0.04951
1541.26573,0.04949
1540.23547,0.04906
1539.20522,0.04882
1538.17496,0.04914
1537.14470,0.04934
1536.11444,0.04921
1535.08419,0.04900
1534.05393,0.04887
1533.02367,0.04882
1531.99341,0.04879
1530.96315,0.04855
1529.93290,0.04834
1528.90264,0.04825
1527.87238,0.04805
1526.84212,0.04790
1525.81186,0.04798
1524.78161,0.04802
1523.75135,0.04797
1522.72109,0.04781
1521.69083,0.04761
1520.66058,0.04768
1519.63032,0.04780
1518.60006,0.04785
1517.56980,0.04791
1516.53954,0.04797
1515.50929,0.04801
1514.47903,0.04825
1513.44877,0.04864
1512.41851,0.04888
1511.38826,0.04880
1510.35800,0.04841
1509.32774,0.04813
1508.29748,0.04819
1507.26722,0.04810
1506.23697,0.04806
1505.20671,0.04855
1504.17645,0.04887
1503.14619,0.04894
1502.11593,0.04902
1501.08568,0.04930
1500.05542,0.04974
1499.02516,0.05013
1497.99490,0.05033
1496.96465,0.05049
1495.93439,0.05112
1494.90413,0.05212
1493.87387,0.05325
1492.84361,0.05456
1491.81336,0.05607
1490.78310,0.05832
1489.75284,0.06209
1488.72258,0.06694
1487.69232,0.07362
1486.66207,0.08329
1485.63181,0.09477
1484.60155,0.10783
1483.57129,0.12226
1482.54104,0.13557
1481.51078,0.14441
1480.48052,0.14555
1479.45026,0.13883
1478.42000,0.12829
1477.38975,0.11830
1476.35949,0.11035
1475.32923,0.10590
1474.29897,0.10532
1473.26871,0.10773
1472.23846,0.11313
1471.20820,0.12017
1470.17794,0.12709
1469.14768,0.13402
1468.11743,0.14051
1467.08717,0.14550
1466.05691,0.14854
1465.02665,0.14949
1463.99639,0.14821
1462.96614,0.14509
1461.93588,0.14056
1460.90562,0.13544
1459.87536,0.13058
1458.84511,0.12578
1457.81485,0.12093
1456.78459,0.11534
1455.75433,0.11098
1454.72407,0.10879
1453.69382,0.10721
1452.66356,0.10561
1451.63330,0.10375
1450.60304,0.10183
1449.57278,0.10023
1448.54253,0.09868
1447.51227,0.09650
1446.48201,0.09427
1445.45175,0.09260
1444.42150,0.09115
1443.39124,0.08959
1442.36098,0.08796
1441.33072,0.08633
1440.30046,0.08482
1439.27021,0.08341
1438.23995,0.08187
1437.20969,0.07943
1436.17943,0.07612
1435.14917,0.07412
1434.11892,0.07275
1433.08866,0.07110
1432.05840,0.06932
1431.02814,0.06744
1429.99789,0.06562
1428.96763,0.06425
1427.93737,0.06316
1426.90711,0.06197
1425.87685,0.06086
1424.84660,0.05981
1423.81634,0.05848
1422.78608,0.05723
1421.75582,0.05649
1420.72556,0.05601
1419.69531,0.05531
1418.66505,0.05441
1417.63479,0.05404
1416.60453,0.05411
1415.57428,0.05411
1414.54402,0.05391
1413.51376,0.05392
1412.48350,0.05428
1411.45324,0.05486
1410.42299,0.05570
1409.39273,0.05706
1408.36247,0.05889
1407.33221,0.06091
1406.30196,0.06340
1405.27170,0.06671
1404.24144,0.07032
1403.21118,0.07309
1402.18092,0.07487
1401.15067,0.07568
1400.12041,0.07527
1399.09015,0.07349
1398.05989,0.07084
1397.02963,0.06811
1395.99938,0.06527
1394.96912,0.06183
1393.93886,0.05838
1392.90860,0.05609
1391.87835,0.05449
1390.84809,0.05294
1389.81783,0.05157
1388.78757,0.05062
1387.75731,0.04998
1386.72706,0.04942
1385.69680,0.04891
1384.66654,0.04845
1383.63628,0.04805
1382.60602,0.04767
1381.57577,0.04737
1380.54551,0.04722
1379.51525,0.04701
1378.48499,0.04669
1377.45474,0.04644
1376.42448,0.04628
1375.39422,0.04599
1374.36396,0.04569
1373.33370,0.04571
1372.30345,0.04586
1371.27319,0.04585
1370.24293,0.04574
1369.21267,0.04561
1368.18241,0.04546
1367.15216,0.04532
1366.12190,0.04521
1365.09164,0.04506
1364.06138,0.04482
1363.03113,0.04451
1362.00087,0.04422
1360.97061,0.04402
1359.94035,0.04400
1358.91009,0.04407
1357.87984,0.04402
1356.84958,0.04392
1355.81932,0.04396
1354.78906,0.04397
1353.75881,0.04382
1352.72855,0.04368
1351.69829,0.04370
1350.66803,0.04374
1349.63777,0.04366
1348.60752,0.04366
1347.57726,0.04376
1346.54700,0.04392
1345.51674,0.04412
1344.48648,0.04409
1343.45623,0.04374
1342.42597,0.04342
1341.39571,0.04335
1340.36545,0.04345
1339.33520,0.04354
1338.30494,0.04358
1337.27468,0.04363
1336.24442,0.04363
1335.21416,0.04349
1334.18391,0.04327
1333.15365,0.04307
1332.12339,0.04298
1331.09313,0.04291
1330.06287,0.04278
1329.03262,0.04274
1328.00236,0.04284
1326.97210,0.04290
1325.94184,0.04288
1324.91159,0.04282
1323.88133,0.04269
1322.85107,0.04263
1321.82081,0.04264
1320.79055,0.04254
1319.76030,0.04231
1318.73004,0.04201
1317.69978,0.04187
1316.66952,0.04212
1315.63927,0.04247
1314.60901,0.04260
1313.57875,0.04251
1312.54849,0.04226
1311.51823,0.04202
1310.48798,0.04193
1309.45772,0.04186
1308.42746,0.04185
1307.39720,0.04197
1306.36694,0.04206
1305.33669,0.04217
1304.30643,0.04229
1303.27617,0.04227
1302.24591,0.04242
1301.21566,0.04265
1300.18540,0.04255
1299.15514,0.04235
1298.12488,0.04219
1297.09462,0.04187
1296.06437,0.04174
1295.03411,0.04193
1294.00385,0.04200
1292.97359,0.04177
1291.94333,0.04161
1290.91308,0.04186
1289.88282,0.04214
1288.85256,0.04206
1287.82230,0.04181
1286.79205,0.04169
1285.76179,0.04168
1284.73153,0.04158
1283.70127,0.04142
1282.67101,0.04135
1281.64076,0.04134
1280.61050,0.04148
1279.58024,0.04173
1278.54998,0.04175
1277.51972,0.04154
1276.48947,0.04133
1275.45921,0.04130
1274.42895,0.04157
1273.39869,0.04200
1272.36844,0.04227
1271.33818,0.04226
1270.30792,0.04235
1269.27766,0.04265
1268.24740,0.04298
1267.21715,0.04332
1266.18689,0.04366
1265.15663,0.04384
1264.12637,0.04381
1263.09612,0.04350
1262.06586,0.04314
1261.03560,0.04326
1260.00534,0.04378
1258.97508,0.04431
1257.94483,0.04482
1256.91457,0.04545
1255.88431,0.04627
1254.85405,0.04720
1253.82379,0.04812
1252.79354,0.04915
1251.76328,0.05061
1250.73302,0.05258
1249.70276,0.05485
1248.67251,0.05744
1247.64225,0.06074
1246.61199,0.06516
1245.58173,0.07072
1244.55147,0.07705
1243.52122,0.08402
1242.49096,0.09127
1241.46070,0.09822
1240.43044,0.10450
1239.40018,0.10949
1238.36993,0.11248
1237.33967,0.11309
1236.30941,0.11143
1235.27915,0.10794
1234.24890,0.10292
1233.21864,0.09676
1232.18838,0.09036
1231.15812,0.08423
1230.12786,0.07846
1229.09761,0.07315
1228.06735,0.06853
1227.03709,0.06479
1226.00683,0.06176
1224.97657,0.05918
1223.94632,0.05686
1222.91606,0.05490
1221.88580,0.05346
1220.85554,0.05230
1219.82529,0.05127
1218.79503,0.05047
1217.76477,0.04969
1216.73451,0.04874
1215.70425,0.04797
1214.67400,0.04765
1213.64374,0.04746
1212.61348,0.04708
1211.58322,0.04676
1210.55297,0.04664
1209.52271,0.04632
1208.49245,0.04584
1207.46219,0.04535
1206.43193,0.04493
1205.40168,0.04475
1204.37142,0.04467
1203.34116,0.04455
1202.31090,0.04451
1201.28064,0.04463
1200.25039,0.04462
1199.22013,0.04432
1198.18987,0.04416
1197.15961,0.04420
1196.12936,0.04417
1195.09910,0.04417
1194.06884,0.04427
1193.03858,0.04426
1192.00832,0.04405
1190.97807,0.04374
1189.94781,0.04358
1188.91755,0.04359
1187.88729,0.04359
1186.85703,0.04349
1185.82678,0.04348
1184.79652,0.04359
1183.76626,0.04357
1182.73600,0.04328
1181.70575,0.04288
1180.67549,0.04260
1179.64523,0.04258
1178.61497,0.04266
1177.58471,0.04254
1176.55446,0.04240
1175.52420,0.04253
1174.49394,0.04256
1173.46368,0.04233
1172.43342,0.04226
1171.40317,0.04255
1170.37291,0.04288
1169.34265,0.04293
1168.31239,0.04275
1167.28214,0.04244
1166.25188,0.04215
1165.22162,0.04213
1164.19136,0.04229
1163.16110,0.04239
1162.13085,0.04238
1161.10059,0.04225
1160.07033,0.04214
1159.04007,0.04211
1158.00982,0.04209
1156.97956,0.04212
1155.94930,0.04213
1154.91904,0.04204
1153.88878,0.04209
1152.85853,0.04235
1151.82827,0.04249
1150.79801,0.04248
1149.76775,0.04231
1148.73749,0.04198
1147.70724,0.04201
1146.67698,0.04233
1145.64672,0.04236
1144.61646,0.04229
1143.58621,0.04240
1142.55595,0.04245
1141.52569,0.04242
1140.49543,0.04232
1139.46517,0.04220
1138.43492,0.04214
1137.40466,0.04206
1136.37440,0.04224
1135.34414,0.04272
1134.31388,0.04289
1133.28363,0.04270
1132.25337,0.04268
1131.22311,0.04301
1130.19285,0.04350
1129.16260,0.04397
1128.13234,0.04464
1127.10208,0.04583
1126.07182,0.04719
1125.04156,0.04824
1124.01131,0.04914
1122.98105,0.04981
1121.95079,0.05000
1120.92053,0.04987
1119.89027,0.04958
1118.86002,0.04899
1117.82976,0.04796
1116.79950,0.04670
1115.76924,0.04569
1114.73899,0.04503
1113.70873,0.04451
1112.67847,0.04418
1111.64821,0.04393
1110.61795,0.04357
1109.58770,0.04331
1108.55744,0.04314
1107.52718,0.04298
1106.49692,0.04279
1105.46667,0.04260
1104.43641,0.04253
1103.40615,0.04261
1102.37589,0.04271
1101.34563,0.04276
1100.31538,0.04272
1099.28512,0.04284
1098.25486,0.04307
1097.22460,0.04282
1096.19434,0.04238
1095.16409,0.04227
1094.13383,0.04218
1093.10357,0.04217
1092.07331,0.04258
1091.04306,0.04314
1090.01280,0.04343
1088.98254,0.04340
1087.95228,0.04327
1086.92202,0.04310
1085.89177,0.04294
1084.86151,0.04291
1083.83125,0.04308
1082.80099,0.04333
1081.77073,0.04341
1080.74048,0.04322
1079.71022,0.04292
1078.67996,0.04289
1077.64970,0.04305
1076.61945,0.04323
1075.58919,0.04364
1074.55893,0.04393
1073.52867,0.04395
1072.49841,0.04404
1071.46816,0.04404
1070.43790,0.04393
1069.40764,0.04404
1068.37738,0.04431
1067.34712,0.04422
1066.31687,0.04376
1065.28661,0.04353
1064.25635,0.04366
1063.22609,0.04388
1062.19584,0.04395
1061.16558,0.04385
1060.13532,0.04399
1059.10506,0.04421
1058.07480,0.04406
1057.04455,0.04376
1056.01429,0.04374
1054.98403,0.04394
1053.95377,0.04404
1052.92352,0.04405
1051.89326,0.04425
1050.86300,0.04435
1049.83274,0.04416
1048.80248,0.04400
1047.77223,0.04392
1046.74197,0.04377
1045.71171,0.04379
1044.68145,0.04412
1043.65119,0.04434
1042.62094,0.04417
1041.59068,0.04390
1040.56042,0.04372
1039.53016,0.04362
1038.49991,0.04379
1037.46965,0.04413
1036.43939,0.04427
1035.40913,0.04429
1034.37887,0.04439
1033.34862,0.04441
1032.31836,0.04436
1031.28810,0.04462
1030.25784,0.04506
1029.22758,0.04532
1028.19733,0.04541
1027.16707,0.04531
1026.13681,0.04522
1025.10655,0.04542
1024.07630,0.04569
1023.04604,0.04567
1022.01578,0.04541
1020.98552,0.04516
1019.95526,0.04511
1018.92501,0.04546
1017.89475,0.04595
1016.86449,0.04621
1015.83423,0.04641
1014.80397,0.04684
1013.77372,0.04715
1012.74346,0.04713
1011.71320,0.04731
1010.68294,0.04782
1009.65269,0.04827
1008.62243,0.04856
1007.59217,0.04883
1006.56191,0.04926
1005.53165,0.04979
1004.50140,0.05003
1003.47114,0.04996
1002.44088,0.04991
1001.41062,0.04974
1000.38037,0.04960
999.35011,0.04985
998.31985,0.05025
997.28959,0.05060
996.25933,0.05081
995.22908,0.05098
994.19882,0.05150
993.16856,0.05235
992.13830,0.05319
991.10804,0.05385
990.07779,0.05407
989.04753,0.05412
988.01727,0.05455
986.98701,0.05521
985.95676,0.05577
984.92650,0.05631
983.89624,0.05699
982.86598,0.05768
981.83572,0.05823
980.80547,0.05860
979.77521,0.05879
978.74495,0.05915
977.71469,0.05975
976.68443,0.06036
975.65418,0.06094
974.62392,0.06162
973.59366,0.06256
972.56340,0.06358
971.53315,0.06445
970.50289,0.06519
969.47263,0.06620
968.44237,0.06768
967.41211,0.06942
966.38186,0.07133
965.35160,0.07356
964.32134,0.07639
963.29108,0.07983
962.26082,0.08350
961.23057,0.08772
960.20031,0.09327
959.17005,0.09995
958.13979,0.10762
957.10954,0.11706
956.07928,0.12858
955.04902,0.14173
954.01876,0.15635
952.98850,0.17205
951.95825,0.18788
950.92799,0.20316
949.89773,0.21757
948.86747,0.23050
947.83722,0.24062
946.80696,0.24665
945.77670,0.24795
944.74644,0.24381
943.71618,0.23414
942.68593,0.21988
941.65567,0.20301
940.62541,0.18624
939.59515,0.17126
938.56489,0.15814
937.53464,0.14684
936.50438,0.13788
935.47412,0.13089
934.44386,0.12484
933.41361,0.11959
932.38335,0.11565
931.35309,0.11276
930.32283,0.11013
929.29257,0.10737
928.26232,0.10482
927.23206,0.10283
926.20180,0.10137
925.17154,0.10029
924.14128,0.09958
923.11103,0.09910
922.08077,0.09859
921.05051,0.09824
920.02025,0.09811
918.99000,0.09788
917.95974,0.09788
916.92948,0.09839
915.89922,0.09915
914.86896,0.09989
913.83871,0.10060
912.80845,0.10141
911.77819,0.10226
910.74793,0.10311
909.71768,0.10370
908.68742,0.10403
907.65716,0.10469
906.62690,0.10570
905.59664,0.10670
904.56639,0.10764
903.53613,0.10861
902.50587,0.10947
901.47561,0.11033
900.44535,0.11115
899.41510,0.11212
898.38484,0.11376
897.35458,0.11538
896.32432,0.11623
895.29407,0.11681
894.26381,0.11763
893.23355,0.11862
892.20329,0.11968
891.17303,0.12091
890.14278,0.12236
889.11252,0.12360
888.08226,0.12457
887.05200,0.12563
886.02174,0.12663
884.99149,0.12755
883.96123,0.12879
882.93097,0.13004
881.90071,0.13086
880.87046,0.13149
879.84020,0.13227
878.80994,0.13344
877.77968,0.13466
876.74942,0.13586
875.71917,0.13739
874.68891,0.13903
873.65865,0.14029
872.62839,0.14086
871.59813,0.14126
870.56788,0.14222
869.53762,0.14363
868.50736,0.14509
867.47710,0.14643
866.44685,0.14756
865.41659,0.14857
864.38633,0.14987
863.35607,0.15150
862.32581,0.15327
861.29556,0.15466
860.26530,0.15558
859.23504,0.15689
858.20478,0.15848
857.17453,0.15961
856.14427,0.16058
855.11401,0.16199
854.08375,0.16371
853.05349,0.16544
852.02324,0.16686
850.99298,0.16768
849.96272,0.16835
848.93246,0.16936
847.90220,0.17062
846.87195,0.17205
845.84169,0.17343
844.81143,0.17462
843.78117,0.17581
842.75092,0.17704
841.72066,0.17828
840.69040,0.17967
839.66014,0.18104
838.62988,0.18205
837.59963,0.18307
836.56937,0.18446
835.53911,0.18554
834.50885,0.18611
833.47859,0.18691
832.44834,0.18835
831.41808,0.19037
830.38782,0.19243
829.35756,0.19398
828.32731,0.19509
827.29705,0.19628
826.26679,0.19784
825.23653,0.19927
824.20627,0.20036
823.17602,0.20130
822.14576,0.20212
821.11550,0.20278
820.08524,0.20342
819.05498,0.20451
818.02473,0.20625
816.99447,0.20809
815.96421,0.20982
814.93395,0.21168
813.90370,0.21336
812.87344,0.21446
811.84318,0.21501
810.81292,0.21571
809.78266,0.21728
808.75241,0.21881
807.72215,0.21973
806.69189,0.22090
805.66163,0.22203
804.63138,0.22261
803.60112,0.22353
802.57086,0.22512
801.54060,0.22669
800.51034,0.22808
799.48009,0.22957
798.44983,0.23126
797.41957,0.23314
796.38931,0.23488
795.35905,0.23643
794.32880,0.23819
793.29854,0.23968
792.26828,0.24009
791.23802,0.24041
790.20777,0.24208
789.17751,0.24429
788.14725,0.24552
787.11699,0.24610
786.08673,0.24714
785.05648,0.24900
784.02622,0.25107
782.99596,0.25261
781.96570,0.25373
780.93544,0.25528
779.90519,0.25722
778.87493,0.25896
777.84467,0.26098
776.81441,0.26322
775.78416,0.26524
774.75390,0.26764
773.72364,0.27025
772.69338,0.27254
771.66312,0.27550
770.63287,0.27955
769.60261,0.28402
768.57235,0.28844
767.54209,0.29240
766.51183,0.29652
765.48158,0.30174
764.45132,0.30766
763.42106,0.31377
762.39080,0.32035
761.36055,0.32767
760.33029,0.33554
759.30003,0.34304
758.26977,0.34942
757.23951,0.35409
756.20926,0.35625
755.17900,0.35590
754.14874,0.35394
753.11848,0.35065
752.08823,0.34594
751.05797,0.34095
750.02771,0.33713
748.99745,0.33442
747.96719,0.33178
746.93694,0.32945
745.90668,0.32806
744.87642,0.32677
743.84616,0.32565
742.81590,0.32586
741.78565,0.32678
740.75539,0.32709
739.72513,0.32681
738.69487,0.32668
737.66462,0.32708
736.63436,0.32787
735.60410,0.32862
734.57384,0.32955
733.54358,0.33119
732.51333,0.33262
731.48307,0.33295
730.45281,0.33314
729.42255,0.33379
728.39229,0.33454
727.36204,0.33528
726.33178,0.33605
725.30152,0.33685
724.27126,0.33809
723.24101,0.34004
722.21075,0.34209
721.18049,0.34371
720.15023,0.34474
719.11997,0.34494
718.08972,0.34464
717.05946,0.34488
716.02920,0.34578
714.99894,0.34659
713.96868,0.34788
712.93843,0.34989
711.90817,0.35177
710.87791,0.35324
709.84765,0.35403
708.81740,0.35420
707.78714,0.35404
706.75688,0.35379
705.72662,0.35423
704.69636,0.35536
703.66611,0.35631
702.63585,0.35666
701.60559,0.35690
700.57533,0.35798
699.54508,0.35950
698.51482,0.36069
697.48456,0.36185
696.45430,0.36284
695.42404,0.36251
694.39379,0.36141
693.36353,0.36252
692.33327,0.36560
691.30301,0.36738
690.27275,0.36778
689.24250,0.36842
688.21224,0.36946
687.18198,0.37037
686.15172,0.37126
685.12147,0.37317
684.09121,0.37557
683.06095,0.37586
682.03069,0.37435
681.00043,0.37365
679.97018,0.37419
678.93992,0.37612
677.90966,0.37872
676.87940,0.37958
675.84914,0.37941
674.81889,0.38021
673.78863,0.38086
672.75837,0.38113
671.72811,0.38231
670.69786,0.38318
669.66760,0.38286
668.63734,0.38161
667.60708,0.38022
666.57682,0.38146
665.54657,0.38296
664.51631,0.38377
663.48605,0.38433
662.45579,0.38529
661.42553,0.38668
660.39528,0.38741
659.36502,0.38717
658.33476,0.38713
657.30450,0.38793
656.27425,0.38882
655.24399,0.38908
654.21373,0.38940
653.18347,0.39042
652.15321,0.39125
651.12296,0.39163
650.09270,0.39193
649.06244,0.39221
648.03218,0.39271
647.00193,0.39305
645.97167,0.39266
644.94141,0.39279
643.91115,0.39477
642.88089,0.39698
641.85064,0.39840
640.82038,0.39949
639.79012,0.39946
638.75986,0.39888
637.72960,0.39975
636.69935,0.40225
635.66909,0.40483
634.63883,0.40606
633.60857,0.40587
632.57832,0.40563
631.54806,0.40681
630.51780,0.40885
629.48754,0.40939
628.45728,0.40867
627.42703,0.40897
626.39677,0.41001
625.36651,0.41137
624.33625,0.41266
623.30599,0.41243
622.27574,0.41138
621.24548,0.41070
620.21522,0.41103
619.18496,0.41343
618.15471,0.41707
617.12445,0.41901
616.09419,0.41862
615.06393,0.41744
614.03367,0.41557
613.00342,0.41405
611.97316,0.41450
610.94290,0.41566
609.91264,0.41578
608.88238,0.41476
607.85213,0.41327
606.82187,0.41338
605.79161,0.41539
604.76135,0.41642
603.73110,0.41495
602.70084,0.41327
601.67058,0.41400
600.64032,0.41504
599.61006,0.41446
598.57981,0.41441
597.54955,0.41578
596.51929,0.41720
595.48903,0.41774
594.45878,0.41696
593.42852,0.41603
592.39826,0.41614
591.36800,0.41522
590.33774,0.41316
589.30749,0.41167
588.27723,0.41116
587.24697,0.41222
586.21671,0.41284
585.18645,0.41138
584.15620,0.41090
583.12594,0.41228
582.09568,0.41269
581.06542,0.41154
580.03517,0.40953
579.00491,0.40762
577.97465,0.40762
576.94439,0.40946
575.91413,0.40950
574.88388,0.40651
573.85362,0.40397
572.82336,0.40289
571.79310,0.40332
570.76284,0.40483
569.73259,0.40514
568.70233,0.40465
567.67207,0.40399
566.64181,0.40299
565.61156,0.40277
564.58130,0.40327
563.55104,0.40385
562.52078,0.40430
561.49052,0.40349
560.46027,0.40125
559.43001,0.39901
558.39975,0.39734
557.36949,0.39675
556.33924,0.39761
555.30898,0.39848
554.27872,0.39904
553.24846,0.39954
552.21820,0.39827
551.18795,0.39603
550.15769,0.39529
549.12743,0.39393
548.09717,0.39156
547.06691,0.39164
546.03666,0.39230
545.00640,0.39109
543.97614,0.38931
542.94588,0.38825
541.91563,0.38915
540.88537,0.39004
539.85511,0.38917
538.82485,0.38925
537.79459,0.38963
536.76434,0.38719
535.73408,0.38490
534.70382,0.38506
533.67356,0.38525
532.64330,0.38644
531.61305,0.38869
530.58279,0.38939
529.55253,0.38914
528.52227,0.38861
527.49202,0.38962
526.46176,0.39325
525.43150,0.39670
524.40124,0.39832
523.37098,0.39917
522.34073,0.40122
521.31047,0.40388
520.28021,0.40650
519.24995,0.41125
518.21969,0.41654
517.18944,0.42061
516.15918,0.42719
515.12892,0.43535
514.09866,0.44163
513.06841,0.44838
512.03815,0.45632
511.00789,0.46400
509.97763,0.47125
508.94737,0.47841
507.91712,0.48528
506.88686,0.49182
505.85660,0.49958
504.82634,0.50697
503.79609,0.51166
502.76583,0.51322
501.73557,0.51193
500.70531,0.51134
499.67505,0.51424
498.64480,0.51743
497.61454,0.51776
496.58428,0.51867
495.55402,0.52206
494.52376,0.52321
493.49351,0.52013
492.46325,0.51730
491.43299,0.51595
490.40273,0.51208
489.37248,0.50371
488.34222,0.49257
487.31196,0.48061
486.28170,0.46970
485.25144,0.46093
484.22119,0.45233
483.19093,0.44347
482.16067,0.43545
481.13041,0.42736
480.10015,0.41980
479.06990,0.41480
478.03964,0.41149
477.00938,0.40858
475.97912,0.40586
474.94887,0.40215
473.91861,0.39862
472.88835,0.39990
471.85809,0.40932
470.82783,0.42198
469.79758,0.43721
468.76732,0.45982
467.73706,0.49025
466.70680,0.52712
465.67654,0.56467
464.64629,0.59514
463.61603,0.61502
462.58577,0.62429
461.55551,0.62697
460.52526,0.62264
459.49500,0.60928
458.46474,0.58926
457.43448,0.56303
456.40422,0.53812
455.37397,0.51981
454.34371,0.50567
453.31345,0.49051
452.28319,0.47440
451.25294,0.46385
450.22268,0.45761
449.19242,0.45227
448.16216,0.44918
447.13190,0.44458
446.10165,0.43269
445.07139,0.41827
444.04113,0.40606
443.01087,0.39974
441.98061,0.39913
440.95036,0.39715
439.92010,0.39228
438.88984,0.38633
437.85958,0.38005
436.82933,0.37455
435.79907,0.37275
434.76881,0.37590
433.73855,0.37828
432.70829,0.37232
431.67804,0.36227
430.64778,0.35701
429.61752,0.35379
428.58726,0.34947
427.55700,0.34735
426.52675,0.34572
425.49649,0.34260
424.46623,0.33877
423.43597,0.33330
422.40572,0.32953
421.37546,0.32744
420.34520,0.32152
419.31494,0.31405
418.28468,0.31754
417.25443,0.32070
416.22417,0.31521
415.19391,0.31404
414.16365,0.31732
413.13339,0.31654
412.10314,0.31190
411.07288,0.30774
410.04262,0.30824
409.01236,0.30769
407.98211,0.30276
406.95185,0.29909
405.92159,0.29645
404.89133,0.29788
403.86107,0.30618
402.83082,0.31291
401.80056,0.31377
400.77030,0.31425
399.74004,0.31656
