4998.81105,0.00218
4997.78079,0.00187
4996.75054,0.00155
4995.72028,0.00094
4994.69002,0.00134
4993.65976,0.00238
4992.62951,0.00277
4991.59925,0.00311
4990.56899,0.00300
4989.53873,0.00204
4988.50847,0.00156
4987.47822,0.00222
4986.44796,0.00310
4985.41770,0.00331
4984.38744,0.00272
4983.35718,0.00181
4982.32693,0.00143
4981.29667,0.00127
4980.26641,0.00109
4979.23615,0.00166
4978.20590,0.00258
4977.17564,0.00267
4976.14538,0.00210
4975.11512,0.00179
4974.08486,0.00209
4973.05461,0.00285
4972.02435,0.00307
4970.99409,0.00209
4969.96383,0.00091
4968.93357,0.00098
4967.90332,0.00221
4966.87306,0.00302
4965.84280,0.00255
4964.81254,0.00159
4963.78229,0.00093
4962.75203,0.00014
4961.72177,-0.00020
4960.69151,0.00090
4959.66125,0.00192
4958.63100,0.00201
4957.60074,0.00204
4956.57048,0.00211
4955.54022,0.00188
4954.50997,0.00142
4953.47971,0.00157
4952.44945,0.00219
4951.41919,0.00255
4950.38893,0.00312
4949.35868,0.00328
4948.32842,0.00243
4947.29816,0.00156
4946.26790,0.00127
4945.23764,0.00159
4944.20739,0.00221
4943.17713,0.00268
4942.14687,0.00266
4941.11661,0.00229
4940.08636,0.00225
4939.05610,0.00219
4938.02584,0.00106
4936.99558,0.00024
4935.96532,0.00133
4934.93507,0.00265
4933.90481,0.00282
4932.87455,0.00232
4931.84429,0.00139
4930.81403,0.00003
4929.78378,-0.00074
4928.75352,0.00017
4927.72326,0.00187
4926.69300,0.00248
4925.66275,0.00178
4924.63249,0.00126
4923.60223,0.00171
4922.57197,0.00248
4921.54171,0.00275
4920.51146,0.00232
4919.48120,0.00185
4918.45094,0.00202
4917.42068,0.00276
4916.39042,0.00384
4915.36017,0.00430
4914.32991,0.00337
4913.29965,0.00238
4912.26939,0.00256
4911.23914,0.00349
4910.20888,0.00421
4909.17862,0.00379
4908.14836,0.00214
4907.11810,0.00094
4906.08785,0.00135
4905.05759,0.00199
4904.02733,0.00203
4902.99707,0.00190
4901.96682,0.00162
4900.93656,0.00180
4899.90630,0.00265
4898.87604,0.00260
4897.84578,0.00137
4896.81553,0.00078
4895.78527,0.00072
4894.75501,0.00057
4893.72475,0.00106
4892.69449,0.00161
4891.66424,0.00174
4890.63398,0.00203
4889.60372,0.00217
4888.57346,0.00222
4887.54321,0.00261
4886.51295,0.00265
4885.48269,0.00196
4884.45243,0.00135
4883.42217,0.00156
4882.39192,0.00178
4881.36166,0.00109
4880.33140,0.00093
4879.30114,0.00190
4878.27088,0.00228
4877.24063,0.00187
4876.21037,0.00150
4875.18011,0.00101
4874.14985,0.00064
4873.11960,0.00090
4872.08934,0.00168
4871.05908,0.00236
4870.02882,0.00246
4868.99856,0.00185
4867.96831,0.00095
4866.93805,0.00092
4865.90779,0.00184
4864.87753,0.00275
4863.84727,0.00305
4862.81702,0.00267
4861.78676,0.00228
4860.75650,0.00177
4859.72624,0.00107
4858.69599,0.00113
4857.66573,0.00178
4856.63547,0.00195
4855.60521,0.00179
4854.57495,0.00193
4853.54470,0.00195
4852.51444,0.00149
4851.48418,0.00107
4850.45392,0.00120
4849.42367,0.00155
4848.39341,0.00181
4847.36315,0.00212
4846.33289,0.00206
4845.30263,0.00207
4844.27238,0.00292
4843.24212,0.00304
4842.21186,0.00135
4841.18160,-0.00027
4840.15134,-0.00051
4839.12109,0.00011
4838.09083,0.00123
4837.06057,0.00223
4836.03031,0.00232
4835.00006,0.00154
4833.96980,0.00078
4832.93954,0.00111
4831.90928,0.00209
4830.87902,0.00214
4829.84877,0.00114
4828.81851,0.00040
4827.78825,0.00064
4826.75799,0.00180
4825.72773,0.00303
4824.69748,0.00333
4823.66722,0.00280
4822.63696,0.00188
4821.60670,0.00128
4820.57645,0.00161
4819.54619,0.00238
4818.51593,0.00300
4817.48567,0.00300
4816.45541,0.00203
4815.42516,0.00067
4814.39490,0.00019
4813.36464,0.00066
4812.33438,0.00076
4811.30412,0.00039
4810.27387,0.00062
4809.24361,0.00134
4808.21335,0.00178
4807.18309,0.00194
4806.15284,0.00171
4805.12258,0.00161
4804.09232,0.00209
4803.06206,0.00221
4802.03180,0.00178
4801.00155,0.00204
4799.97129,0.00310
4798.94103,0.00329
4797.91077,0.00238
4796.88052,0.00152
4795.85026,0.00109
4794.82000,0.00093
4793.78974,0.00102
4792.75948,0.00141
4791.72923,0.00181
4790.69897,0.00177
4789.66871,0.00122
4788.63845,0.00090
4787.60819,0.00129
4786.57794,0.00181
4785.54768,0.00225
4784.51742,0.00268
4783.48716,0.00241
4782.45691,0.00127
4781.42665,0.00081
4780.39639,0.00164
4779.36613,0.00205
4778.33587,0.00169
4777.30562,0.00171
4776.27536,0.00221
4775.24510,0.00260
4774.21484,0.00232
4773.18458,0.00148
4772.15433,0.00090
4771.12407,0.00089
4770.09381,0.00084
4769.06355,0.00067
4768.03330,0.00084
4767.00304,0.00139
4765.97278,0.00216
4764.94252,0.00285
4763.91226,0.00268
4762.88201,0.00140
4761.85175,0.00041
4760.82149,0.00079
4759.79123,0.00220
4758.76098,0.00299
4757.73072,0.00200
4756.70046,0.00091
4755.67020,0.00086
4754.63994,0.00045
4753.60969,-0.00007
4752.57943,0.00061
4751.54917,0.00138
4750.51891,0.00127
4749.48865,0.00084
4748.45840,0.00084
4747.42814,0.00161
4746.39788,0.00248
4745.36762,0.00277
4744.33737,0.00225
4743.30711,0.00155
4742.27685,0.00156
4741.24659,0.00202
4740.21633,0.00213
4739.18608,0.00156
4738.15582,0.00085
4737.12556,0.00086
4736.09530,0.00118
4735.06504,0.00133
4734.03479,0.00174
4733.00453,0.00185
4731.97427,0.00124
4730.94401,0.00078
4729.91376,0.00097
4728.88350,0.00148
4727.85324,0.00181
4726.82298,0.00200
4725.79272,0.00214
4724.76247,0.00218
4723.73221,0.00224
4722.70195,0.00214
4721.67169,0.00181
4720.64143,0.00159
4719.61118,0.00168
4718.58092,0.00149
4717.55066,0.00052
4716.52040,0.00002
4715.49015,0.00093
4714.45989,0.00179
4713.42963,0.00162
4712.39937,0.00161
4711.36911,0.00222
4710.33886,0.00255
4709.30860,0.00253
4708.27834,0.00260
4707.24808,0.00250
4706.21783,0.00194
4705.18757,0.00117
4704.15731,0.00058
4703.12705,0.00029
4702.09679,0.00033
4701.06654,0.00116
4700.03628,0.00203
4699.00602,0.00199
4697.97576,0.00179
4696.94550,0.00196
4695.91525,0.00218
4694.88499,0.00226
4693.85473,0.00198
4692.82447,0.00078
4691.79422,-0.00051
4690.76396,-0.00032
4689.73370,0.00079
4688.70344,0.00097
4687.67318,0.00040
4686.64293,0.00077
4685.61267,0.00168
4684.58241,0.00188
4683.55215,0.00164
4682.52189,0.00157
4681.49164,0.00158
4680.46138,0.00108
4679.43112,0.00026
4678.40086,0.00009
4677.37061,0.00091
4676.34035,0.00222
4675.31009,0.00268
4674.27983,0.00204
4673.24957,0.00122
4672.21932,0.00042
4671.18906,0.00027
4670.15880,0.00066
4669.12854,0.00070
4668.09828,0.00073
4667.06803,0.00102
4666.03777,0.00124
4665.00751,0.00083
4663.97725,0.00006
4662.94700,0.00011
4661.91674,0.00077
4660.88648,0.00142
4659.85622,0.00193
4658.82596,0.00176
4657.79571,0.00122
4656.76545,0.00098
4655.73519,0.00106
4654.70493,0.00143
4653.67468,0.00193
4652.64442,0.00227
4651.61416,0.00214
4650.58390,0.00190
4649.55364,0.00204
4648.52339,0.00197
4647.49313,0.00137
4646.46287,0.00094
4645.43261,0.00084
4644.40235,0.00141
4643.37210,0.00267
4642.34184,0.00328
4641.31158,0.00281
4640.28132,0.00171
4639.25107,0.00093
4638.22081,0.00114
4637.19055,0.00136
4636.16029,0.00127
4635.13003,0.00118
4634.09978,0.00090
4633.06952,0.00086
4632.03926,0.00097
4631.00900,0.00074
4629.97874,0.00041
4628.94849,0.00002
4627.91823,0.00019
4626.88797,0.00136
4625.85771,0.00224
4624.82746,0.00226
4623.79720,0.00198
4622.76694,0.00170
4621.73668,0.00198
4620.70642,0.00247
4619.67617,0.00218
4618.64591,0.00185
4617.61565,0.00220
4616.58539,0.00243
4615.55513,0.00233
4614.52488,0.00204
4613.49462,0.00154
4612.46436,0.00087
4611.43410,0.00049
4610.40385,0.00110
4609.37359,0.00167
4608.34333,0.00099
4607.31307,0.00028
4606.28281,0.00035
4605.25256,0.00049
4604.22230,0.00048
4603.19204,0.00041
4602.16178,0.00060
4601.13153,0.00115
4600.10127,0.00180
4599.07101,0.00227
4598.04075,0.00182
4597.01049,0.00067
4595.98024,0.00046
4594.94998,0.00134
4593.91972,0.00190
4592.88946,0.00209
4591.85920,0.00200
4590.82895,0.00099
4589.79869,-0.00028
4588.76843,-0.00062
4587.73817,0.00017
4586.70792,0.00115
4585.67766,0.00184
4584.64740,0.00239
4583.61714,0.00248
4582.58688,0.00185
4581.55663,0.00088
4580.52637,0.00060
4579.49611,0.00117
4578.46585,0.00167
4577.43559,0.00151
4576.40534,0.00096
4575.37508,0.00052
4574.34482,0.00058
4573.31456,0.00126
4572.28431,0.00203
4571.25405,0.00225
4570.22379,0.00201
4569.19353,0.00187
4568.16327,0.00191
4567.13302,0.00163
4566.10276,0.00097
4565.07250,0.00055
4564.04224,0.00058
4563.01198,0.00070
4561.98173,0.00091
4560.95147,0.00158
4559.92121,0.00249
4558.89095,0.00282
4557.86070,0.00259
4556.83044,0.00250
4555.80018,0.00224
4554.76992,0.00161
4553.73966,0.00129
4552.70941,0.00127
4551.67915,0.00148
4550.64889,0.00173
4549.61863,0.00110
4548.58838,0.00043
4547.55812,0.00112
4546.52786,0.00211
4545.49760,0.00217
4544.46734,0.00191
4543.43709,0.00193
4542.40683,0.00202
4541.37657,0.00200
4540.34631,0.00153
4539.31605,0.00051
4538.28580,-0.00014
4537.25554,0.00042
4536.22528,0.00130
4535.19502,0.00133
4534.16477,0.00101
4533.13451,0.00127
4532.10425,0.00184
4531.07399,0.00178
4530.04373,0.00115
4529.01348,0.00124
4527.98322,0.00195
4526.95296,0.00195
4525.92270,0.00127
4524.89244,0.00108
4523.86219,0.00140
4522.83193,0.00149
4521.80167,0.00159
4520.77141,0.00184
4519.74116,0.00187
4518.71090,0.00180
4517.68064,0.00187
4516.65038,0.00200
4515.62012,0.00191
4514.58987,0.00171
4513.55961,0.00161
4512.52935,0.00180
4511.49909,0.00207
4510.46883,0.00192
4509.43858,0.00180
4508.40832,0.00220
4507.37806,0.00269
4506.34780,0.00273
4505.31755,0.00216
4504.28729,0.00130
4503.25703,0.00075
4502.22677,0.00092
4501.19651,0.00147
4500.16626,0.00176
4499.13600,0.00197
4498.10574,0.00214
4497.07548,0.00210
4496.04523,0.00193
4495.01497,0.00157
4493.98471,0.00123
4492.95445,0.00091
4491.92419,0.00067
4490.89394,0.00106
4489.86368,0.00166
4488.83342,0.00190
4487.80316,0.00195
4486.77290,0.00183
4485.74265,0.00151
4484.71239,0.00136
4483.68213,0.00179
4482.65187,0.00256
4481.62162,0.00249
4480.59136,0.00165
4479.56110,0.00149
4478.53084,0.00204
4477.50058,0.00266
4476.47033,0.00337
4475.44007,0.00379
4474.40981,0.00345
4473.37955,0.00281
4472.34929,0.00235
4471.31904,0.00218
4470.28878,0.00240
4469.25852,0.00274
4468.22826,0.00286
4467.19801,0.00278
4466.16775,0.00268
4465.13749,0.00250
4464.10723,0.00266
4463.07697,0.00309
4462.04672,0.00295
4461.01646,0.00247
4459.98620,0.00209
4458.95594,0.00176
4457.92568,0.00175
4456.89543,0.00198
4455.86517,0.00184
4454.83491,0.00178
4453.80465,0.00186
4452.77440,0.00166
4451.74414,0.00168
4450.71388,0.00189
4449.68362,0.00176
4448.65336,0.00145
4447.62311,0.00154
4446.59285,0.00205
4445.56259,0.00230
4444.53233,0.00198
4443.50208,0.00154
4442.47182,0.00159
4441.44156,0.00206
4440.41130,0.00250
4439.38104,0.00322
4438.35079,0.00409
4437.32053,0.00422
4436.29027,0.00374
4435.26001,0.00329
4434.22975,0.00307
4433.19950,0.00300
4432.16924,0.00277
4431.13898,0.00195
4430.10872,0.00121
4429.07847,0.00150
4428.04821,0.00235
4427.01795,0.00304
4425.98769,0.00338
4424.95743,0.00329
4423.92718,0.00299
4422.89692,0.00245
4421.86666,0.00176
4420.83640,0.00179
4419.80614,0.00247
4418.77589,0.00297
4417.74563,0.00288
4416.71537,0.00225
4415.68511,0.00173
4414.65486,0.00173
4413.62460,0.00173
4412.59434,0.00172
4411.56408,0.00225
4410.53382,0.00265
4409.50357,0.00217
4408.47331,0.00187
4407.44305,0.00246
4406.41279,0.00258
4405.38253,0.00189
4404.35228,0.00146
4403.32202,0.00133
4402.29176,0.00105
4401.26150,0.00076
4400.23125,0.00102
4399.20099,0.00161
4398.17073,0.00233
4397.14047,0.00317
4396.11021,0.00326
4395.07996,0.00273
4394.04970,0.00229
4393.01944,0.00181
4391.98918,0.00131
4390.95893,0.00109
4389.92867,0.00135
4388.89841,0.00188
4387.86815,0.00212
4386.83789,0.00206
4385.80764,0.00178
4384.77738,0.00112
4383.74712,0.00051
4382.71686,0.00049
4381.68660,0.00082
4380.65635,0.00103
4379.62609,0.00131
4378.59583,0.00174
4377.56557,0.00196
4376.53532,0.00198
4375.50506,0.00218
4374.47480,0.00236
4373.44454,0.00185
4372.41428,0.00091
4371.38403,0.00068
4370.35377,0.00138
4369.32351,0.00218
4368.29325,0.00240
4367.26299,0.00206
4366.23274,0.00159
4365.20248,0.00127
4364.17222,0.00119
4363.14196,0.00126
4362.11171,0.00145
4361.08145,0.00134
4360.05119,0.00097
4359.02093,0.00114
4357.99067,0.00167
4356.96042,0.00175
4355.93016,0.00161
4354.89990,0.00151
4353.86964,0.00115
4352.83939,0.00084
4351.80913,0.00110
4350.77887,0.00128
4349.74861,0.00089
4348.71835,0.00075
4347.68810,0.00104
4346.65784,0.00116
4345.62758,0.00127
4344.59732,0.00163
4343.56706,0.00174
4342.53681,0.00140
4341.50655,0.00119
4340.47629,0.00128
4339.44603,0.00133
4338.41578,0.00139
4337.38552,0.00153
4336.35526,0.00149
4335.32500,0.00119
4334.29474,0.00103
4333.26449,0.00117
4332.23423,0.00125
4331.20397,0.00100
4330.17371,0.00066
4329.14345,0.00057
4328.11320,0.00082
4327.08294,0.00123
4326.05268,0.00150
4325.02242,0.00148
4323.99217,0.00132
4322.96191,0.00138
4321.93165,0.00154
4320.90139,0.00164
4319.87113,0.00172
4318.84088,0.00161
4317.81062,0.00126
4316.78036,0.00106
4315.75010,0.00122
4314.71984,0.00126
4313.68959,0.00075
4312.65933,0.00036
4311.62907,0.00074
4310.59881,0.00132
4309.56856,0.00156
4308.53830,0.00155
4307.50804,0.00152
4306.47778,0.00161
4305.44752,0.00180
4304.41727,0.00230
4303.38701,0.00286
4302.35675,0.00281
4301.32649,0.00224
4300.29624,0.00184
4299.26598,0.00165
4298.23572,0.00158
4297.20546,0.00189
4296.17520,0.00227
4295.14495,0.00198
4294.11469,0.00097
4293.08443,0.00037
4292.05417,0.00095
4291.02391,0.00177
4289.99366,0.00185
4288.96340,0.00160
4287.93314,0.00138
4286.90288,0.00109
4285.87263,0.00077
4284.84237,0.00091
4283.81211,0.00168
4282.78185,0.00219
4281.75159,0.00223
4280.72134,0.00226
4279.69108,0.00222
4278.66082,0.00226
4277.63056,0.00242
4276.60030,0.00235
4275.57005,0.00203
4274.53979,0.00181
4273.50953,0.00209
4272.47927,0.00241
4271.44902,0.00222
4270.41876,0.00203
4269.38850,0.00179
4268.35824,0.00143
4267.32798,0.00142
4266.29773,0.00159
4265.26747,0.00191
4264.23721,0.00215
4263.20695,0.00187
4262.17669,0.00154
4261.14644,0.00148
4260.11618,0.00158
4259.08592,0.00187
4258.05566,0.00184
4257.02541,0.00137
4255.99515,0.00131
4254.96489,0.00169
4253.93463,0.00165
4252.90437,0.00139
4251.87412,0.00156
4250.84386,0.00180
4249.81360,0.00168
4248.78334,0.00142
4247.75309,0.00129
4246.72283,0.00111
4245.69257,0.00103
4244.66231,0.00141
4243.63205,0.00153
4242.60180,0.00122
4241.57154,0.00149
4240.54128,0.00233
4239.51102,0.00260
4238.48076,0.00224
4237.45051,0.00195
4236.42025,0.00156
4235.38999,0.00117
4234.35973,0.00140
4233.32948,0.00171
4232.29922,0.00166
4231.26896,0.00181
4230.23870,0.00212
4229.20844,0.00207
4228.17819,0.00174
4227.14793,0.00147
4226.11767,0.00161
4225.08741,0.00193
4224.05715,0.00190
4223.02690,0.00189
4221.99664,0.00195
4220.96638,0.00180
4219.93612,0.00186
4218.90587,0.00219
4217.87561,0.00200
4216.84535,0.00141
4215.81509,0.00133
4214.78483,0.00178
4213.75458,0.00224
4212.72432,0.00236
4211.69406,0.00221
4210.66380,0.00195
4209.63354,0.00167
4208.60329,0.00178
4207.57303,0.00211
4206.54277,0.00225
4205.51251,0.00216
4204.48226,0.00161
4203.45200,0.00108
4202.42174,0.00129
4201.39148,0.00177
4200.36122,0.00188
4199.33097,0.00186
4198.30071,0.00212
4197.27045,0.00259
4196.24019,0.00280
4195.20994,0.00234
4194.17968,0.00160
4193.14942,0.00126
4192.11916,0.00128
4191.08890,0.00163
4190.05865,0.00186
4189.02839,0.00146
4187.99813,0.00112
4186.96787,0.00116
4185.93761,0.00114
4184.90736,0.00127
4183.87710,0.00151
4182.84684,0.00157
4181.81658,0.00146
4180.78633,0.00130
4179.75607,0.00138
4178.72581,0.00159
4177.69555,0.00157
4176.66529,0.00144
4175.63504,0.00147
4174.60478,0.00184
4173.57452,0.00246
4172.54426,0.00250
4171.51400,0.00196
4170.48375,0.00155
4169.45349,0.00135
4168.42323,0.00147
4167.39297,0.00181
4166.36272,0.00183
4165.33246,0.00146
4164.30220,0.00126
4163.27194,0.00159
4162.24168,0.00196
4161.21143,0.00201
4160.18117,0.00242
4159.15091,0.00273
4158.12065,0.00221
4157.09039,0.00169
4156.06014,0.00167
4155.02988,0.00206
4153.99962,0.00263
4152.96936,0.00279
4151.93911,0.00222
4150.90885,0.00169
4149.87859,0.00207
4148.84833,0.00266
4147.81807,0.00259
4146.78782,0.00240
4145.75756,0.00265
4144.72730,0.00282
4143.69704,0.00257
4142.66679,0.00248
4141.63653,0.00280
4140.60627,0.00316
4139.57601,0.00319
4138.54575,0.00277
4137.51550,0.00235
4136.48524,0.00234
4135.45498,0.00236
4134.42472,0.00212
4133.39446,0.00176
4132.36421,0.00173
4131.33395,0.00207
4130.30369,0.00244
4129.27343,0.00265
4128.24318,0.00260
4127.21292,0.00236
4126.18266,0.00211
4125.15240,0.00204
4124.12214,0.00208
4123.09189,0.00193
4122.06163,0.00177
4121.03137,0.00177
4120.00111,0.00187
4118.97085,0.00188
4117.94060,0.00178
4116.91034,0.00177
4115.88008,0.00198
4114.84982,0.00207
4113.81957,0.00159
4112.78931,0.00140
4111.75905,0.00222
4110.72879,0.00291
4109.69853,0.00272
4108.66828,0.00217
4107.63802,0.00184
4106.60776,0.00203
4105.57750,0.00252
4104.54724,0.00300
4103.51699,0.00329
4102.48673,0.00324
4101.45647,0.00269
4100.42621,0.00172
4099.39596,0.00106
4098.36570,0.00141
4097.33544,0.00233
4096.30518,0.00278
4095.27492,0.00269
4094.24467,0.00273
4093.21441,0.00295
4092.18415,0.00307
4091.15389,0.00301
4090.12364,0.00285
4089.09338,0.00269
4088.06312,0.00271
4087.03286,0.00297
4086.00260,0.00315
4084.97235,0.00314
4083.94209,0.00306
4082.91183,0.00285
4081.88157,0.00258
4080.85131,0.00243
4079.82106,0.00225
4078.79080,0.00189
4077.76054,0.00155
4076.73028,0.00170
4075.70003,0.00232
4074.66977,0.00275
4073.63951,0.00288
4072.60925,0.00286
4071.57899,0.00263
4070.54874,0.00244
4069.51848,0.00241
4068.48822,0.00246
4067.45796,0.00275
4066.42770,0.00300
4065.39745,0.00269
4064.36719,0.00213
4063.33693,0.00190
4062.30667,0.00188
4061.27642,0.00194
4060.24616,0.00219
4059.21590,0.00241
4058.18564,0.00229
4057.15538,0.00204
4056.12513,0.00209
4055.09487,0.00234
4054.06461,0.00256
4053.03435,0.00258
4052.00409,0.00212
4050.97384,0.00154
4049.94358,0.00152
4048.91332,0.00202
4047.88306,0.00235
4046.85281,0.00244
4045.82255,0.00252
4044.79229,0.00226
4043.76203,0.00210
4042.73177,0.00240
4041.70152,0.00252
4040.67126,0.00238
4039.64100,0.00233
4038.61074,0.00214
4037.58049,0.00187
4036.55023,0.00193
4035.51997,0.00202
4034.48971,0.00208
4033.45945,0.00255
4032.42920,0.00308
4031.39894,0.00310
4030.36868,0.00277
4029.33842,0.00259
4028.30816,0.00276
4027.27791,0.00284
4026.24765,0.00265
4025.21739,0.00270
4024.18713,0.00281
4023.15688,0.00257
4022.12662,0.00235
4021.09636,0.00254
4020.06610,0.00313
4019.03584,0.00375
4018.00559,0.00384
4016.97533,0.00352
4015.94507,0.00340
4014.91481,0.00329
4013.88455,0.00289
4012.85430,0.00257
4011.82404,0.00241
4010.79378,0.00227
4009.76352,0.00210
4008.73327,0.00206
4007.70301,0.00259
4006.67275,0.00323
4005.64249,0.00327
4004.61223,0.00304
4003.58198,0.00280
4002.55172,0.00247
4001.52146,0.00238
4000.49120,0.00255
3999.46095,0.00273
3998.43069,0.00290
3997.40043,0.00280
3996.37017,0.00238
3995.33991,0.00210
3994.30966,0.00199
3993.27940,0.00213
3992.24914,0.00272
3991.21888,0.00328
3990.18862,0.00332
3989.15837,0.00309
3988.12811,0.00321
3987.09785,0.00320
3986.06759,0.00270
3985.03734,0.00248
3984.00708,0.00260
3982.97682,0.00260
3981.94656,0.00234
3980.91630,0.00201
3979.88605,0.00229
3978.85579,0.00273
3977.82553,0.00275
3976.79527,0.00292
3975.76501,0.00338
3974.73476,0.00374
3973.70450,0.00365
3972.67424,0.00294
3971.64398,0.00193
3970.61373,0.00149
3969.58347,0.00180
3968.55321,0.00234
3967.52295,0.00301
3966.49269,0.00336
3965.46244,0.00304
3964.43218,0.00274
3963.40192,0.00267
3962.37166,0.00231
3961.34140,0.00187
3960.31115,0.00202
3959.28089,0.00253
3958.25063,0.00268
3957.22037,0.00256
3956.19012,0.00241
3955.15986,0.00218
3954.12960,0.00207
3953.09934,0.00200
3952.06908,0.00210
3951.03883,0.00241
3950.00857,0.00252
3948.97831,0.00243
3947.94805,0.00236
3946.91780,0.00237
3945.88754,0.00234
3944.85728,0.00229
3943.82702,0.00231
3942.79676,0.00220
3941.76651,0.00202
3940.73625,0.00230
3939.70599,0.00297
3938.67573,0.00320
3937.64547,0.00278
3936.61522,0.00216
3935.58496,0.00169
3934.55470,0.00154
3933.52444,0.00171
3932.49419,0.00203
3931.46393,0.00200
3930.43367,0.00195
3929.40341,0.00223
3928.37315,0.00242
3927.34290,0.00232
3926.31264,0.00198
3925.28238,0.00183
3924.25212,0.00196
3923.22186,0.00200
3922.19161,0.00224
3921.16135,0.00294
3920.13109,0.00329
3919.10083,0.00284
3918.07058,0.00234
3917.04032,0.00213
3916.01006,0.00220
3914.97980,0.00242
3913.94954,0.00223
3912.91929,0.00158
3911.88903,0.00145
3910.85877,0.00190
3909.82851,0.00201
3908.79825,0.00179
3907.76800,0.00198
3906.73774,0.00243
3905.70748,0.00255
3904.67722,0.00251
3903.64697,0.00212
3902.61671,0.00123
3901.58645,0.00103
3900.55619,0.00175
3899.52593,0.00206
3898.49568,0.00163
3897.46542,0.00153
3896.43516,0.00222
3895.40490,0.00308
3894.37465,0.00347
3893.34439,0.00361
3892.31413,0.00378
3891.28387,0.00347
3890.25361,0.00270
3889.22336,0.00224
3888.19310,0.00210
3887.16284,0.00208
3886.13258,0.00210
3885.10232,0.00209
3884.07207,0.00223
3883.04181,0.00246
3882.01155,0.00259
3880.98129,0.00248
3879.95104,0.00207
3878.92078,0.00176
3877.89052,0.00194
3876.86026,0.00235
3875.83000,0.00265
3874.79975,0.00256
3873.76949,0.00224
3872.73923,0.00225
3871.70897,0.00222
3870.67871,0.00225
3869.64846,0.00243
3868.61820,0.00223
3867.58794,0.00192
3866.55768,0.00179
3865.52743,0.00182
3864.49717,0.00181
3863.46691,0.00197
3862.43665,0.00246
3861.40639,0.00271
3860.37614,0.00248
3859.34588,0.00230
3858.31562,0.00230
3857.28536,0.00218
3856.25510,0.00219
3855.22485,0.00264
3854.19459,0.00278
3853.16433,0.00250
3852.13407,0.00280
3851.10382,0.00305
3850.07356,0.00305
3849.04330,0.00289
3848.01304,0.00277
3846.98278,0.00289
3845.95253,0.00285
3844.92227,0.00244
3843.89201,0.00212
3842.86175,0.00253
3841.83150,0.00303
3840.80124,0.00273
3839.77098,0.00249
3838.74072,0.00283
3837.71046,0.00259
3836.68021,0.00184
3835.64995,0.00174
3834.61969,0.00235
3833.58943,0.00304
3832.55917,0.00325
3831.52892,0.00279
3830.49866,0.00221
3829.46840,0.00232
3828.43814,0.00287
3827.40789,0.00302
3826.37763,0.00256
3825.34737,0.00216
3824.31711,0.00194
3823.28685,0.00182
3822.25660,0.00216
3821.22634,0.00259
3820.19608,0.00262
3819.16582,0.00292
3818.13556,0.00335
3817.10531,0.00333
3816.07505,0.00288
3815.04479,0.00289
3814.01453,0.00321
3812.98428,0.00332
3811.95402,0.00341
3810.92376,0.00327
3809.89350,0.00266
3808.86324,0.00239
3807.83299,0.00296
3806.80273,0.00331
3805.77247,0.00281
3804.74221,0.00259
3803.71195,0.00257
3802.68170,0.00226
3801.65144,0.00192
3800.62118,0.00195
3799.59092,0.00227
3798.56067,0.00276
3797.53041,0.00311
3796.50015,0.00280
3795.46989,0.00218
3794.43963,0.00197
3793.40938,0.00217
3792.37912,0.00246
3791.34886,0.00257
3790.31860,0.00266
3789.28835,0.00289
3788.25809,0.00274
3787.22783,0.00228
3786.19757,0.00226
3785.16731,0.00270
3784.13706,0.00322
3783.10680,0.00368
3782.07654,0.00401
3781.04628,0.00405
3780.01602,0.00368
3778.98577,0.00326
3777.95551,0.00319
3776.92525,0.00339
3775.89499,0.00339
3774.86474,0.00297
3773.83448,0.00273
3772.80422,0.00287
3771.77396,0.00295
3770.74370,0.00292
3769.71345,0.00321
3768.68319,0.00377
3767.65293,0.00416
3766.62267,0.00432
3765.59241,0.00427
3764.56216,0.00415
3763.53190,0.00407
3762.50164,0.00383
3761.47138,0.00375
3760.44113,0.00398
3759.41087,0.00378
3758.38061,0.00333
3757.35035,0.00338
3756.32009,0.00373
3755.28984,0.00406
3754.25958,0.00426
3753.22932,0.00422
3752.19906,0.00404
3751.16880,0.00404
3750.13855,0.00407
3749.10829,0.00389
3748.07803,0.00404
3747.04777,0.00412
3746.01752,0.00366
3744.98726,0.00321
3743.95700,0.00332
3742.92674,0.00375
3741.89648,0.00445
3740.86623,0.00504
3739.83597,0.00468
3738.80571,0.00347
3737.77545,0.00254
3736.74520,0.00238
3735.71494,0.00235
3734.68468,0.00289
3733.65442,0.00442
3732.62416,0.00530
3731.59391,0.00484
3730.56365,0.00465
3729.53339,0.00506
3728.50313,0.00519
3727.47287,0.00489
3726.44262,0.00459
3725.41236,0.00476
3724.38210,0.00509
3723.35184,0.00544
3722.32159,0.00590
3721.29133,0.00607
3720.26107,0.00555
3719.23081,0.00463
3718.20055,0.00414
3717.17030,0.00456
3716.14004,0.00538
3715.10978,0.00585
3714.07952,0.00584
3713.04926,0.00572
3712.01901,0.00573
3710.98875,0.00577
3709.95849,0.00594
3708.92823,0.00633
3707.89798,0.00624
3706.86772,0.00582
3705.83746,0.00557
3704.80720,0.00562
3703.77694,0.00615
3702.74669,0.00664
3701.71643,0.00644
3700.68617,0.00601
3699.65591,0.00617
3698.62565,0.00670
3697.59540,0.00694
3696.56514,0.00701
3695.53488,0.00711
3694.50462,0.00700
3693.47437,0.00702
3692.44411,0.00766
3691.41385,0.00832
3690.38359,0.00859
3689.35333,0.00915
3688.32308,0.00979
3687.29282,0.01016
3686.26256,0.01038
3685.23230,0.01051
3684.20205,0.01083
3683.17179,0.01124
3682.14153,0.01130
3681.11127,0.01134
3680.08101,0.01152
3679.05076,0.01150
3678.02050,0.01161
3676.99024,0.01210
3675.95998,0.01303
3674.92972,0.01420
3673.89947,0.01475
3672.86921,0.01494
3671.83895,0.01517
3670.80869,0.01538
3669.77844,0.01532
3668.74818,0.01554
3667.71792,0.01652
3666.68766,0.01782
3665.65740,0.01851
3664.62715,0.01834
3663.59689,0.01860
3662.56663,0.01992
3661.53637,0.02113
3660.50611,0.02160
3659.47586,0.02199
3658.44560,0.02244
3657.41534,0.02278
3656.38508,0.02317
3655.35483,0.02360
3654.32457,0.02394
3653.29431,0.02435
3652.26405,0.02512
3651.23379,0.02640
3650.20354,0.02771
3649.17328,0.02816
3648.14302,0.02776
3647.11276,0.02762
3646.08250,0.02869
3645.05225,0.03005
3644.02199,0.03075
3642.99173,0.03133
3641.96147,0.03204
3640.93122,0.03249
3639.90096,0.03302
3638.87070,0.03398
3637.84044,0.03491
3636.81018,0.03561
3635.77993,0.03629
3634.74967,0.03718
3633.71941,0.03789
3632.68915,0.03800
3631.65890,0.03811
3630.62864,0.03840
3629.59838,0.03885
3628.56812,0.03994
3627.53786,0.04100
3626.50761,0.04173
3625.47735,0.04238
3624.44709,0.04279
3623.41683,0.04330
3622.38657,0.04401
3621.35632,0.04453
3620.32606,0.04478
3619.29580,0.04483
3618.26554,0.04517
3617.23529,0.04634
3616.20503,0.04763
3615.17477,0.04844
3614.14451,0.04926
3613.11425,0.05019
3612.08400,0.05084
3611.05374,0.05113
3610.02348,0.05130
3608.99322,0.05176
3607.96296,0.05267
3606.93271,0.05357
3605.90245,0.05452
3604.87219,0.05563
3603.84193,0.05632
3602.81168,0.05665
3601.78142,0.05718
3600.75116,0.05770
3599.72090,0.05814
3598.69064,0.05907
3597.66039,0.06007
3596.63013,0.06064
3595.59987,0.06114
3594.56961,0.06162
3593.53936,0.06204
3592.50910,0.06264
3591.47884,0.06341
3590.44858,0.06452
3589.41832,0.06606
3588.38807,0.06694
3587.35781,0.06698
3586.32755,0.06763
3585.29729,0.06906
3584.26703,0.07039
3583.23678,0.07139
3582.20652,0.07232
3581.17626,0.07311
3580.14600,0.07362
3579.11575,0.07395
3578.08549,0.07444
3577.05523,0.07556
3576.02497,0.07712
3574.99471,0.07818
3573.96446,0.07874
3572.93420,0.07962
3571.90394,0.08049
3570.87368,0.08094
3569.84342,0.08169
3568.81317,0.08311
3567.78291,0.08424
3566.75265,0.08431
3565.72239,0.08449
3564.69214,0.08555
3563.66188,0.08679
3562.63162,0.08769
3561.60136,0.08844
3560.57110,0.08916
3559.54085,0.08972
3558.51059,0.09022
3557.48033,0.09095
3556.45007,0.09225
3555.41981,0.09419
3554.38956,0.09598
3553.35930,0.09683
3552.32904,0.09720
3551.29878,0.09777
3550.26853,0.09842
3549.23827,0.09931
3548.20801,0.10070
3547.17775,0.10205
3546.14749,0.10325
3545.11724,0.10449
3544.08698,0.10526
3543.05672,0.10554
3542.02646,0.10597
3540.99621,0.10691
3539.96595,0.10808
3538.93569,0.10922
3537.90543,0.11062
3536.87517,0.11199
3535.84492,0.11295
3534.81466,0.11417
3533.78440,0.11577
3532.75414,0.11695
3531.72388,0.11761
3530.69363,0.11831
3529.66337,0.11917
3528.63311,0.12039
3527.60285,0.12204
3526.57260,0.12350
3525.54234,0.12451
3524.51208,0.12540
3523.48182,0.12612
3522.45156,0.12672
3521.42131,0.12770
3520.39105,0.12910
3519.36079,0.13066
3518.33053,0.13223
3517.30027,0.13347
3516.27002,0.13437
3515.23976,0.13538
3514.20950,0.13638
3513.17924,0.13712
3512.14899,0.13797
3511.11873,0.13913
3510.08847,0.14053
3509.05821,0.14214
3508.02795,0.14354
3506.99770,0.14458
3505.96744,0.14515
3504.93718,0.14520
3503.90692,0.14543
3502.87666,0.14647
3501.84641,0.14824
3500.81615,0.14990
3499.78589,0.15097
3498.75563,0.15177
3497.72538,0.15223
3496.69512,0.15256
3495.66486,0.15340
3494.63460,0.15465
3493.60434,0.15582
3492.57409,0.15708
3491.54383,0.15890
3490.51357,0.16061
3489.48331,0.16150
3488.45306,0.16208
3487.42280,0.16283
3486.39254,0.16389
3485.36228,0.16543
3484.33202,0.16702
3483.30177,0.16796
3482.27151,0.16858
3481.24125,0.16959
3480.21099,0.17054
3479.18073,0.17125
3478.15048,0.17221
3477.12022,0.17354
3476.08996,0.17473
3475.05970,0.17547
3474.02945,0.17622
3472.99919,0.17719
3471.96893,0.17824
3470.93867,0.17917
3469.90841,0.18000
3468.87816,0.18091
3467.84790,0.18170
3466.81764,0.18276
3465.78738,0.18452
3464.75712,0.18597
3463.72687,0.18658
3462.69661,0.18739
3461.66635,0.18878
3460.63609,0.19017
3459.60584,0.19133
3458.57558,0.19206
3457.54532,0.19261
3456.51506,0.19367
3455.48480,0.19517
3454.45455,0.19641
3453.42429,0.19715
3452.39403,0.19786
3451.36377,0.19905
3450.33351,0.20046
3449.30326,0.20174
3448.27300,0.20268
3447.24274,0.20329
3446.21248,0.20391
3445.18223,0.20491
3444.15197,0.20621
3443.12171,0.20739
3442.09145,0.20835
3441.06119,0.20913
3440.03094,0.20992
3439.00068,0.21086
3437.97042,0.21178
3436.94016,0.21283
3435.90991,0.21388
3434.87965,0.21468
3433.84939,0.21568
3432.81913,0.21692
3431.78887,0.21809
3430.75862,0.21941
3429.72836,0.22052
3428.69810,0.22141
3427.66784,0.22287
3426.63758,0.22450
3425.60733,0.22559
3424.57707,0.22634
3423.54681,0.22716
3422.51655,0.22809
3421.48630,0.22908
3420.45604,0.23023
3419.42578,0.23118
3418.39552,0.23180
3417.36526,0.23255
3416.33501,0.23377
3415.30475,0.23497
3414.27449,0.23577
3413.24423,0.23686
3412.21397,0.23826
3411.18372,0.23890
3410.15346,0.23879
3409.12320,0.23909
3408.09294,0.24024
3407.06269,0.24145
3406.03243,0.24208
3405.00217,0.24275
3403.97191,0.24390
3402.94165,0.24486
3401.91140,0.24548
3400.88114,0.24608
3399.85088,0.24678
3398.82062,0.24756
3397.79036,0.24831
3396.76011,0.24923
3395.72985,0.25016
3394.69959,0.25082
3393.66933,0.25152
3392.63908,0.25230
3391.60882,0.25323
3390.57856,0.25450
3389.54830,0.25574
3388.51804,0.25633
3387.48779,0.25642
3386.45753,0.25680
3385.42727,0.25746
3384.39701,0.25808
3383.36676,0.25863
3382.33650,0.25937
3381.30624,0.26052
3380.27598,0.26161
3379.24572,0.26213
3378.21547,0.26252
3377.18521,0.26319
3376.15495,0.26369
3375.12469,0.26405
3374.09443,0.26436
3373.06418,0.26423
3372.03392,0.26422
3371.00366,0.26487
3369.97340,0.26586
3368.94315,0.26642
3367.91289,0.26635
3366.88263,0.26657
3365.85237,0.26745
3364.82211,0.26806
3363.79186,0.26793
3362.76160,0.26808
3361.73134,0.26889
3360.70108,0.26961
3359.67082,0.27022
3358.64057,0.27108
3357.61031,0.27151
3356.58005,0.27148
3355.54979,0.27183
3354.51954,0.27235
3353.48928,0.27244
3352.45902,0.27223
3351.42876,0.27203
3350.39850,0.27213
3349.36825,0.27275
3348.33799,0.27344
3347.30773,0.27379
3346.27747,0.27410
3345.24721,0.27463
3344.21696,0.27480
3343.18670,0.27433
3342.15644,0.27424
3341.12618,0.27494
3340.09593,0.27559
3339.06567,0.27596
3338.03541,0.27617
3337.00515,0.27586
3335.97489,0.27542
3334.94464,0.27584
3333.91438,0.27677
3332.88412,0.27730
3331.85386,0.27739
3330.82361,0.27757
3329.79335,0.27821
3328.76309,0.27884
3327.73283,0.27866
3326.70257,0.27822
3325.67232,0.27836
3324.64206,0.27895
3323.61180,0.27934
3322.58154,0.27914
3321.55128,0.27900
3320.52103,0.27928
3319.49077,0.27920
3318.46051,0.27888
3317.43025,0.27901
3316.40000,0.27905
3315.36974,0.27888
3314.33948,0.27911
3313.30922,0.27945
3312.27896,0.27984
3311.24871,0.28028
3310.21845,0.28046
3309.18819,0.28038
3308.15793,0.28003
3307.12767,0.27974
3306.09742,0.27978
3305.06716,0.27999
3304.03690,0.28025
3303.00664,0.28074
3301.97639,0.28124
3300.94613,0.28161
3299.91587,0.28220
3298.88561,0.28271
3297.85535,0.28260
3296.82510,0.28222
3295.79484,0.28250
3294.76458,0.28333
3293.73432,0.28379
3292.70406,0.28400
3291.67381,0.28458
3290.64355,0.28527
3289.61329,0.28532
3288.58303,0.28476
3287.55278,0.28468
3286.52252,0.28531
3285.49226,0.28585
3284.46200,0.28635
3283.43174,0.28685
3282.40149,0.28686
3281.37123,0.28628
3280.34097,0.28542
3279.31071,0.28504
3278.28046,0.28544
3277.25020,0.28582
3276.21994,0.28594
3275.18968,0.28625
3274.15942,0.28665
3273.12917,0.28677
3272.09891,0.28662
3271.06865,0.28672
3270.03839,0.28735
3269.00813,0.28806
3267.97788,0.28849
3266.94762,0.28860
3265.91736,0.28878
3264.88710,0.28931
3263.85685,0.28973
3262.82659,0.28963
3261.79633,0.28908
3260.76607,0.28879
3259.73581,0.28911
3258.70556,0.28933
3257.67530,0.28909
3256.64504,0.28893
3255.61478,0.28914
3254.58452,0.28938
3253.55427,0.28943
3252.52401,0.28938
3251.49375,0.28950
3250.46349,0.28977
3249.43324,0.28977
3248.40298,0.28930
3247.37272,0.28888
3246.34246,0.28893
3245.31220,0.28913
3244.28195,0.28956
3243.25169,0.29007
3242.22143,0.28968
3241.19117,0.28883
3240.16092,0.28897
3239.13066,0.28977
3238.10040,0.28982
3237.07014,0.28901
3236.03988,0.28834
3235.00963,0.28819
3233.97937,0.28805
3232.94911,0.28798
3231.91885,0.28836
3230.88859,0.28866
3229.85834,0.28862
3228.82808,0.28821
3227.79782,0.28751
3226.76756,0.28703
3225.73731,0.28679
3224.70705,0.28701
3223.67679,0.28750
3222.64653,0.28699
3221.61627,0.28603
3220.58602,0.28612
3219.55576,0.28618
3218.52550,0.28527
3217.49524,0.28442
3216.46498,0.28403
3215.43473,0.28414
3214.40447,0.28455
3213.37421,0.28462
3212.34395,0.28422
3211.31370,0.28366
3210.28344,0.28352
3209.25318,0.28347
3208.22292,0.28277
3207.19266,0.28204
3206.16241,0.28162
3205.13215,0.28098
3204.10189,0.28037
3203.07163,0.27996
3202.04137,0.27969
3201.01112,0.27946
3199.98086,0.27871
3198.95060,0.27752
3197.92034,0.27682
3196.89009,0.27698
3195.85983,0.27727
3194.82957,0.27710
3193.79931,0.27676
3192.76905,0.27647
3191.73880,0.27605
3190.70854,0.27549
3189.67828,0.27502
3188.64802,0.27469
3187.61777,0.27408
3186.58751,0.27315
3185.55725,0.27232
3184.52699,0.27147
3183.49673,0.27068
3182.46648,0.27011
3181.43622,0.26979
3180.40596,0.26959
3179.37570,0.26897
3178.34544,0.26789
3177.31519,0.26707
3176.28493,0.26708
3175.25467,0.26708
3174.22441,0.26645
3173.19416,0.26588
3172.16390,0.26530
3171.13364,0.26447
3170.10338,0.26360
3169.07312,0.26257
3168.04287,0.26152
3167.01261,0.26077
3165.98235,0.26026
3164.95209,0.25994
3163.92183,0.25962
3162.89158,0.25893
3161.86132,0.25829
3160.83106,0.25799
3159.80080,0.25775
3158.77055,0.25737
3157.74029,0.25652
3156.71003,0.25536
3155.67977,0.25434
3154.64951,0.25338
3153.61926,0.25244
3152.58900,0.25181
3151.55874,0.25159
3150.52848,0.25150
3149.49822,0.25118
3148.46797,0.25054
3147.43771,0.24980
3146.40745,0.24917
3145.37719,0.24823
3144.34694,0.24703
3143.31668,0.24604
3142.28642,0.24505
3141.25616,0.24413
3140.22590,0.24361
3139.19565,0.24352
3138.16539,0.24358
3137.13513,0.24329
3136.10487,0.24248
3135.07462,0.24150
3134.04436,0.24073
3133.01410,0.24013
3131.98384,0.23942
3130.95358,0.23848
3129.92333,0.23768
3128.89307,0.23727
3127.86281,0.23671
3126.83255,0.23584
3125.80229,0.23525
3124.77204,0.23503
3123.74178,0.23454
3122.71152,0.23324
3121.68126,0.23186
3120.65101,0.23093
3119.62075,0.22999
3118.59049,0.22914
3117.56023,0.22890
3116.52997,0.22909
3115.49972,0.22860
3114.46946,0.22722
3113.43920,0.22611
3112.40894,0.22567
3111.37868,0.22554
3110.34843,0.22516
3109.31817,0.22429
3108.28791,0.22335
3107.25765,0.22259
3106.22740,0.22193
3105.19714,0.22121
3104.16688,0.22023
3103.13662,0.21945
3102.10636,0.21916
3101.07611,0.21888
3100.04585,0.21840
3099.01559,0.21778
3097.98533,0.21703
3096.95507,0.21627
3095.92482,0.21531
3094.89456,0.21402
3093.86430,0.21295
3092.83404,0.21228
3091.80379,0.21165
3090.77353,0.21086
3089.74327,0.20998
3088.71301,0.20923
3087.68275,0.20867
3086.65250,0.20824
3085.62224,0.20780
3084.59198,0.20708
3083.56172,0.20625
3082.53147,0.20558
3081.50121,0.20467
3080.47095,0.20334
3079.44069,0.20233
3078.41043,0.20205
3077.38018,0.20203
3076.34992,0.20171
3075.31966,0.20115
3074.28940,0.20048
3073.25914,0.19940
3072.22889,0.19838
3071.19863,0.19796
3070.16837,0.19726
3069.13811,0.19583
3068.10786,0.19471
3067.07760,0.19442
3066.04734,0.19431
3065.01708,0.19392
3063.98682,0.19336
3062.95657,0.19249
3061.92631,0.19100
3060.89605,0.18976
3059.86579,0.18959
3058.83553,0.18966
3057.80528,0.18914
3056.77502,0.18816
3055.74476,0.18716
3054.71450,0.18658
3053.68425,0.18635
3052.65399,0.18590
3051.62373,0.18512
3050.59347,0.18454
3049.56321,0.18439
3048.53296,0.18399
3047.50270,0.18336
3046.47244,0.18298
3045.44218,0.18252
3044.41192,0.18169
3043.38167,0.18100
3042.35141,0.18077
3041.32115,0.18055
3040.29089,0.18005
3039.26064,0.17941
3038.23038,0.17862
3037.20012,0.17806
3036.16986,0.17801
3035.13960,0.17785
3034.10935,0.17724
3033.07909,0.17660
3032.04883,0.17617
3031.01857,0.17590
3029.98832,0.17553
3028.95806,0.17479
3027.92780,0.17389
3026.89754,0.17328
3025.86728,0.17266
3024.83703,0.17179
3023.80677,0.17103
3022.77651,0.17029
3021.74625,0.16923
3020.71599,0.16792
3019.68574,0.16675
3018.65548,0.16583
3017.62522,0.16516
3016.59496,0.16460
3015.56471,0.16370
3014.53445,0.16264
3013.50419,0.16176
3012.47393,0.16106
3011.44367,0.16026
3010.41342,0.15935
3009.38316,0.15874
3008.35290,0.15843
3007.32264,0.15804
3006.29238,0.15733
3005.26213,0.15613
3004.23187,0.15483
3003.20161,0.15395
3002.17135,0.15335
3001.14110,0.15301
3000.11084,0.15267
2999.08058,0.15173
2998.05032,0.15068
2997.02006,0.15012
2995.98981,0.14955
2994.95955,0.14872
2993.92929,0.14790
2992.89903,0.14710
2991.86877,0.14619
2990.83852,0.14525
2989.80826,0.14463
2988.77800,0.14439
2987.74774,0.14398
2986.71749,0.14302
2985.68723,0.14214
2984.65697,0.14162
2983.62671,0.14107
2982.59645,0.14064
2981.56620,0.14032
2980.53594,0.13943
2979.50568,0.13845
2978.47542,0.13830
2977.44517,0.13846
2976.41491,0.13825
2975.38465,0.13780
2974.35439,0.13748
2973.32413,0.13727
2972.29388,0.13694
2971.26362,0.13654
2970.23336,0.13612
2969.20310,0.13558
2968.17284,0.13526
2967.14259,0.13558
2966.11233,0.13594
2965.08207,0.13551
2964.05181,0.13489
2963.02156,0.13477
2961.99130,0.13475
2960.96104,0.13446
2959.93078,0.13382
2958.90052,0.13263
2957.87027,0.13110
2956.84001,0.12987
2955.80975,0.12918
2954.77949,0.12846
2953.74923,0.12720
2952.71898,0.12602
2951.68872,0.12557
2950.65846,0.12513
2949.62820,0.12412
2948.59795,0.12307
2947.56769,0.12242
2946.53743,0.12178
2945.50717,0.12085
2944.47691,0.11988
2943.44666,0.11900
2942.41640,0.11800
2941.38614,0.11694
2940.35588,0.11611
2939.32562,0.11524
2938.29537,0.11417
2937.26511,0.11334
2936.23485,0.11319
2935.20459,0.11328
2934.17434,0.11282
2933.14408,0.11208
2932.11382,0.11143
2931.08356,0.11084
2930.05330,0.11022
2929.02305,0.10962
2927.99279,0.10897
2926.96253,0.10808
2925.93227,0.10734
2924.90202,0.10688
2923.87176,0.10648
2922.84150,0.10619
2921.81124,0.10563
2920.78098,0.10461
2919.75073,0.10381
2918.72047,0.10329
2917.69021,0.10258
2916.65995,0.10189
2915.62969,0.10128
2914.59944,0.10087
2913.56918,0.10078
2912.53892,0.10023
2911.50866,0.09912
2910.47841,0.09830
2909.44815,0.09782
2908.41789,0.09737
2907.38763,0.09686
2906.35737,0.09620
2905.32712,0.09540
2904.29686,0.09467
2903.26660,0.09401
2902.23634,0.09337
2901.20608,0.09288
2900.17583,0.09226
2899.14557,0.09161
2898.11531,0.09146
2897.08505,0.09146
2896.05480,0.09119
2895.02454,0.09062
2893.99428,0.08967
2892.96402,0.08873
2891.93376,0.08845
2890.90351,0.08848
2889.87325,0.08832
2888.84299,0.08776
2887.81273,0.08681
2886.78247,0.08598
2885.75222,0.08545
2884.72196,0.08482
2883.69170,0.08424
2882.66144,0.08400
2881.63119,0.08375
2880.60093,0.08333
2879.57067,0.08285
2878.54041,0.08230
2877.51015,0.08170
2876.47990,0.08092
2875.44964,0.08019
2874.41938,0.07987
2873.38912,0.07963
2872.35887,0.07925
2871.32861,0.07880
2870.29835,0.07830
2869.26809,0.07784
2868.23783,0.07743
2867.20758,0.07701
2866.17732,0.07654
2865.14706,0.07602
2864.11680,0.07567
2863.08654,0.07545
2862.05629,0.07505
2861.02603,0.07437
2859.99577,0.07358
2858.96551,0.07287
2857.93526,0.07241
2856.90500,0.07201
2855.87474,0.07147
2854.84448,0.07103
2853.81422,0.07099
2852.78397,0.07094
2851.75371,0.07019
2850.72345,0.06905
2849.69319,0.06849
2848.66293,0.06841
2847.63268,0.06829
2846.60242,0.06821
2845.57216,0.06787
2844.54190,0.06720
2843.51165,0.06681
2842.48139,0.06662
2841.45113,0.06609
2840.42087,0.06526
2839.39061,0.06449
2838.36036,0.06406
2837.33010,0.06395
2836.29984,0.06396
2835.26958,0.06372
2834.23933,0.06315
2833.20907,0.06263
2832.17881,0.06217
2831.14855,0.06162
2830.11829,0.06122
2829.08804,0.06101
2828.05778,0.06077
2827.02752,0.06048
2825.99726,0.06013
2824.96700,0.05959
2823.93675,0.05868
2822.90649,0.05781
2821.87623,0.05761
2820.84597,0.05788
2819.81572,0.05778
2818.78546,0.05715
2817.75520,0.05656
2816.72494,0.05629
2815.69468,0.05609
2814.66443,0.05590
2813.63417,0.05575
2812.60391,0.05541
2811.57365,0.05484
2810.54339,0.05445
2809.51314,0.05424
2808.48288,0.05385
2807.45262,0.05345
2806.42236,0.05320
2805.39211,0.05287
2804.36185,0.05230
2803.33159,0.05170
2802.30133,0.05142
2801.27107,0.05141
2800.24082,0.05141
2799.21056,0.05122
2798.18030,0.05086
2797.15004,0.05046
2796.11978,0.05009
2795.08953,0.04981
2794.05927,0.04955
2793.02901,0.04906
2791.99875,0.04855
2790.96850,0.04841
2789.93824,0.04834
2788.90798,0.04804
2787.87772,0.04761
2786.84746,0.04718
2785.81721,0.04680
2784.78695,0.04648
2783.75669,0.04615
2782.72643,0.04581
2781.69618,0.04561
2780.66592,0.04546
2779.63566,0.04522
2778.60540,0.04491
2777.57514,0.04443
2776.54489,0.04384
2775.51463,0.04359
2774.48437,0.04374
2773.45411,0.04372
2772.42385,0.04342
2771.39360,0.04307
2770.36334,0.04264
2769.33308,0.04223
2768.30282,0.04186
2767.27257,0.04157
2766.24231,0.04140
2765.21205,0.04130
2764.18179,0.04114
2763.15153,0.04098
2762.12128,0.04083
2761.09102,0.04048
2760.06076,0.04010
2759.03050,0.03979
2758.00024,0.03946
2756.96999,0.03934
2755.93973,0.03939
2754.90947,0.03928
2753.87921,0.03903
2752.84896,0.03878
2751.81870,0.03838
2750.78844,0.03775
2749.75818,0.03714
2748.72792,0.03686
2747.69767,0.03701
2746.66741,0.03730
2745.63715,0.03721
2744.60689,0.03691
2743.57663,0.03673
2742.54638,0.03665
2741.51612,0.03659
2740.48586,0.03636
2739.45560,0.03599
2738.42535,0.03562
2737.39509,0.03528
2736.36483,0.03509
2735.33457,0.03489
2734.30431,0.03451
2733.27406,0.03416
2732.24380,0.03392
2731.21354,0.03379
2730.18328,0.03376
2729.15303,0.03359
2728.12277,0.03342
2727.09251,0.03346
2726.06225,0.03345
2725.03199,0.03326
2724.00174,0.03300
2722.97148,0.03260
2721.94122,0.03211
2720.91096,0.03182
2719.88070,0.03178
2718.85045,0.03192
2717.82019,0.03204
2716.78993,0.03178
2715.75967,0.03121
2714.72942,0.03076
2713.69916,0.03070
2712.66890,0.03088
2711.63864,0.03079
2710.60838,0.03043
2709.57813,0.03035
2708.54787,0.03037
2707.51761,0.02995
2706.48735,0.02965
2705.45709,0.02994
2704.42684,0.03010
2703.39658,0.02967
2702.36632,0.02919
2701.33606,0.02895
2700.30581,0.02868
2699.27555,0.02835
2698.24529,0.02814
2697.21503,0.02795
2696.18477,0.02774
2695.15452,0.02764
2694.12426,0.02758
2693.09400,0.02743
2692.06374,0.02723
2691.03348,0.02701
2690.00323,0.02678
2688.97297,0.02669
2687.94271,0.02664
2686.91245,0.02646
2685.88220,0.02626
2684.85194,0.02616
2683.82168,0.02614
2682.79142,0.02614
2681.76116,0.02600
2680.73091,0.02585
2679.70065,0.02585
2678.67039,0.02586
2677.64013,0.02574
2676.60988,0.02542
2675.57962,0.02510
2674.54936,0.02504
2673.51910,0.02497
2672.48884,0.02475
2671.45859,0.02453
2670.42833,0.02434
2669.39807,0.02430
2668.36781,0.02442
2667.33755,0.02435
2666.30730,0.02417
2665.27704,0.02411
2664.24678,0.02398
2663.21652,0.02372
2662.18627,0.02348
2661.15601,0.02321
2660.12575,0.02297
2659.09549,0.02282
2658.06523,0.02269
2657.03498,0.02262
2656.00472,0.02241
2654.97446,0.02203
2653.94420,0.02168
2652.91394,0.02146
2651.88369,0.02150
2650.85343,0.02182
2649.82317,0.02212
2648.79291,0.02214
2647.76266,0.02179
2646.73240,0.02126
2645.70214,0.02086
2644.67188,0.02084
2643.64162,0.02120
2642.61137,0.02138
2641.58111,0.02106
2640.55085,0.02084
2639.52059,0.02089
2638.49033,0.02072
2637.46008,0.02039
2636.42982,0.02027
2635.39956,0.02049
2634.36930,0.02075
2633.33905,0.02073
2632.30879,0.02037
2631.27853,0.01995
2630.24827,0.01979
2629.21801,0.01972
2628.18776,0.01944
2627.15750,0.01924
2626.12724,0.01938
2625.09698,0.01941
2624.06673,0.01924
2623.03647,0.01924
2622.00621,0.01937
2620.97595,0.01945
2619.94569,0.01946
2618.91544,0.01933
2617.88518,0.01883
2616.85492,0.01815
2615.82466,0.01805
2614.79440,0.01848
2613.76415,0.01858
2612.73389,0.01840
2611.70363,0.01838
2610.67337,0.01853
2609.64312,0.01872
2608.61286,0.01864
2607.58260,0.01818
2606.55234,0.01795
2605.52208,0.01825
2604.49183,0.01831
2603.46157,0.01753
2602.43131,0.01659
2601.40105,0.01661
2600.37079,0.01746
2599.34054,0.01822
2598.31028,0.01848
2597.28002,0.01825
2596.24976,0.01802
2595.21951,0.01782
2594.18925,0.01727
2593.15899,0.01681
2592.12873,0.01699
2591.09847,0.01745
2590.06822,0.01755
2589.03796,0.01726
2588.00770,0.01680
2586.97744,0.01655
2585.94718,0.01664
2584.91693,0.01684
2583.88667,0.01704
2582.85641,0.01723
2581.82615,0.01751
2580.79590,0.01774
2579.76564,0.01754
2578.73538,0.01706
2577.70512,0.01681
2576.67486,0.01661
2575.64461,0.01628
2574.61435,0.01612
2573.58409,0.01629
2572.55383,0.01645
2571.52358,0.01635
2570.49332,0.01645
2569.46306,0.01698
2568.43280,0.01757
2567.40254,0.01779
2566.37229,0.01744
2565.34203,0.01663
2564.31177,0.01588
2563.28151,0.01551
2562.25125,0.01539
2561.22100,0.01568
2560.19074,0.01615
2559.16048,0.01640
2558.13022,0.01664
2557.09997,0.01696
2556.06971,0.01718
2555.03945,0.01714
2554.00919,0.01692
2552.97893,0.01670
2551.94868,0.01639
2550.91842,0.01589
2549.88816,0.01568
2548.85790,0.01619
2547.82764,0.01675
2546.79739,0.01673
2545.76713,0.01635
2544.73687,0.01573
2543.70661,0.01515
2542.67636,0.01525
2541.64610,0.01581
2540.61584,0.01613
2539.58558,0.01621
2538.55532,0.01613
2537.52507,0.01598
2536.49481,0.01590
2535.46455,0.01579
2534.43429,0.01579
2533.40403,0.01601
2532.37378,0.01607
2531.34352,0.01573
2530.31326,0.01559
2529.28300,0.01597
2528.25275,0.01617
2527.22249,0.01598
2526.19223,0.01617
2525.16197,0.01650
2524.13171,0.01641
2523.10146,0.01620
2522.07120,0.01622
2521.04094,0.01655
2520.01068,0.01691
2518.98043,0.01686
2517.95017,0.01665
2516.91991,0.01678
2515.88965,0.01690
2514.85939,0.01683
2513.82914,0.01687
2512.79888,0.01683
2511.76862,0.01663
2510.73836,0.01644
2509.70810,0.01634
2508.67785,0.01641
2507.64759,0.01640
2506.61733,0.01617
2505.58707,0.01604
2504.55682,0.01606
2503.52656,0.01600
2502.49630,0.01606
2501.46604,0.01601
2500.43578,0.01589
2499.40553,0.01616
2498.37527,0.01648
2497.34501,0.01630
2496.31475,0.01585
2495.28449,0.01563
2494.25424,0.01549
2493.22398,0.01545
2492.19372,0.01565
2491.16346,0.01569
2490.13321,0.01526
2489.10295,0.01471
2488.07269,0.01463
2487.04243,0.01499
2486.01217,0.01529
2484.98192,0.01531
2483.95166,0.01539
2482.92140,0.01593
2481.89114,0.01632
2480.86088,0.01601
2479.83063,0.01544
2478.80037,0.01488
2477.77011,0.01444
2476.73985,0.01457
2475.70960,0.01520
2474.67934,0.01558
2473.64908,0.01547
2472.61882,0.01553
2471.58856,0.01559
2470.55831,0.01518
2469.52805,0.01489
2468.49779,0.01519
2467.46753,0.01538
2466.43728,0.01551
2465.40702,0.01634
2464.37676,0.01712
2463.34650,0.01717
2462.31624,0.01715
2461.28599,0.01702
2460.25573,0.01631
2459.22547,0.01570
2458.19521,0.01591
2457.16495,0.01631
2456.13470,0.01611
2455.10444,0.01564
2454.07418,0.01551
2453.04392,0.01566
2452.01367,0.01621
2450.98341,0.01686
2449.95315,0.01696
2448.92289,0.01661
2447.89263,0.01617
2446.86238,0.01595
2445.83212,0.01603
2444.80186,0.01597
2443.77160,0.01579
2442.74134,0.01600
2441.71109,0.01622
2440.68083,0.01620
2439.65057,0.01625
2438.62031,0.01641
2437.59006,0.01658
2436.55980,0.01672
2435.52954,0.01664
2434.49928,0.01641
2433.46902,0.01659
2432.43877,0.01708
2431.40851,0.01749
2430.37825,0.01781
2429.34799,0.01770
2428.31774,0.01696
2427.28748,0.01640
2426.25722,0.01657
2425.22696,0.01691
2424.19670,0.01718
2423.16645,0.01765
2422.13619,0.01792
2421.10593,0.01752
2420.07567,0.01704
2419.04541,0.01706
2418.01516,0.01725
2416.98490,0.01751
2415.95464,0.01806
2414.92438,0.01837
2413.89413,0.01813
2412.86387,0.01788
2411.83361,0.01793
2410.80335,0.01795
2409.77309,0.01762
2408.74284,0.01727
2407.71258,0.01746
2406.68232,0.01776
2405.65206,0.01769
2404.62180,0.01764
2403.59155,0.01762
2402.56129,0.01764
2401.53103,0.01799
2400.50077,0.01846
2399.47052,0.01865
2398.44026,0.01839
2397.41000,0.01823
2396.37974,0.01855
2395.34948,0.01875
2394.31923,0.01856
2393.28897,0.01858
2392.25871,0.01878
2391.22845,0.01872
2390.19819,0.01896
2389.16794,0.01950
2388.13768,0.01944
2387.10742,0.01907
2386.07716,0.01924
2385.04691,0.01957
2384.01665,0.01958
2382.98639,0.01954
2381.95613,0.01959
2380.92587,0.01934
2379.89562,0.01840
2378.86536,0.01752
2377.83510,0.01764
2376.80484,0.01807
2375.77459,0.01842
2374.74433,0.01914
2373.71407,0.01979
2372.68381,0.01981
2371.65355,0.01966
2370.62330,0.01979
2369.59304,0.02014
2368.56278,0.02031
2367.53252,0.02032
2366.50226,0.02078
2365.47201,0.02134
2364.44175,0.02086
2363.41149,0.01948
2362.38123,0.01899
2361.35098,0.01959
2360.32072,0.02036
2359.29046,0.02124
2358.26020,0.02154
2357.22994,0.02120
2356.19969,0.02072
2355.16943,0.02009
2354.13917,0.01975
2353.10891,0.02009
2352.07865,0.02082
2351.04840,0.02136
2350.01814,0.02154
2348.98788,0.02175
2347.95762,0.02212
2346.92737,0.02257
2345.89711,0.02257
2344.86685,0.02170
2343.83659,0.02092
2342.80633,0.02082
2341.77608,0.02103
2340.74582,0.02114
2339.71556,0.02111
2338.68530,0.02136
2337.65504,0.02182
2336.62479,0.02184
2335.59453,0.02147
2334.56427,0.02116
2333.53401,0.02091
2332.50376,0.02105
2331.47350,0.02177
2330.44324,0.02273
2329.41298,0.02325
2328.38272,0.02293
2327.35247,0.02229
2326.32221,0.02215
2325.29195,0.02240
2324.26169,0.02236
2323.23144,0.02226
2322.20118,0.02256
2321.17092,0.02284
2320.14066,0.02268
2319.11040,0.02228
2318.08015,0.02233
2317.04989,0.02279
2316.01963,0.02295
2314.98937,0.02254
2313.95911,0.02189
2312.92886,0.02189
2311.89860,0.02272
2310.86834,0.02308
2309.83808,0.02270
2308.80783,0.02247
2307.77757,0.02253
2306.74731,0.02256
2305.71705,0.02280
2304.68679,0.02333
2303.65654,0.02363
2302.62628,0.02377
2301.59602,0.02383
2300.56576,0.02366
2299.53550,0.02340
2298.50525,0.02295
2297.47499,0.02276
2296.44473,0.02309
2295.41447,0.02352
2294.38422,0.02385
2293.35396,0.02411
2292.32370,0.02435
2291.29344,0.02458
2290.26318,0.02502
2289.23293,0.02550
2288.20267,0.02520
2287.17241,0.02461
2286.14215,0.02450
2285.11189,0.02448
2284.08164,0.02435
2283.05138,0.02425
2282.02112,0.02430
2280.99086,0.02456
2279.96061,0.02479
2278.93035,0.02468
2277.90009,0.02447
2276.86983,0.02441
2275.83957,0.02446
2274.80932,0.02430
2273.77906,0.02381
2272.74880,0.02351
2271.71854,0.02360
2270.68829,0.02432
2269.65803,0.02524
2268.62777,0.02488
2267.59751,0.02389
2266.56725,0.02387
2265.53700,0.02419
2264.50674,0.02422
2263.47648,0.02477
2262.44622,0.02525
2261.41596,0.02466
2260.38571,0.02410
2259.35545,0.02423
2258.32519,0.02462
2257.29493,0.02507
2256.26468,0.02482
2255.23442,0.02423
2254.20416,0.02471
2253.17390,0.02535
2252.14364,0.02491
2251.11339,0.02442
2250.08313,0.02479
2249.05287,0.02522
2248.02261,0.02525
2246.99235,0.02546
2245.96210,0.02601
2244.93184,0.02673
2243.90158,0.02702
2242.87132,0.02683
2241.84107,0.02653
2240.81081,0.02596
2239.78055,0.02618
2238.75029,0.02750
2237.72003,0.02819
2236.68978,0.02802
2235.65952,0.02820
2234.62926,0.02857
2233.59900,0.02780
2232.56874,0.02607
2231.53849,0.02505
2230.50823,0.02522
2229.47797,0.02593
2228.44771,0.02651
2227.41746,0.02646
2226.38720,0.02621
2225.35694,0.02611
2224.32668,0.02641
2223.29642,0.02728
2222.26617,0.02797
2221.23591,0.02846
2220.20565,0.02887
2219.17539,0.02850
2218.14514,0.02803
2217.11488,0.02825
2216.08462,0.02795
2215.05436,0.02630
2214.02410,0.02489
2212.99385,0.02486
2211.96359,0.02528
2210.93333,0.02613
2209.90307,0.02713
2208.87281,0.02648
2207.84256,0.02495
2206.81230,0.02443
2205.78204,0.02483
2204.75178,0.02601
2203.72153,0.02829
2202.69127,0.03054
2201.66101,0.03116
2200.63075,0.02982
2199.60049,0.02797
2198.57024,0.02774
2197.53998,0.02808
2196.50972,0.02733
2195.47946,0.02627
2194.44920,0.02591
2193.41895,0.02690
2192.38869,0.02876
2191.35843,0.03006
2190.32817,0.02961
2189.29792,0.02791
2188.26766,0.02727
2187.23740,0.02792
2186.20714,0.02755
2185.17688,0.02700
2184.14663,0.02863
2183.11637,0.03095
2182.08611,0.03133
2181.05585,0.02931
2180.02559,0.02703
2178.99534,0.02732
2177.96508,0.02887
2176.93482,0.02883
2175.90456,0.02796
2174.87431,0.02751
2173.84405,0.02770
2172.81379,0.02734
2171.78353,0.02550
2170.75327,0.02491
2169.72302,0.02656
2168.69276,0.02798
2167.66250,0.02835
2166.63224,0.02846
2165.60199,0.02867
2164.57173,0.02908
2163.54147,0.02955
2162.51121,0.02879
2161.48095,0.02740
2160.45070,0.02766
2159.42044,0.02769
2158.39018,0.02564
2157.35992,0.02376
2156.32966,0.02372
2155.29941,0.02514
2154.26915,0.02700
2153.23889,0.02929
2152.20863,0.03166
2151.17838,0.03183
2150.14812,0.02912
2149.11786,0.02703
2148.08760,0.02696
2147.05734,0.02712
2146.02709,0.02720
2144.99683,0.02636
2143.96657,0.02522
2142.93631,0.02632
2141.90605,0.02808
2140.87580,0.02819
2139.84554,0.02773
2138.81528,0.02768
2137.78502,0.02774
2136.75477,0.02745
2135.72451,0.02669
2134.69425,0.02590
2133.66399,0.02581
2132.63373,0.02600
2131.60348,0.02598
2130.57322,0.02632
2129.54296,0.02648
2128.51270,0.02579
2127.48244,0.02472
2126.45219,0.02416
2125.42193,0.02458
2124.39167,0.02551
2123.36141,0.02652
2122.33116,0.02730
2121.30090,0.02730
2120.27064,0.02682
2119.24038,0.02603
2118.21012,0.02485
2117.17987,0.02475
2116.14961,0.02540
2115.11935,0.02519
2114.08909,0.02478
2113.05884,0.02478
2112.02858,0.02465
2110.99832,0.02404
2109.96806,0.02348
2108.93780,0.02382
2107.90755,0.02476
2106.87729,0.02474
2105.84703,0.02348
2104.81677,0.02261
2103.78651,0.02258
2102.75626,0.02264
2101.72600,0.02312
2100.69574,0.02378
2099.66548,0.02362
2098.63523,0.02324
2097.60497,0.02331
2096.57471,0.02370
2095.54445,0.02437
2094.51419,0.02488
2093.48394,0.02461
2092.45368,0.02360
2091.42342,0.02309
2090.39316,0.02377
2089.36290,0.02426
2088.33265,0.02355
2087.30239,0.02237
2086.27213,0.02198
2085.24187,0.02243
2084.21162,0.02261
2083.18136,0.02187
2082.15110,0.02083
2081.12084,0.02086
2080.09058,0.02190
2079.06033,0.02242
2078.03007,0.02239
2076.99981,0.02231
2075.96955,0.02201
2074.93930,0.02188
2073.90904,0.02192
2072.87878,0.02164
2071.84852,0.02114
2070.81826,0.02018
2069.78801,0.01901
2068.75775,0.01923
2067.72749,0.02117
2066.69723,0.02254
2065.66697,0.02127
2064.63672,0.01932
2063.60646,0.01968
2062.57620,0.02104
2061.54594,0.02133
2060.51569,0.02061
2059.48543,0.01951
2058.45517,0.01902
2057.42491,0.01902
2056.39465,0.01917
2055.36440,0.01968
2054.33414,0.01996
2053.30388,0.01982
2052.27362,0.01953
2051.24336,0.01912
2050.21311,0.01805
2049.18285,0.01660
2048.15259,0.01679
2047.12233,0.01878
2046.09208,0.02063
2045.06182,0.02061
2044.03156,0.01934
2043.00130,0.02007
2041.97104,0.02233
2040.94079,0.02252
2039.91053,0.02064
2038.88027,0.01838
2037.85001,0.01760
2036.81975,0.01906
2035.78950,0.02020
2034.75924,0.02051
2033.72898,0.02060
2032.69872,0.02010
2031.66847,0.02025
2030.63821,0.02001
2029.60795,0.01727
2028.57769,0.01330
2027.54743,0.01083
2026.51718,0.01156
2025.48692,0.01459
2024.45666,0.01649
2023.42640,0.01649
2022.39615,0.01692
2021.36589,0.01904
2020.33563,0.02238
2019.30537,0.02328
2018.27511,0.01967
2017.24486,0.01620
2016.21460,0.01593
2015.18434,0.01517
2014.15408,0.01362
2013.12382,0.01481
2012.09357,0.01659
2011.06331,0.01581
2010.03305,0.01468
2009.00279,0.01604
2007.97254,0.01724
2006.94228,0.01661
2005.91202,0.01678
2004.88176,0.01751
2003.85150,0.01766
2002.82125,0.01690
2001.79099,0.01511
2000.76073,0.01300
1999.73047,0.01216
1998.70021,0.01341
1997.66996,0.01498
1996.63970,0.01629
1995.60944,0.01718
1994.57918,0.01658
1993.54893,0.01575
1992.51867,0.01565
1991.48841,0.01465
1990.45815,0.01323
1989.42789,0.01352
1988.39764,0.01416
1987.36738,0.01316
1986.33712,0.01230
1985.30686,0.01354
1984.27660,0.01507
1983.24635,0.01489
1982.21609,0.01531
1981.18583,0.01667
1980.15557,0.01568
1979.12532,0.01279
1978.09506,0.01131
1977.06480,0.01225
1976.03454,0.01338
1975.00428,0.01302
1973.97403,0.01272
1972.94377,0.01373
1971.91351,0.01496
1970.88325,0.01580
1969.85300,0.01578
1968.82274,0.01558
1967.79248,0.01729
1966.76222,0.01846
1965.73196,0.01732
1964.70171,0.01665
1963.67145,0.01683
1962.64119,0.01710
1961.61093,0.01733
1960.58067,0.01673
1959.55042,0.01606
1958.52016,0.01672
1957.48990,0.01830
1956.45964,0.01950
1955.42939,0.01883
1954.39913,0.01684
1953.36887,0.01616
1952.33861,0.01630
1951.30835,0.01560
1950.27810,0.01482
1949.24784,0.01481
1948.21758,0.01504
1947.18732,0.01487
1946.15706,0.01487
1945.12681,0.01500
1944.09655,0.01459
1943.06629,0.01456
1942.03603,0.01553
1941.00578,0.01593
1939.97552,0.01521
1938.94526,0.01399
1937.91500,0.01316
1936.88474,0.01360
1935.85449,0.01413
1934.82423,0.01395
1933.79397,0.01386
1932.76371,0.01394
1931.73345,0.01393
1930.70320,0.01402
1929.67294,0.01429
1928.64268,0.01472
1927.61242,0.01532
1926.58217,0.01550
1925.55191,0.01498
1924.52165,0.01427
1923.49139,0.01363
1922.46113,0.01328
1921.43088,0.01396
1920.40062,0.01514
1919.37036,0.01506
1918.34010,0.01409
1917.30985,0.01416
1916.27959,0.01488
1915.24933,0.01512
1914.21907,0.01531
1913.18881,0.01566
1912.15856,0.01560
1911.12830,0.01533
1910.09804,0.01527
1909.06778,0.01504
1908.03752,0.01457
1907.00727,0.01463
1905.97701,0.01519
1904.94675,0.01547
1903.91649,0.01545
1902.88624,0.01561
1901.85598,0.01618
1900.82572,0.01694
1899.79546,0.01725
1898.76520,0.01654
1897.73495,0.01560
1896.70469,0.01574
1895.67443,0.01646
1894.64417,0.01687
1893.61391,0.01714
1892.58366,0.01728
1891.55340,0.01738
1890.52314,0.01742
1889.49288,0.01706
1888.46263,0.01677
1887.43237,0.01700
1886.40211,0.01747
1885.37185,0.01769
1884.34159,0.01751
1883.31134,0.01724
1882.28108,0.01709
1881.25082,0.01684
1880.22056,0.01670
1879.19030,0.01694
1878.16005,0.01705
1877.12979,0.01688
1876.09953,0.01675
1875.06927,0.01652
1874.03902,0.01634
1873.00876,0.01642
1871.97850,0.01626
1870.94824,0.01578
1869.91798,0.01548
1868.88773,0.01565
1867.85747,0.01605
1866.82721,0.01645
1865.79695,0.01687
1864.76670,0.01695
1863.73644,0.01661
1862.70618,0.01645
1861.67592,0.01667
1860.64566,0.01671
1859.61541,0.01619
1858.58515,0.01559
1857.55489,0.01538
1856.52463,0.01549
1855.49437,0.01559
1854.46412,0.01555
1853.43386,0.01554
1852.40360,0.01571
1851.37334,0.01603
1850.34309,0.01639
1849.31283,0.01682
1848.28257,0.01704
1847.25231,0.01671
1846.22205,0.01657
1845.19180,0.01689
1844.16154,0.01700
1843.13128,0.01687
1842.10102,0.01679
1841.07076,0.01678
1840.04051,0.01671
1839.01025,0.01652
1837.97999,0.01632
1836.94973,0.01630
1835.91948,0.01662
1834.88922,0.01704
1833.85896,0.01700
1832.82870,0.01674
1831.79844,0.01694
1830.76819,0.01708
1829.73793,0.01667
1828.70767,0.01645
1827.67741,0.01666
1826.64715,0.01676
1825.61690,0.01679
1824.58664,0.01715
1823.55638,0.01766
1822.52612,0.01818
1821.49587,0.01840
1820.46561,0.01795
1819.43535,0.01730
1818.40509,0.01708
1817.37483,0.01731
1816.34458,0.01768
1815.31432,0.01789
1814.28406,0.01798
1813.25380,0.01814
1812.22355,0.01831
1811.19329,0.01846
1810.16303,0.01851
1809.13277,0.01847
1808.10251,0.01851
1807.07226,0.01861
1806.04200,0.01877
1805.01174,0.01899
1803.98148,0.01910
1802.95122,0.01917
1801.92097,0.01939
1800.89071,0.01945
1799.86045,0.01924
1798.83019,0.01916
1797.79994,0.01937
1796.76968,0.01955
1795.73942,0.01963
1794.70916,0.02004
1793.67890,0.02068
1792.64865,0.02073
1791.61839,0.02013
1790.58813,0.01992
1789.55787,0.02031
1788.52761,0.02081
1787.49736,0.02101
1786.46710,0.02108
1785.43684,0.02116
1784.40658,0.02121
1783.37633,0.02151
1782.34607,0.02214
1781.31581,0.02290
1780.28555,0.02348
1779.25529,0.02353
1778.22504,0.02336
1777.19478,0.02336
1776.16452,0.02332
1775.13426,0.02328
1774.10400,0.02354
1773.07375,0.02396
1772.04349,0.02426
1771.01323,0.02443
1769.98297,0.02450
1768.95272,0.02426
1767.92246,0.02415
1766.89220,0.02469
1765.86194,0.02532
1764.83168,0.02565
1763.80143,0.02571
1762.77117,0.02577
1761.74091,0.02591
1760.71065,0.02612
1759.68040,0.02665
1758.65014,0.02731
1757.61988,0.02769
1756.58962,0.02788
1755.55936,0.02808
1754.52911,0.02819
1753.49885,0.02830
1752.46859,0.02844
1751.43833,0.02876
1750.40807,0.02931
1749.37782,0.02980
1748.34756,0.03030
1747.31730,0.03082
1746.28704,0.03124
1745.25679,0.03163
1744.22653,0.03224
1743.19627,0.03296
1742.16601,0.03341
1741.13575,0.03364
1740.10550,0.03403
1739.07524,0.03468
1738.04498,0.03531
1737.01472,0.03582
1735.98446,0.03615
1734.95421,0.03636
1733.92395,0.03685
1732.89369,0.03754
1731.86343,0.03819
1730.83318,0.03893
1729.80292,0.03978
1728.77266,0.04061
1727.74240,0.04118
1726.71214,0.04170
1725.68189,0.04248
1724.65163,0.04344
1723.62137,0.04439
1722.59111,0.04528
1721.56085,0.04600
1720.53060,0.04667
1719.50034,0.04760
1718.47008,0.04883
1717.43982,0.04983
1716.40957,0.05050
1715.37931,0.05147
1714.34905,0.05255
1713.31879,0.05351
1712.28853,0.05457
1711.25828,0.05578
1710.22802,0.05701
1709.19776,0.05812
1708.16750,0.05919
1707.13725,0.06033
1706.10699,0.06149
1705.07673,0.06268
1704.04647,0.06396
1703.01621,0.06533
1701.98596,0.06664
1700.95570,0.06779
1699.92544,0.06954
1698.89518,0.07140
1697.86492,0.07256
1696.83467,0.07352
1695.80441,0.07485
1694.77415,0.07660
1693.74389,0.07833
1692.71364,0.07989
1691.68338,0.08124
1690.65312,0.08274
1689.62286,0.08435
1688.59260,0.08582
1687.56235,0.08737
1686.53209,0.08908
1685.50183,0.09050
1684.47157,0.09146
1683.44131,0.09278
1682.41106,0.09458
1681.38080,0.09629
1680.35054,0.09784
1679.32028,0.09943
1678.29003,0.10108
1677.25977,0.10241
1676.22951,0.10314
1675.19925,0.10396
1674.16899,0.10582
1673.13874,0.10774
1672.10848,0.10912
1671.07822,0.11039
1670.04796,0.11185
1669.01771,0.11294
1667.98745,0.11374
1666.95719,0.11477
1665.92693,0.11586
1664.89667,0.11699
1663.86642,0.11817
1662.83616,0.11908
1661.80590,0.11967
1660.77564,0.12022
1659.74538,0.12108
1658.71513,0.12225
1657.68487,0.12316
1656.65461,0.12366
1655.62435,0.12418
1654.59410,0.12507
1653.56384,0.12590
1652.53358,0.12516
1651.50332,0.12460
1650.47306,0.12504
1649.44281,0.12578
1648.41255,0.12619
1647.38229,0.12596
1646.35203,0.12569
1645.32177,0.12552
1644.29152,0.12543
1643.26126,0.12532
1642.23100,0.12503
1641.20074,0.12457
1640.17049,0.12386
1639.14023,0.12292
1638.10997,0.12202
1637.07971,0.12139
1636.04945,0.12036
1635.01920,0.11846
1633.98894,0.11742
1632.95868,0.11687
1631.92842,0.11616
1630.89816,0.11533
1629.86791,0.11418
1628.83765,0.11291
1627.80739,0.11150
1626.77713,0.10982
1625.74688,0.10831
1624.71662,0.10697
1623.68636,0.10538
1622.65610,0.10374
1621.62584,0.10253
1620.59559,0.10133
1619.56533,0.10007
1618.53507,0.09897
1617.50481,0.09773
1616.47456,0.09549
1615.44430,0.09349
1614.41404,0.09232
1613.38378,0.09112
1612.35352,0.08988
1611.32327,0.08872
1610.29301,0.08747
1609.26275,0.08595
1608.23249,0.08441
1607.20223,0.08313
1606.17198,0.08204
1605.14172,0.08094
1604.11146,0.07986
1603.08120,0.07894
1602.05095,0.07806
1601.02069,0.07715
1599.99043,0.07641
1598.96017,0.07568
1597.92991,0.07477
1596.89966,0.07377
1595.86940,0.07272
1594.83914,0.07179
1593.80888,0.07109
1592.77862,0.07033
1591.74837,0.06953
1590.71811,0.06905
1589.68785,0.06870
1588.65759,0.06822
1587.62734,0.06762
1586.59708,0.06704
1585.56682,0.06651
1584.53656,0.06588
1583.50630,0.06509
1582.47605,0.06433
1581.44579,0.06385
1580.41553,0.06357
1579.38527,0.06317
1578.35501,0.06260
1577.32476,0.06208
1576.29450,0.06143
1575.26424,0.06102
1574.23398,0.06099
1573.20373,0.06072
1572.17347,0.06026
1571.14321,0.05982
1570.11295,0.05924
1569.08269,0.05842
1568.05244,0.05813
1567.02218,0.05844
1565.99192,0.05866
1564.96166,0.05821
1563.93141,0.05743
1562.90115,0.05703
1561.87089,0.05700
1560.84063,0.05697
1559.81037,0.05647
1558.78012,0.05544
1557.74986,0.05492
1556.71960,0.05526
1555.68934,0.05550
1554.65908,0.05521
1553.62883,0.05476
1552.59857,0.05465
1551.56831,0.05440
1550.53805,0.05377
1549.50780,0.05329
1548.47754,0.05329
1547.44728,0.05340
1546.41702,0.05349
1545.38676,0.05341
1544.35651,0.05297
1543.32625,0.05258
1542.29599,0.05260
1541.26573,0.05285
1540.23547,0.05297
1539.20522,0.05249
1538.17496,0.05201
1537.14470,0.05205
1536.11444,0.05203
1535.08419,0.05175
1534.05393,0.05137
1533.02367,0.05097
1531.99341,0.05072
1530.96315,0.05045
1529.93290,0.05024
1528.90264,0.05014
1527.87238,0.05011
1526.84212,0.05029
1525.81186,0.05034
1524.78161,0.04988
1523.75135,0.04949
1522.72109,0.04946
1521.69083,0.04960
1520.66058,0.04972
1519.63032,0.04961
1518.60006,0.04956
1517.56980,0.04968
1516.53954,0.04967
1515.50929,0.04953
1514.47903,0.04958
1513.44877,0.04981
1512.41851,0.05000
1511.38826,0.04990
1510.35800,0.04955
1509.32774,0.04937
1508.29748,0.04946
1507.26722,0.04949
1506.23697,0.04934
1505.20671,0.04947
1504.17645,0.04975
1503.14619,0.04985
1502.11593,0.04981
1501.08568,0.04989
1500.05542,0.05010
1499.02516,0.05026
1497.99490,0.05037
1496.96465,0.05050
1495.93439,0.05073
1494.90413,0.05127
1493.87387,0.05215
1492.84361,0.05302
1491.81336,0.05394
1490.78310,0.05545
1489.75284,0.05781
1488.72258,0.06090
1487.69232,0.06550
1486.66207,0.07247
1485.63181,0.08128
1484.60155,0.09211
1483.57129,0.10482
1482.54104,0.11674
1481.51078,0.12385
1480.48052,0.12312
1479.45026,0.11578
1478.42000,0.10619
1477.38975,0.09785
1476.35949,0.09128
1475.32923,0.08726
1474.29897,0.08638
1473.26871,0.08795
1472.23846,0.09182
1471.20820,0.09706
1470.17794,0.10240
1469.14768,0.10790
1468.11743,0.11324
1467.08717,0.11755
1466.05691,0.12025
1465.02665,0.12095
1463.99639,0.11957
1462.96614,0.11706
1461.93588,0.11380
1460.90562,0.11020
1459.87536,0.10678
1458.84511,0.10314
1457.81485,0.09927
1456.78459,0.09504
1455.75433,0.09203
1454.72407,0.09056
1453.69382,0.08930
1452.66356,0.08792
1451.63330,0.08660
1450.60304,0.08546
1449.57278,0.08437
1448.54253,0.08304
1447.51227,0.08125
1446.48201,0.07966
1445.45175,0.07843
1444.42150,0.07702
1443.39124,0.07548
1442.36098,0.07409
1441.33072,0.07277
1440.30046,0.07142
1439.27021,0.07025
1438.23995,0.06940
1437.20969,0.06804
1436.17943,0.06586
1435.14917,0.06444
1434.11892,0.06348
1433.08866,0.06237
1432.05840,0.06107
1431.02814,0.05970
1429.99789,0.05853
1428.96763,0.05761
1427.93737,0.05683
1426.90711,0.05619
1425.87685,0.05561
1424.84660,0.05499
1423.81634,0.05434
1422.78608,0.05372
1421.75582,0.05321
1420.72556,0.05290
1419.69531,0.05260
1418.66505,0.05207
1417.63479,0.05177
1416.60453,0.05167
1415.57428,0.05161
1414.54402,0.05161
1413.51376,0.05174
1412.48350,0.05209
1411.45324,0.05251
1410.42299,0.05316
1409.39273,0.05446
1408.36247,0.05632
1407.33221,0.05842
1406.30196,0.06081
1405.27170,0.06374
1404.24144,0.06668
1403.21118,0.06837
1402.18092,0.06870
1401.15067,0.06800
1400.12041,0.06624
1399.09015,0.06343
1398.05989,0.06047
1397.02963,0.05807
1395.99938,0.05595
1394.96912,0.05381
1393.93886,0.05205
1392.90860,0.05106
1391.87835,0.05032
1390.84809,0.04967
1389.81783,0.04916
1388.78757,0.04860
1387.75731,0.04795
1386.72706,0.04746
1385.69680,0.04729
1384.66654,0.04725
1383.63628,0.04720
1382.60602,0.04708
1381.57577,0.04696
1380.54551,0.04686
1379.51525,0.04657
1378.48499,0.04614
1377.45474,0.04582
1376.42448,0.04570
1375.39422,0.04564
1374.36396,0.04544
1373.33370,0.04540
1372.30345,0.04560
1371.27319,0.04577
1370.24293,0.04589
1369.21267,0.04595
1368.18241,0.04578
1367.15216,0.04552
1366.12190,0.04549
1365.09164,0.04559
1364.06138,0.04542
1363.03113,0.04491
1362.00087,0.04453
1360.97061,0.04455
1359.94035,0.04470
1358.91009,0.04467
1357.87984,0.04454
1356.84958,0.04463
1355.81932,0.04484
1354.78906,0.04492
1353.75881,0.04487
1352.72855,0.04459
1351.69829,0.04423
1350.66803,0.04417
1349.63777,0.04438
1348.60752,0.04455
1347.57726,0.04454
1346.54700,0.04452
1345.51674,0.04462
1344.48648,0.04450
1343.45623,0.04396
1342.42597,0.04363
1341.39571,0.04384
1340.36545,0.04403
1339.33520,0.04401
1338.30494,0.04411
1337.27468,0.04428
1336.24442,0.04428
1335.21416,0.04406
1334.18391,0.04371
1333.15365,0.04357
1332.12339,0.04370
1331.09313,0.04376
1330.06287,0.04372
1329.03262,0.04360
1328.00236,0.04359
1326.97210,0.04372
1325.94184,0.04371
1324.91159,0.04348
1323.88133,0.04332
1322.85107,0.04353
1321.82081,0.04383
1320.79055,0.04388
1319.76030,0.04370
1318.73004,0.04351
1317.69978,0.04346
1316.66952,0.04351
1315.63927,0.04349
1314.60901,0.04339
1313.57875,0.04334
1312.54849,0.04321
1311.51823,0.04305
1310.48798,0.04303
1309.45772,0.04304
1308.42746,0.04309
1307.39720,0.04326
1306.36694,0.04333
1305.33669,0.04325
1304.30643,0.04325
1303.27617,0.04345
1302.24591,0.04382
1301.21566,0.04404
1300.18540,0.04385
1299.15514,0.04354
1298.12488,0.04333
1297.09462,0.04325
1296.06437,0.04340
1295.03411,0.04348
1294.00385,0.04329
1292.97359,0.04305
1291.94333,0.04295
1290.91308,0.04305
1289.88282,0.04335
1288.85256,0.04361
1287.82230,0.04347
1286.79205,0.04320
1285.76179,0.04321
1284.73153,0.04315
1283.70127,0.04281
1282.67101,0.04250
1281.64076,0.04236
1280.61050,0.04249
1279.58024,0.04277
1278.54998,0.04285
1277.51972,0.04289
1276.48947,0.04291
1275.45921,0.04277
1274.42895,0.04283
1273.39869,0.04320
1272.36844,0.04345
1271.33818,0.04337
1270.30792,0.04318
1269.27766,0.04322
1268.24740,0.04351
1267.21715,0.04389
1266.18689,0.04417
1265.15663,0.04417
1264.12637,0.04405
1263.09612,0.04393
1262.06586,0.04388
1261.03560,0.04410
1260.00534,0.04444
1258.97508,0.04474
1257.94483,0.04515
1256.91457,0.04576
1255.88431,0.04647
1254.85405,0.04710
1253.82379,0.04771
1252.79354,0.04844
1251.76328,0.04950
1250.73302,0.05106
1249.70276,0.05308
1248.67251,0.05540
1247.64225,0.05814
1246.61199,0.06158
1245.58173,0.06545
1244.55147,0.06974
1243.52122,0.07479
1242.49096,0.08016
1241.46070,0.08513
1240.43044,0.08929
1239.40018,0.09210
1238.36993,0.09317
1237.33967,0.09259
1236.30941,0.09053
1235.27915,0.08716
1234.24890,0.08289
1233.21864,0.07827
1232.18838,0.07375
1231.15812,0.06954
1230.12786,0.06567
1229.09761,0.06233
1228.06735,0.05971
1227.03709,0.05758
1226.00683,0.05566
1224.97657,0.05409
1223.94632,0.05284
1222.91606,0.05175
1221.88580,0.05087
1220.85554,0.05008
1219.82529,0.04934
1218.79503,0.04877
1217.76477,0.04831
1216.73451,0.04786
1215.70425,0.04750
1214.67400,0.04717
1213.64374,0.04678
1212.61348,0.04652
1211.58322,0.04643
1210.55297,0.04621
1209.52271,0.04583
1208.49245,0.04552
1207.46219,0.04529
1206.43193,0.04529
1205.40168,0.04547
1204.37142,0.04533
1203.34116,0.04494
1202.31090,0.04483
1201.28064,0.04508
1200.25039,0.04525
1199.22013,0.04502
1198.18987,0.04472
1197.15961,0.04469
1196.12936,0.04470
1195.09910,0.04472
1194.06884,0.04478
1193.03858,0.04466
1192.00832,0.04452
1190.97807,0.04451
1189.94781,0.04442
1188.91755,0.04427
1187.88729,0.04428
1186.85703,0.04433
1185.82678,0.04431
1184.79652,0.04432
1183.76626,0.04425
1182.73600,0.04401
1181.70575,0.04376
1180.67549,0.04377
1179.64523,0.04405
1178.61497,0.04426
1177.58471,0.04408
1176.55446,0.04382
1175.52420,0.04385
1174.49394,0.04387
1173.46368,0.04380
1172.43342,0.04385
1171.40317,0.04388
1170.37291,0.04363
1169.34265,0.04342
1168.31239,0.04363
1167.28214,0.04394
1166.25188,0.04393
1165.22162,0.04368
1164.19136,0.04358
1163.16110,0.04371
1162.13085,0.04371
1161.10059,0.04354
1160.07033,0.04370
1159.04007,0.04403
1158.00982,0.04404
1156.97956,0.04381
1155.94930,0.04365
1154.91904,0.04366
1153.88878,0.04366
1152.85853,0.04363
1151.82827,0.04357
1150.79801,0.04347
1149.76775,0.04344
1148.73749,0.04352
1147.70724,0.04372
1146.67698,0.04400
1145.64672,0.04416
1144.61646,0.04404
1143.58621,0.04380
1142.55595,0.04375
1141.52569,0.04382
1140.49543,0.04378
1139.46517,0.04356
1138.43492,0.04335
1137.40466,0.04351
1136.37440,0.04399
1135.34414,0.04434
1134.31388,0.04446
1133.28363,0.04454
1132.25337,0.04443
1131.22311,0.04411
1130.19285,0.04414
1129.16260,0.04463
1128.13234,0.04536
1127.10208,0.04632
1126.07182,0.04735
1125.04156,0.04811
1124.01131,0.04854
1122.98105,0.04884
1121.95079,0.04896
1120.92053,0.04879
1119.89027,0.04850
1118.86002,0.04817
1117.82976,0.04772
1116.79950,0.04708
1115.76924,0.04640
1114.73899,0.04590
1113.70873,0.04571
1112.67847,0.04578
1111.64821,0.04575
1110.61795,0.04539
1109.58770,0.04508
1108.55744,0.04495
1107.52718,0.04489
1106.49692,0.04490
1105.46667,0.04497
1104.43641,0.04513
1103.40615,0.04521
1102.37589,0.04522
1101.34563,0.04533
1100.31538,0.04528
1099.28512,0.04506
1098.25486,0.04500
1097.22460,0.04486
1096.19434,0.04452
1095.16409,0.04434
1094.13383,0.04438
1093.10357,0.04460
1092.07331,0.04500
1091.04306,0.04552
1090.01280,0.04587
1088.98254,0.04593
1087.95228,0.04583
1086.92202,0.04561
1085.89177,0.04545
1084.86151,0.04566
1083.83125,0.04599
1082.80099,0.04599
1081.77073,0.04590
1080.74048,0.04601
1079.71022,0.04607
1078.67996,0.04607
1077.64970,0.04609
1076.61945,0.04617
1075.58919,0.04635
1074.55893,0.04649
1073.52867,0.04650
1072.49841,0.04643
1071.46816,0.04651
1070.43790,0.04669
1069.40764,0.04670
1068.37738,0.04671
1067.34712,0.04685
1066.31687,0.04692
1065.28661,0.04683
1064.25635,0.04663
1063.22609,0.04649
1062.19584,0.04644
1061.16558,0.04655
1060.13532,0.04698
1059.10506,0.04736
1058.07480,0.04732
1057.04455,0.04720
1056.01429,0.04712
1054.98403,0.04681
1053.95377,0.04639
1052.92352,0.04625
1051.89326,0.04634
1050.86300,0.04649
1049.83274,0.04689
1048.80248,0.04744
1047.77223,0.04765
1046.74197,0.04752
1045.71171,0.04729
1044.68145,0.04711
1043.65119,0.04709
1042.62094,0.04705
1041.59068,0.04679
1040.56042,0.04646
1039.53016,0.04633
1038.49991,0.04665
1037.46965,0.04716
1036.43939,0.04756
1035.40913,0.04788
1034.37887,0.04802
1033.34862,0.04798
1032.31836,0.04777
1031.28810,0.04760
1030.25784,0.04783
1029.22758,0.04835
1028.19733,0.04880
1027.16707,0.04882
1026.13681,0.04846
1025.10655,0.04832
1024.07630,0.04849
1023.04604,0.04863
1022.01578,0.04863
1020.98552,0.04874
1019.95526,0.04912
1018.92501,0.04955
1017.89475,0.04978
1016.86449,0.04975
1015.83423,0.04980
1014.80397,0.05018
1013.77372,0.05050
1012.74346,0.05064
1011.71320,0.05082
1010.68294,0.05104
1009.65269,0.05119
1008.62243,0.05120
1007.59217,0.05128
1006.56191,0.05162
1005.53165,0.05210
1004.50140,0.05243
1003.47114,0.05249
1002.44088,0.05259
1001.41062,0.05285
1000.38037,0.05314
999.35011,0.05355
998.31985,0.05399
997.28959,0.05423
996.25933,0.05452
995.22908,0.05486
994.19882,0.05502
993.16856,0.05532
992.13830,0.05602
991.10804,0.05698
990.07779,0.05765
989.04753,0.05777
988.01727,0.05771
986.98701,0.05781
985.95676,0.05799
984.92650,0.05832
983.89624,0.05908
982.86598,0.06000
981.83572,0.06064
980.80547,0.06085
979.77521,0.06094
978.74495,0.06140
977.71469,0.06224
976.68443,0.06298
975.65418,0.06331
974.62392,0.06370
973.59366,0.06436
972.56340,0.06499
971.53315,0.06568
970.50289,0.06663
969.47263,0.06793
968.44237,0.06944
967.41211,0.07073
966.38186,0.07199
965.35160,0.07375
964.32134,0.07625
963.29108,0.07951
962.26082,0.08317
961.23057,0.08699
960.20031,0.09142
959.17005,0.09703
958.13979,0.10398
957.10954,0.11240
956.07928,0.12228
955.04902,0.13309
954.01876,0.14401
952.98850,0.15476
951.95825,0.16514
950.92799,0.17454
949.89773,0.18244
948.86747,0.18852
947.83722,0.19236
946.80696,0.19302
945.77670,0.18979
944.74644,0.18280
943.71618,0.17290
942.68593,0.16157
941.65567,0.15012
940.62541,0.13949
939.59515,0.13049
938.56489,0.12321
937.53464,0.11729
936.50438,0.11273
935.47412,0.10929
934.44386,0.10642
933.41361,0.10404
932.38335,0.10225
931.35309,0.10091
930.32283,0.09964
929.29257,0.09797
928.26232,0.09659
927.23206,0.09636
926.20180,0.09628
925.17154,0.09577
924.14128,0.09559
923.11103,0.09581
922.08077,0.09604
921.05051,0.09608
920.02025,0.09596
918.99000,0.09606
917.95974,0.09659
916.92948,0.09727
915.89922,0.09794
914.86896,0.09852
913.83871,0.09919
912.80845,0.10023
911.77819,0.10126
910.74793,0.10192
909.71768,0.10250
908.68742,0.10325
907.65716,0.10411
906.62690,0.10493
905.59664,0.10566
904.56639,0.10637
903.53613,0.10718
902.50587,0.10814
901.47561,0.10919
900.44535,0.11008
899.41510,0.11096
898.38484,0.11221
897.35458,0.11337
896.32432,0.11409
895.29407,0.11500
894.26381,0.11620
893.23355,0.11712
892.20329,0.11776
891.17303,0.11870
890.14278,0.11992
889.11252,0.12088
888.08226,0.12190
887.05200,0.12339
886.02174,0.12481
884.99149,0.12600
883.96123,0.12734
882.93097,0.12854
881.90071,0.12936
880.87046,0.12999
879.84020,0.13081
878.80994,0.13205
877.77968,0.13328
876.74942,0.13459
875.71917,0.13596
874.68891,0.13707
873.65865,0.13838
872.62839,0.13962
871.59813,0.14027
870.56788,0.14099
869.53762,0.14191
868.50736,0.14275
867.47710,0.14409
866.44685,0.14606
865.41659,0.14793
864.38633,0.14926
863.35607,0.15019
862.32581,0.15139
861.29556,0.15295
860.26530,0.15437
859.23504,0.15542
858.20478,0.15636
857.17453,0.15753
856.14427,0.15885
855.11401,0.16028
854.08375,0.16192
853.05349,0.16345
852.02324,0.16460
850.99298,0.16541
849.96272,0.16635
848.93246,0.16762
847.90220,0.16865
846.87195,0.16953
845.84169,0.17096
844.81143,0.17295
843.78117,0.17480
842.75092,0.17600
841.72066,0.17696
840.69040,0.17832
839.66014,0.17981
838.62988,0.18094
837.59963,0.18198
836.56937,0.18337
835.53911,0.18485
834.50885,0.18580
833.47859,0.18659
832.44834,0.18799
831.41808,0.18968
830.38782,0.19133
829.35756,0.19332
828.32731,0.19537
827.29705,0.19685
826.26679,0.19773
825.23653,0.19843
824.20627,0.19936
823.17602,0.20035
822.14576,0.20140
821.11550,0.20314
820.08524,0.20517
819.05498,0.20647
818.02473,0.20733
816.99447,0.20853
815.96421,0.21015
814.93395,0.21172
813.90370,0.21273
812.87344,0.21385
811.84318,0.21560
810.81292,0.21732
809.78266,0.21883
808.75241,0.22015
807.72215,0.22146
806.69189,0.22329
805.66163,0.22482
804.63138,0.22524
803.60112,0.22578
802.57086,0.22690
801.54060,0.22829
800.51034,0.23052
799.48009,0.23313
798.44983,0.23483
797.41957,0.23577
796.38931,0.23701
795.35905,0.23843
794.32880,0.23991
793.29854,0.24178
792.26828,0.24330
791.23802,0.24442
790.20777,0.24598
789.17751,0.24718
788.14725,0.24768
787.11699,0.24886
786.08673,0.25083
785.05648,0.25253
784.02622,0.25374
782.99596,0.25500
781.96570,0.25649
780.93544,0.25810
779.90519,0.25940
778.87493,0.26053
777.84467,0.26255
776.81441,0.26530
775.78416,0.26753
774.75390,0.26893
773.72364,0.27069
772.69338,0.27344
771.66312,0.27620
770.63287,0.27867
769.60261,0.28176
768.57235,0.28515
767.54209,0.28794
766.51183,0.29079
765.48158,0.29451
764.45132,0.29869
763.42106,0.30301
762.39080,0.30791
761.36055,0.31340
760.33029,0.31915
759.30003,0.32501
758.26977,0.33069
757.23951,0.33559
756.20926,0.33873
755.17900,0.33983
754.14874,0.33930
753.11848,0.33727
752.08823,0.33446
751.05797,0.33172
750.02771,0.32959
748.99745,0.32855
747.96719,0.32795
746.93694,0.32651
745.90668,0.32465
744.87642,0.32399
743.84616,0.32462
742.81590,0.32540
741.78565,0.32581
740.75539,0.32582
739.72513,0.32608
738.69487,0.32670
737.66462,0.32727
736.63436,0.32801
735.60410,0.32915
734.57384,0.33067
733.54358,0.33221
732.51333,0.33354
731.48307,0.33421
730.45281,0.33439
729.42255,0.33509
728.39229,0.33658
727.36204,0.33840
726.33178,0.33986
725.30152,0.34089
724.27126,0.34250
723.24101,0.34465
722.21075,0.34615
721.18049,0.34725
720.15023,0.34836
719.11997,0.34869
718.08972,0.34872
717.05946,0.34972
716.02920,0.35102
714.99894,0.35150
713.96868,0.35175
712.93843,0.35269
711.90817,0.35430
710.87791,0.35640
709.84765,0.35894
708.81740,0.36081
707.78714,0.36113
706.75688,0.36137
705.72662,0.36274
704.69636,0.36407
703.66611,0.36478
702.63585,0.36563
701.60559,0.36658
700.57533,0.36732
699.54508,0.36802
698.51482,0.36876
697.48456,0.36993
696.45430,0.37135
695.42404,0.37196
694.39379,0.37233
693.36353,0.37404
692.33327,0.37639
691.30301,0.37724
690.27275,0.37652
689.24250,0.37663
688.21224,0.37881
687.18198,0.38135
686.15172,0.38242
685.12147,0.38265
684.09121,0.38354
683.06095,0.38461
682.03069,0.38499
681.00043,0.38576
679.97018,0.38737
678.93992,0.38862
677.90966,0.38940
676.87940,0.39053
675.84914,0.39166
674.81889,0.39275
673.78863,0.39439
672.75837,0.39507
671.72811,0.39403
670.69786,0.39347
669.66760,0.39390
668.63734,0.39318
667.60708,0.39252
666.57682,0.39519
665.54657,0.39768
664.51631,0.39927
663.48605,0.40026
662.45579,0.40085
661.42553,0.40161
660.39528,0.40241
659.36502,0.40229
658.33476,0.40256
657.30450,0.40495
656.27425,0.40765
655.24399,0.40841
654.21373,0.40849
653.18347,0.40962
652.15321,0.41051
651.12296,0.40987
650.09270,0.40912
649.06244,0.40918
648.03218,0.40976
647.00193,0.41120
645.97167,0.41219
644.94141,0.41069
643.91115,0.40921
642.88089,0.41103
641.85064,0.41403
640.82038,0.41559
639.79012,0.41626
638.75986,0.41645
637.72960,0.41637
636.69935,0.41684
635.66909,0.41756
634.63883,0.41772
633.60857,0.41751
632.57832,0.41797
631.54806,0.41918
630.51780,0.42011
629.48754,0.42016
628.45728,0.42066
627.42703,0.42204
626.39677,0.42309
625.36651,0.42419
624.33625,0.42464
623.30599,0.42390
622.27574,0.42340
621.24548,0.42340
620.21522,0.42322
619.18496,0.42282
618.15471,0.42288
617.12445,0.42334
616.09419,0.42405
615.06393,0.42497
614.03367,0.42588
613.00342,0.42642
611.97316,0.42642
610.94290,0.42617
609.91264,0.42546
608.88238,0.42425
607.85213,0.42384
606.82187,0.42475
605.79161,0.42688
604.76135,0.43006
603.73110,0.43191
602.70084,0.43147
601.67058,0.43056
600.64032,0.43002
599.61006,0.42955
598.57981,0.42986
597.54955,0.43095
596.51929,0.43104
595.48903,0.43002
594.45878,0.42912
593.42852,0.42928
592.39826,0.43069
591.36800,0.43285
590.33774,0.43347
589.30749,0.43168
588.27723,0.43008
587.24697,0.43054
586.21671,0.43227
585.18645,0.43324
584.15620,0.43359
583.12594,0.43392
582.09568,0.43371
581.06542,0.43354
580.03517,0.43407
579.00491,0.43422
577.97465,0.43351
576.94439,0.43367
575.91413,0.43454
574.88388,0.43401
573.85362,0.43215
572.82336,0.43179
571.79310,0.43257
570.76284,0.43106
569.73259,0.42979
568.70233,0.43179
567.67207,0.43400
566.64181,0.43488
565.61156,0.43631
564.58130,0.43796
563.55104,0.43840
562.52078,0.43770
561.49052,0.43552
560.46027,0.43273
559.43001,0.43077
558.39975,0.43025
557.36949,0.43209
556.33924,0.43397
555.30898,0.43317
554.27872,0.43265
553.24846,0.43360
552.21820,0.43295
551.18795,0.43099
550.15769,0.42944
549.12743,0.42873
548.09717,0.42816
547.06691,0.42705
546.03666,0.42658
545.00640,0.42830
543.97614,0.43129
542.94588,0.43269
541.91563,0.43124
540.88537,0.42903
539.85511,0.42963
538.82485,0.43280
537.79459,0.43496
536.76434,0.43425
535.73408,0.43103
534.70382,0.42810
533.67356,0.42873
532.64330,0.43038
531.61305,0.43159
530.58279,0.43553
529.55253,0.43884
528.52227,0.43826
527.49202,0.43736
526.46176,0.43916
525.43150,0.44175
524.40124,0.44277
523.37098,0.44466
522.34073,0.44675
521.31047,0.44632
520.28021,0.44721
519.24995,0.45305
518.21969,0.45986
517.18944,0.46347
516.15918,0.46539
515.12892,0.46658
514.09866,0.46760
513.06841,0.47177
512.03815,0.47882
511.00789,0.48577
509.97763,0.49321
508.94737,0.50166
507.91712,0.50784
506.88686,0.51014
505.85660,0.51066
504.82634,0.51206
503.79609,0.51751
502.76583,0.52495
501.73557,0.52864
500.70531,0.53094
499.67505,0.53400
498.64480,0.53543
497.61454,0.53431
496.58428,0.52948
495.55402,0.52520
494.52376,0.52858
493.49351,0.53610
492.46325,0.53818
491.43299,0.53223
490.40273,0.52210
489.37248,0.51073
488.34222,0.50237
487.31196,0.49817
486.28170,0.49368
485.25144,0.48890
484.22119,0.48429
483.19093,0.47976
482.16067,0.47837
481.13041,0.47672
480.10015,0.47042
479.06990,0.46282
478.03964,0.45910
477.00938,0.45885
475.97912,0.45867
474.94887,0.45624
473.91861,0.45230
472.88835,0.45357
471.85809,0.46194
470.82783,0.47123
469.79758,0.48247
468.76732,0.49812
467.73706,0.51641
466.70680,0.53579
465.67654,0.55477
464.64629,0.57411
463.61603,0.59253
462.58577,0.60167
461.55551,0.60020
460.52526,0.59399
459.49500,0.58531
458.46474,0.57342
457.43448,0.55836
456.40422,0.54683
455.37397,0.53800
454.34371,0.52772
453.31345,0.51748
452.28319,0.50822
451.25294,0.50014
450.22268,0.49599
449.19242,0.49543
448.16216,0.49214
447.13190,0.48559
446.10165,0.48203
445.07139,0.48012
444.04113,0.47811
443.01087,0.47791
441.98061,0.47544
440.95036,0.46852
439.92010,0.46271
438.88984,0.46096
437.85958,0.46140
436.82933,0.46168
435.79907,0.46198
434.76881,0.46328
433.73855,0.45895
432.70829,0.44705
431.67804,0.43846
430.64778,0.43566
429.61752,0.43448
428.58726,0.43320
427.55700,0.42981
426.52675,0.43014
425.49649,0.43364
424.46623,0.43202
423.43597,0.43049
422.40572,0.43137
421.37546,0.42689
420.34520,0.41814
419.31494,0.41192
418.28468,0.40975
417.25443,0.40772
416.22417,0.40755
415.19391,0.40940
414.16365,0.41098
413.13339,0.41062
412.10314,0.41039
411.07288,0.41138
410.04262,0.41171
409.01236,0.40965
407.98211,0.40717
406.95185,0.40617
405.92159,0.40078
404.89133,0.39498
403.86107,0.39929
402.83082,0.40446
401.80056,0.39910
400.77030,0.39347
399.74004,0.39992
