4998.81105,0.00211
4997.78079,0.00257
4996.75054,0.00332
4995.72028,0.00256
4994.69002,0.00158
4993.65976,0.00189
4992.62951,0.00245
4991.59925,0.00287
4990.56899,0.00297
4989.53873,0.00259
4988.50847,0.00236
4987.47822,0.00243
4986.44796,0.00259
4985.41770,0.00229
4984.38744,0.00132
4983.35718,0.00057
4982.32693,0.00026
4981.29667,0.00001
4980.26641,0.00033
4979.23615,0.00173
4978.20590,0.00335
4977.17564,0.00370
4976.14538,0.00325
4975.11512,0.00288
4974.08486,0.00258
4973.05461,0.00301
4972.02435,0.00354
4970.99409,0.00294
4969.96383,0.00227
4968.93357,0.00254
4967.90332,0.00268
4966.87306,0.00199
4965.84280,0.00117
4964.81254,0.00106
4963.78229,0.00158
4962.75203,0.00156
4961.72177,0.00139
4960.69151,0.00203
4959.66125,0.00255
4958.63100,0.00260
4957.60074,0.00272
4956.57048,0.00277
4955.54022,0.00242
4954.50997,0.00211
4953.47971,0.00230
4952.44945,0.00247
4951.41919,0.00271
4950.38893,0.00340
4949.35868,0.00377
4948.32842,0.00340
4947.29816,0.00272
4946.26790,0.00204
4945.23764,0.00170
4944.20739,0.00192
4943.17713,0.00259
4942.14687,0.00272
4941.11661,0.00193
4940.08636,0.00206
4939.05610,0.00287
4938.02584,0.00223
4936.99558,0.00101
4935.96532,0.00074
4934.93507,0.00125
4933.90481,0.00206
4932.87455,0.00279
4931.84429,0.00285
4930.81403,0.00139
4929.78378,-0.00063
4928.75352,-0.00044
4927.72326,0.00131
4926.69300,0.00200
4925.66275,0.00178
4924.63249,0.00149
4923.60223,0.00124
4922.57197,0.00209
4921.54171,0.00388
4920.51146,0.00419
4919.48120,0.00318
4918.45094,0.00338
4917.42068,0.00434
4916.39042,0.00447
4915.36017,0.00385
4914.32991,0.00302
4913.29965,0.00234
4912.26939,0.00217
4911.23914,0.00286
4910.20888,0.00410
4909.17862,0.00407
4908.14836,0.00198
4907.11810,0.00035
4906.08785,0.00074
4905.05759,0.00125
4904.02733,0.00110
4902.99707,0.00140
4901.96682,0.00220
4900.93656,0.00271
4899.90630,0.00259
4898.87604,0.00260
4897.84578,0.00309
4896.81553,0.00322
4895.78527,0.00250
4894.75501,0.00133
4893.72475,0.00070
4892.69449,0.00063
4891.66424,0.00093
4890.63398,0.00189
4889.60372,0.00230
4888.57346,0.00207
4887.54321,0.00222
4886.51295,0.00179
4885.48269,0.00123
4884.45243,0.00164
4883.42217,0.00209
4882.39192,0.00172
4881.36166,0.00117
4880.33140,0.00188
4879.30114,0.00299
4878.27088,0.00294
4877.24063,0.00230
4876.21037,0.00166
4875.18011,0.00121
4874.14985,0.00105
4873.11960,0.00102
4872.08934,0.00129
4871.05908,0.00139
4870.02882,0.00117
4868.99856,0.00112
4867.96831,0.00141
4866.93805,0.00229
4865.90779,0.00309
4864.87753,0.00320
4863.84727,0.00310
4862.81702,0.00295
4861.78676,0.00277
4860.75650,0.00237
4859.72624,0.00154
4858.69599,0.00116
4857.66573,0.00204
4856.63547,0.00296
4855.60521,0.00276
4854.57495,0.00220
4853.54470,0.00155
4852.51444,0.00095
4851.48418,0.00113
4850.45392,0.00150
4849.42367,0.00139
4848.39341,0.00137
4847.36315,0.00190
4846.33289,0.00236
4845.30263,0.00271
4844.27238,0.00337
4843.24212,0.00336
4842.21186,0.00242
4841.18160,0.00186
4840.15134,0.00200
4839.12109,0.00203
4838.09083,0.00184
4837.06057,0.00201
4836.03031,0.00249
4835.00006,0.00264
4833.96980,0.00209
4832.93954,0.00164
4831.90928,0.00208
4830.87902,0.00247
4829.84877,0.00194
4828.81851,0.00153
4827.78825,0.00160
4826.75799,0.00188
4825.72773,0.00247
4824.69748,0.00296
4823.66722,0.00299
4822.63696,0.00259
4821.60670,0.00230
4820.57645,0.00275
4819.54619,0.00358
4818.51593,0.00382
4817.48567,0.00336
4816.45541,0.00317
4815.42516,0.00348
4814.39490,0.00326
4813.36464,0.00198
4812.33438,0.00054
4811.30412,-0.00003
4810.27387,0.00035
4809.24361,0.00126
4808.21335,0.00217
4807.18309,0.00259
4806.15284,0.00202
4805.12258,0.00106
4804.09232,0.00066
4803.06206,0.00078
4802.03180,0.00154
4801.00155,0.00270
4799.97129,0.00318
4798.94103,0.00257
4797.91077,0.00187
4796.88052,0.00182
4795.85026,0.00239
4794.82000,0.00328
4793.78974,0.00359
4792.75948,0.00343
4791.72923,0.00296
4790.69897,0.00182
4789.66871,0.00126
4788.63845,0.00198
4787.60819,0.00216
4786.57794,0.00125
4785.54768,0.00084
4784.51742,0.00180
4783.48716,0.00305
4782.45691,0.00264
4781.42665,0.00123
4780.39639,0.00091
4779.36613,0.00149
4778.33587,0.00179
4777.30562,0.00195
4776.27536,0.00190
4775.24510,0.00144
4774.21484,0.00129
4773.18458,0.00132
4772.15433,0.00122
4771.12407,0.00116
4770.09381,0.00057
4769.06355,-0.00030
4768.03330,-0.00030
4767.00304,0.00058
4765.97278,0.00163
4764.94252,0.00243
4763.91226,0.00242
4762.88201,0.00125
4761.85175,0.00013
4760.82149,0.00040
4759.79123,0.00161
4758.76098,0.00229
4757.73072,0.00197
4756.70046,0.00203
4755.67020,0.00283
4754.63994,0.00276
4753.60969,0.00193
4752.57943,0.00189
4751.54917,0.00244
4750.51891,0.00265
4749.48865,0.00262
4748.45840,0.00250
4747.42814,0.00205
4746.39788,0.00208
4745.36762,0.00310
4744.33737,0.00346
4743.30711,0.00269
4742.27685,0.00184
4741.24659,0.00103
4740.21633,0.00061
4739.18608,0.00094
4738.15582,0.00121
4737.12556,0.00111
4736.09530,0.00116
4735.06504,0.00146
4734.03479,0.00165
4733.00453,0.00122
4731.97427,0.00058
4730.94401,0.00072
4729.91376,0.00136
4728.88350,0.00159
4727.85324,0.00163
4726.82298,0.00191
4725.79272,0.00201
4724.76247,0.00221
4723.73221,0.00243
4722.70195,0.00190
4721.67169,0.00143
4720.64143,0.00168
4719.61118,0.00222
4718.58092,0.00244
4717.55066,0.00194
4716.52040,0.00145
4715.49015,0.00168
4714.45989,0.00221
4713.42963,0.00235
4712.39937,0.00201
4711.36911,0.00168
4710.33886,0.00193
4709.30860,0.00297
4708.27834,0.00339
4707.24808,0.00227
4706.21783,0.00115
4705.18757,0.00086
4704.15731,0.00078
4703.12705,0.00045
4702.09679,0.00027
4701.06654,0.00100
4700.03628,0.00201
4699.00602,0.00229
4697.97576,0.00222
4696.94550,0.00243
4695.91525,0.00261
4694.88499,0.00239
4693.85473,0.00185
4692.82447,0.00085
4691.79422,0.00010
4690.76396,0.00070
4689.73370,0.00192
4688.70344,0.00249
4687.67318,0.00257
4686.64293,0.00251
4685.61267,0.00216
4684.58241,0.00209
4683.55215,0.00236
4682.52189,0.00219
4681.49164,0.00165
4680.46138,0.00080
4679.43112,-0.00003
4678.40086,0.00042
4677.37061,0.00183
4676.34035,0.00257
4675.31009,0.00238
4674.27983,0.00203
4673.24957,0.00173
4672.21932,0.00149
4671.18906,0.00196
4670.15880,0.00264
4669.12854,0.00247
4668.09828,0.00163
4667.06803,0.00099
4666.03777,0.00129
4665.00751,0.00184
4663.97725,0.00159
4662.94700,0.00115
4661.91674,0.00162
4660.88648,0.00258
4659.85622,0.00262
4658.82596,0.00173
4657.79571,0.00124
4656.76545,0.00100
4655.73519,0.00071
4654.70493,0.00118
4653.67468,0.00196
4652.64442,0.00229
4651.61416,0.00275
4650.58390,0.00335
4649.55364,0.00318
4648.52339,0.00230
4647.49313,0.00174
4646.46287,0.00185
4645.43261,0.00189
4644.40235,0.00199
4643.37210,0.00267
4642.34184,0.00292
4641.31158,0.00220
4640.28132,0.00120
4639.25107,0.00048
4638.22081,0.00037
4637.19055,0.00088
4636.16029,0.00156
4635.13003,0.00180
4634.09978,0.00187
4633.06952,0.00265
4632.03926,0.00338
4631.00900,0.00310
4629.97874,0.00252
4628.94849,0.00205
4627.91823,0.00188
4626.88797,0.00239
4625.85771,0.00287
4624.82746,0.00253
4623.79720,0.00185
4622.76694,0.00169
4621.73668,0.00225
4620.70642,0.00301
4619.67617,0.00320
4618.64591,0.00282
4617.61565,0.00245
4616.58539,0.00237
4615.55513,0.00257
4614.52488,0.00226
4613.49462,0.00097
4612.46436,-0.00041
4611.43410,-0.00089
4610.40385,-0.00011
4609.37359,0.00107
4608.34333,0.00129
4607.31307,0.00086
4606.28281,0.00077
4605.25256,0.00097
4604.22230,0.00091
4603.19204,0.00054
4602.16178,0.00081
4601.13153,0.00148
4600.10127,0.00170
4599.07101,0.00205
4598.04075,0.00205
4597.01049,0.00124
4595.98024,0.00087
4594.94998,0.00094
4593.91972,0.00083
4592.88946,0.00131
4591.85920,0.00195
4590.82895,0.00155
4589.79869,0.00073
4588.76843,0.00040
4587.73817,0.00066
4586.70792,0.00105
4585.67766,0.00136
4584.64740,0.00185
4583.61714,0.00234
4582.58688,0.00202
4581.55663,0.00112
4580.52637,0.00092
4579.49611,0.00123
4578.46585,0.00145
4577.43559,0.00149
4576.40534,0.00129
4575.37508,0.00132
4574.34482,0.00169
4573.31456,0.00183
4572.28431,0.00154
4571.25405,0.00160
4570.22379,0.00216
4569.19353,0.00202
4568.16327,0.00117
4567.13302,0.00092
4566.10276,0.00141
4565.07250,0.00159
4564.04224,0.00138
4563.01198,0.00154
4561.98173,0.00210
4560.95147,0.00241
4559.92121,0.00213
4558.89095,0.00173
4557.86070,0.00153
4556.83044,0.00154
4555.80018,0.00195
4554.76992,0.00240
4553.73966,0.00200
4552.70941,0.00105
4551.67915,0.00050
4550.64889,0.00032
4549.61863,0.00040
4548.58838,0.00102
4547.55812,0.00168
4546.52786,0.00176
4545.49760,0.00155
4544.46734,0.00145
4543.43709,0.00168
4542.40683,0.00240
4541.37657,0.00282
4540.34631,0.00202
4539.31605,0.00077
4538.28580,0.00061
4537.25554,0.00139
4536.22528,0.00200
4535.19502,0.00205
4534.16477,0.00168
4533.13451,0.00167
4532.10425,0.00203
4531.07399,0.00163
4530.04373,0.00083
4529.01348,0.00097
4527.98322,0.00167
4526.95296,0.00186
4525.92270,0.00179
4524.89244,0.00189
4523.86219,0.00160
4522.83193,0.00069
4521.80167,0.00051
4520.77141,0.00185
4519.74116,0.00323
4518.71090,0.00341
4517.68064,0.00284
4516.65038,0.00233
4515.62012,0.00198
4514.58987,0.00173
4513.55961,0.00167
4512.52935,0.00181
4511.49909,0.00189
4510.46883,0.00177
4509.43858,0.00212
4508.40832,0.00288
4507.37806,0.00309
4506.34780,0.00265
4505.31755,0.00245
4504.28729,0.00253
4503.25703,0.00229
4502.22677,0.00228
4501.19651,0.00254
4500.16626,0.00247
4499.13600,0.00194
4498.10574,0.00146
4497.07548,0.00185
4496.04523,0.00263
4495.01497,0.00284
4493.98471,0.00257
4492.95445,0.00184
4491.92419,0.00113
4490.89394,0.00160
4489.86368,0.00291
4488.83342,0.00364
4487.80316,0.00325
4486.77290,0.00222
4485.74265,0.00160
4484.71239,0.00158
4483.68213,0.00167
4482.65187,0.00168
4481.62162,0.00164
4480.59136,0.00157
4479.56110,0.00137
4478.53084,0.00136
4477.50058,0.00203
4476.47033,0.00344
4475.44007,0.00453
4474.40981,0.00415
4473.37955,0.00319
4472.34929,0.00294
4471.31904,0.00305
4470.28878,0.00303
4469.25852,0.00310
4468.22826,0.00343
4467.19801,0.00376
4466.16775,0.00362
4465.13749,0.00311
4464.10723,0.00299
4463.07697,0.00294
4462.04672,0.00238
4461.01646,0.00220
4459.98620,0.00235
4458.95594,0.00193
4457.92568,0.00178
4456.89543,0.00212
4455.86517,0.00212
4454.83491,0.00212
4453.80465,0.00251
4452.77440,0.00282
4451.74414,0.00289
4450.71388,0.00281
4449.68362,0.00254
4448.65336,0.00218
4447.62311,0.00244
4446.59285,0.00307
4445.56259,0.00286
4444.53233,0.00219
4443.50208,0.00193
4442.47182,0.00208
4441.44156,0.00242
4440.41130,0.00263
4439.38104,0.00307
4438.35079,0.00378
4437.32053,0.00378
4436.29027,0.00300
4435.26001,0.00245
4434.22975,0.00242
4433.19950,0.00258
4432.16924,0.00243
4431.13898,0.00226
4430.10872,0.00276
4429.07847,0.00349
4428.04821,0.00376
4427.01795,0.00353
4425.98769,0.00346
4424.95743,0.00384
4423.92718,0.00389
4422.89692,0.00330
4421.86666,0.00279
4420.83640,0.00274
4419.80614,0.00296
4418.77589,0.00280
4417.74563,0.00214
4416.71537,0.00185
4415.68511,0.00230
4414.65486,0.00279
4413.62460,0.00274
4412.59434,0.00254
4411.56408,0.00276
4410.53382,0.00323
4409.50357,0.00331
4408.47331,0.00280
4407.44305,0.00239
4406.41279,0.00220
4405.38253,0.00147
4404.35228,0.00073
4403.32202,0.00100
4402.29176,0.00173
4401.26150,0.00220
4400.23125,0.00228
4399.20099,0.00195
4398.17073,0.00211
4397.14047,0.00289
4396.11021,0.00287
4395.07996,0.00225
4394.04970,0.00225
4393.01944,0.00243
4391.98918,0.00183
4390.95893,0.00096
4389.92867,0.00102
4388.89841,0.00193
4387.86815,0.00269
4386.83789,0.00298
4385.80764,0.00297
4384.77738,0.00251
4383.74712,0.00169
4382.71686,0.00138
4381.68660,0.00151
4380.65635,0.00113
4379.62609,0.00070
4378.59583,0.00108
4377.56557,0.00195
4376.53532,0.00266
4375.50506,0.00271
4374.47480,0.00228
4373.44454,0.00175
4372.41428,0.00126
4371.38403,0.00121
4370.35377,0.00149
4369.32351,0.00171
4368.29325,0.00195
4367.26299,0.00205
4366.23274,0.00178
4365.20248,0.00138
4364.17222,0.00122
4363.14196,0.00139
4362.11171,0.00181
4361.08145,0.00197
4360.05119,0.00161
4359.02093,0.00146
4357.99067,0.00146
4356.96042,0.00123
4355.93016,0.00141
4354.89990,0.00208
4353.86964,0.00235
4352.83939,0.00201
4351.80913,0.00182
4350.77887,0.00201
4349.74861,0.00208
4348.71835,0.00203
4347.68810,0.00200
4346.65784,0.00163
4345.62758,0.00141
4344.59732,0.00166
4343.56706,0.00170
4342.53681,0.00164
4341.50655,0.00192
4340.47629,0.00216
4339.44603,0.00213
4338.41578,0.00211
4337.38552,0.00189
4336.35526,0.00133
4335.32500,0.00093
4334.29474,0.00131
4333.26449,0.00206
4332.23423,0.00174
4331.20397,0.00059
4330.17371,0.00026
4329.14345,0.00074
4328.11320,0.00107
4327.08294,0.00114
4326.05268,0.00121
4325.02242,0.00134
4323.99217,0.00150
4322.96191,0.00194
4321.93165,0.00237
4320.90139,0.00236
4319.87113,0.00209
4318.84088,0.00160
4317.81062,0.00118
4316.78036,0.00162
4315.75010,0.00240
4314.71984,0.00233
4313.68959,0.00154
4312.65933,0.00116
4311.62907,0.00171
4310.59881,0.00223
4309.56856,0.00196
4308.53830,0.00141
4307.50804,0.00121
4306.47778,0.00134
4305.44752,0.00170
4304.41727,0.00221
4303.38701,0.00237
4302.35675,0.00211
4301.32649,0.00179
4300.29624,0.00164
4299.26598,0.00167
4298.23572,0.00200
4297.20546,0.00261
4296.17520,0.00316
4295.14495,0.00319
4294.11469,0.00243
4293.08443,0.00162
4292.05417,0.00158
4291.02391,0.00196
4289.99366,0.00189
4288.96340,0.00158
4287.93314,0.00150
4286.90288,0.00159
4285.87263,0.00165
4284.84237,0.00168
4283.81211,0.00186
4282.78185,0.00189
4281.75159,0.00172
4280.72134,0.00191
4279.69108,0.00240
4278.66082,0.00277
4277.63056,0.00282
4276.60030,0.00248
4275.57005,0.00191
4274.53979,0.00150
4273.50953,0.00169
4272.47927,0.00222
4271.44902,0.00219
4270.41876,0.00196
4269.38850,0.00216
4268.35824,0.00231
4267.32798,0.00211
4266.29773,0.00222
4265.26747,0.00271
4264.23721,0.00274
4263.20695,0.00221
4262.17669,0.00179
4261.14644,0.00182
4260.11618,0.00221
4259.08592,0.00243
4258.05566,0.00185
4257.02541,0.00113
4255.99515,0.00139
4254.96489,0.00224
4253.93463,0.00251
4252.90437,0.00212
4251.87412,0.00162
4250.84386,0.00140
4249.81360,0.00168
4248.78334,0.00208
4247.75309,0.00209
4246.72283,0.00158
4245.69257,0.00114
4244.66231,0.00123
4243.63205,0.00131
4242.60180,0.00130
4241.57154,0.00176
4240.54128,0.00243
4239.51102,0.00267
4238.48076,0.00243
4237.45051,0.00189
4236.42025,0.00118
4235.38999,0.00076
4234.35973,0.00126
4233.32948,0.00222
4232.29922,0.00258
4231.26896,0.00239
4230.23870,0.00241
4229.20844,0.00264
4228.17819,0.00258
4227.14793,0.00221
4226.11767,0.00220
4225.08741,0.00252
4224.05715,0.00236
4223.02690,0.00208
4221.99664,0.00229
4220.96638,0.00247
4219.93612,0.00238
4218.90587,0.00234
4217.87561,0.00244
4216.84535,0.00263
4215.81509,0.00283
4214.78483,0.00292
4213.75458,0.00286
4212.72432,0.00282
4211.69406,0.00307
4210.66380,0.00323
4209.63354,0.00289
4208.60329,0.00270
4207.57303,0.00268
4206.54277,0.00227
4205.51251,0.00202
4204.48226,0.00223
4203.45200,0.00230
4202.42174,0.00207
4201.39148,0.00185
4200.36122,0.00182
4199.33097,0.00181
4198.30071,0.00180
4197.27045,0.00209
4196.24019,0.00226
4195.20994,0.00188
4194.17968,0.00161
4193.14942,0.00189
4192.11916,0.00213
4191.08890,0.00202
4190.05865,0.00184
4189.02839,0.00192
4187.99813,0.00211
4186.96787,0.00189
4185.93761,0.00139
4184.90736,0.00130
4183.87710,0.00154
4182.84684,0.00181
4181.81658,0.00227
4180.78633,0.00253
4179.75607,0.00225
4178.72581,0.00208
4177.69555,0.00226
4176.66529,0.00210
4175.63504,0.00151
4174.60478,0.00153
4173.57452,0.00240
4172.54426,0.00301
4171.51400,0.00307
4170.48375,0.00291
4169.45349,0.00230
4168.42323,0.00179
4167.39297,0.00209
4166.36272,0.00243
4165.33246,0.00208
4164.30220,0.00161
4163.27194,0.00177
4162.24168,0.00220
4161.21143,0.00243
4160.18117,0.00276
4159.15091,0.00298
4158.12065,0.00279
4157.09039,0.00249
4156.06014,0.00247
4155.02988,0.00292
4153.99962,0.00335
4152.96936,0.00318
4151.93911,0.00268
4150.90885,0.00263
4149.87859,0.00304
4148.84833,0.00298
4147.81807,0.00250
4146.78782,0.00227
4145.75756,0.00242
4144.72730,0.00276
4143.69704,0.00280
4142.66679,0.00263
4141.63653,0.00263
4140.60627,0.00256
4139.57601,0.00247
4138.54575,0.00256
4137.51550,0.00260
4136.48524,0.00236
4135.45498,0.00210
4134.42472,0.00228
4133.39446,0.00256
4132.36421,0.00237
4131.33395,0.00201
4130.30369,0.00210
4129.27343,0.00250
4128.24318,0.00261
4127.21292,0.00229
4126.18266,0.00187
4125.15240,0.00176
4124.12214,0.00191
4123.09189,0.00199
4122.06163,0.00208
4121.03137,0.00226
4120.00111,0.00224
4118.97085,0.00208
4117.94060,0.00204
4116.91034,0.00204
4115.88008,0.00211
4114.84982,0.00215
4113.81957,0.00210
4112.78931,0.00225
4111.75905,0.00259
4110.72879,0.00257
4109.69853,0.00221
4108.66828,0.00207
4107.63802,0.00204
4106.60776,0.00200
4105.57750,0.00233
4104.54724,0.00285
4103.51699,0.00305
4102.48673,0.00280
4101.45647,0.00222
4100.42621,0.00165
4099.39596,0.00178
4098.36570,0.00280
4097.33544,0.00351
4096.30518,0.00340
4095.27492,0.00311
4094.24467,0.00297
4093.21441,0.00296
4092.18415,0.00292
4091.15389,0.00274
4090.12364,0.00252
4089.09338,0.00235
4088.06312,0.00235
4087.03286,0.00250
4086.00260,0.00281
4084.97235,0.00333
4083.94209,0.00368
4082.91183,0.00329
4081.88157,0.00240
4080.85131,0.00208
4079.82106,0.00208
4078.79080,0.00180
4077.76054,0.00183
4076.73028,0.00231
4075.70003,0.00281
4074.66977,0.00304
4073.63951,0.00293
4072.60925,0.00252
4071.57899,0.00218
4070.54874,0.00241
4069.51848,0.00298
4068.48822,0.00312
4067.45796,0.00285
4066.42770,0.00265
4065.39745,0.00234
4064.36719,0.00195
4063.33693,0.00193
4062.30667,0.00215
4061.27642,0.00231
4060.24616,0.00233
4059.21590,0.00241
4058.18564,0.00248
4057.15538,0.00230
4056.12513,0.00239
4055.09487,0.00288
4054.06461,0.00308
4053.03435,0.00281
4052.00409,0.00248
4050.97384,0.00226
4049.94358,0.00220
4048.91332,0.00236
4047.88306,0.00237
4046.85281,0.00208
4045.82255,0.00197
4044.79229,0.00204
4043.76203,0.00218
4042.73177,0.00229
4041.70152,0.00220
4040.67126,0.00213
4039.64100,0.00234
4038.61074,0.00257
4037.58049,0.00246
4036.55023,0.00242
4035.51997,0.00269
4034.48971,0.00284
4033.45945,0.00275
4032.42920,0.00272
4031.39894,0.00282
4030.36868,0.00284
4029.33842,0.00254
4028.30816,0.00216
4027.27791,0.00224
4026.24765,0.00273
4025.21739,0.00322
4024.18713,0.00321
4023.15688,0.00280
4022.12662,0.00258
4021.09636,0.00256
4020.06610,0.00288
4019.03584,0.00350
4018.00559,0.00355
4016.97533,0.00324
4015.94507,0.00338
4014.91481,0.00339
4013.88455,0.00306
4012.85430,0.00295
4011.82404,0.00279
4010.79378,0.00253
4009.76352,0.00252
4008.73327,0.00268
4007.70301,0.00301
4006.67275,0.00345
4005.64249,0.00354
4004.61223,0.00330
4003.58198,0.00295
4002.55172,0.00242
4001.52146,0.00225
4000.49120,0.00280
3999.46095,0.00329
3998.43069,0.00310
3997.40043,0.00260
3996.37017,0.00241
3995.33991,0.00284
3994.30966,0.00318
3993.27940,0.00291
3992.24914,0.00272
3991.21888,0.00286
3990.18862,0.00293
3989.15837,0.00296
3988.12811,0.00310
3987.09785,0.00291
3986.06759,0.00254
3985.03734,0.00268
3984.00708,0.00295
3982.97682,0.00287
3981.94656,0.00260
3980.91630,0.00247
3979.88605,0.00264
3978.85579,0.00255
3977.82553,0.00216
3976.79527,0.00224
3975.76501,0.00270
3974.73476,0.00297
3973.70450,0.00301
3972.67424,0.00287
3971.64398,0.00250
3970.61373,0.00208
3969.58347,0.00199
3968.55321,0.00245
3967.52295,0.00300
3966.49269,0.00292
3965.46244,0.00246
3964.43218,0.00243
3963.40192,0.00278
3962.37166,0.00267
3961.34140,0.00217
3960.31115,0.00230
3959.28089,0.00292
3958.25063,0.00299
3957.22037,0.00267
3956.19012,0.00252
3955.15986,0.00241
3954.12960,0.00236
3953.09934,0.00244
3952.06908,0.00258
3951.03883,0.00251
3950.00857,0.00206
3948.97831,0.00174
3947.94805,0.00198
3946.91780,0.00227
3945.88754,0.00204
3944.85728,0.00178
3943.82702,0.00191
3942.79676,0.00214
3941.76651,0.00215
3940.73625,0.00214
3939.70599,0.00230
3938.67573,0.00242
3937.64547,0.00236
3936.61522,0.00203
3935.58496,0.00171
3934.55470,0.00178
3933.52444,0.00204
3932.49419,0.00223
3931.46393,0.00239
3930.43367,0.00248
3929.40341,0.00244
3928.37315,0.00225
3927.34290,0.00193
3926.31264,0.00171
3925.28238,0.00191
3924.25212,0.00208
3923.22186,0.00188
3922.19161,0.00203
3921.16135,0.00252
3920.13109,0.00279
3919.10083,0.00279
3918.07058,0.00264
3917.04032,0.00261
3916.01006,0.00280
3914.97980,0.00287
3913.94954,0.00261
3912.91929,0.00221
3911.88903,0.00202
3910.85877,0.00205
3909.82851,0.00218
3908.79825,0.00226
3907.76800,0.00248
3906.73774,0.00281
3905.70748,0.00230
3904.67722,0.00119
3903.64697,0.00096
3902.61671,0.00133
3901.58645,0.00150
3900.55619,0.00195
3899.52593,0.00233
3898.49568,0.00213
3897.46542,0.00199
3896.43516,0.00209
3895.40490,0.00236
3894.37465,0.00254
3893.34439,0.00251
3892.31413,0.00269
3891.28387,0.00293
3890.25361,0.00280
3889.22336,0.00269
3888.19310,0.00256
3887.16284,0.00215
3886.13258,0.00186
3885.10232,0.00216
3884.07207,0.00246
3883.04181,0.00231
3882.01155,0.00205
3880.98129,0.00190
3879.95104,0.00175
3878.92078,0.00191
3877.89052,0.00221
3876.86026,0.00222
3875.83000,0.00243
3874.79975,0.00284
3873.76949,0.00278
3872.73923,0.00250
3871.70897,0.00249
3870.67871,0.00283
3869.64846,0.00305
3868.61820,0.00262
3867.58794,0.00209
3866.55768,0.00195
3865.52743,0.00192
3864.49717,0.00178
3863.46691,0.00219
3862.43665,0.00293
3861.40639,0.00297
3860.37614,0.00249
3859.34588,0.00242
3858.31562,0.00261
3857.28536,0.00251
3856.25510,0.00256
3855.22485,0.00317
3854.19459,0.00344
3853.16433,0.00282
3852.13407,0.00254
3851.10382,0.00263
3850.07356,0.00265
3849.04330,0.00233
3848.01304,0.00194
3846.98278,0.00189
3845.95253,0.00201
3844.92227,0.00217
3843.89201,0.00243
3842.86175,0.00271
3841.83150,0.00310
3840.80124,0.00341
3839.77098,0.00344
3838.74072,0.00327
3837.71046,0.00262
3836.68021,0.00190
3835.64995,0.00195
3834.61969,0.00254
3833.58943,0.00286
3832.55917,0.00265
3831.52892,0.00211
3830.49866,0.00183
3829.46840,0.00228
3828.43814,0.00285
3827.40789,0.00271
3826.37763,0.00193
3825.34737,0.00159
3824.31711,0.00177
3823.28685,0.00189
3822.25660,0.00210
3821.22634,0.00235
3820.19608,0.00235
3819.16582,0.00227
3818.13556,0.00219
3817.10531,0.00227
3816.07505,0.00273
3815.04479,0.00330
3814.01453,0.00371
3812.98428,0.00384
3811.95402,0.00392
3810.92376,0.00388
3809.89350,0.00334
3808.86324,0.00305
3807.83299,0.00336
3806.80273,0.00348
3805.77247,0.00309
3804.74221,0.00264
3803.71195,0.00236
3802.68170,0.00238
3801.65144,0.00231
3800.62118,0.00177
3799.59092,0.00163
3798.56067,0.00225
3797.53041,0.00302
3796.50015,0.00303
3795.46989,0.00268
3794.43963,0.00266
3793.40938,0.00249
3792.37912,0.00219
3791.34886,0.00229
3790.31860,0.00299
3789.28835,0.00364
3788.25809,0.00342
3787.22783,0.00283
3786.19757,0.00274
3785.16731,0.00297
3784.13706,0.00302
3783.10680,0.00309
3782.07654,0.00326
3781.04628,0.00318
3780.01602,0.00289
3778.98577,0.00269
3777.95551,0.00258
3776.92525,0.00253
3775.89499,0.00263
3774.86474,0.00279
3773.83448,0.00295
3772.80422,0.00327
3771.77396,0.00341
3770.74370,0.00328
3769.71345,0.00346
3768.68319,0.00395
3767.65293,0.00405
3766.62267,0.00384
3765.59241,0.00385
3764.56216,0.00403
3763.53190,0.00416
3762.50164,0.00408
3761.47138,0.00386
3760.44113,0.00392
3759.41087,0.00389
3758.38061,0.00348
3757.35035,0.00336
3756.32009,0.00360
3755.28984,0.00398
3754.25958,0.00434
3753.22932,0.00417
3752.19906,0.00361
3751.16880,0.00363
3750.13855,0.00406
3749.10829,0.00463
3748.07803,0.00479
3747.04777,0.00415
3746.01752,0.00337
3744.98726,0.00314
3743.95700,0.00370
3742.92674,0.00461
3741.89648,0.00564
3740.86623,0.00608
3739.83597,0.00528
3738.80571,0.00411
3737.77545,0.00353
3736.74520,0.00346
3735.71494,0.00364
3734.68468,0.00427
3733.65442,0.00479
3732.62416,0.00457
3731.59391,0.00412
3730.56365,0.00431
3729.53339,0.00469
3728.50313,0.00479
3727.47287,0.00470
3726.44262,0.00477
3725.41236,0.00508
3724.38210,0.00515
3723.35184,0.00494
3722.32159,0.00492
3721.29133,0.00498
3720.26107,0.00441
3719.23081,0.00372
3718.20055,0.00403
3717.17030,0.00499
3716.14004,0.00568
3715.10978,0.00602
3714.07952,0.00597
3713.04926,0.00565
3712.01901,0.00534
3710.98875,0.00474
3709.95849,0.00445
3708.92823,0.00503
3707.89798,0.00544
3706.86772,0.00512
3705.83746,0.00496
3704.80720,0.00537
3703.77694,0.00598
3702.74669,0.00633
3701.71643,0.00614
3700.68617,0.00578
3699.65591,0.00573
3698.62565,0.00575
3697.59540,0.00572
3696.56514,0.00610
3695.53488,0.00689
3694.50462,0.00751
3693.47437,0.00750
3692.44411,0.00742
3691.41385,0.00779
3690.38359,0.00809
3689.35333,0.00825
3688.32308,0.00851
3687.29282,0.00896
3686.26256,0.00910
3685.23230,0.00886
3684.20205,0.00906
3683.17179,0.00947
3682.14153,0.00962
3681.11127,0.01011
3680.08101,0.01053
3679.05076,0.01034
3678.02050,0.01053
3676.99024,0.01125
3675.95998,0.01225
3674.92972,0.01291
3673.89947,0.01277
3672.86921,0.01293
3671.83895,0.01360
3670.80869,0.01447
3669.77844,0.01479
3668.74818,0.01460
3667.71792,0.01489
3666.68766,0.01559
3665.65740,0.01586
3664.62715,0.01594
3663.59689,0.01673
3662.56663,0.01774
3661.53637,0.01832
3660.50611,0.01871
3659.47586,0.01917
3658.44560,0.01931
3657.41534,0.01905
3656.38508,0.01927
3655.35483,0.02005
3654.32457,0.02068
3653.29431,0.02128
3652.26405,0.02198
3651.23379,0.02289
3650.20354,0.02376
3649.17328,0.02431
3648.14302,0.02494
3647.11276,0.02562
3646.08250,0.02610
3645.05225,0.02635
3644.02199,0.02658
3642.99173,0.02733
3641.96147,0.02841
3640.93122,0.02887
3639.90096,0.02904
3638.87070,0.02982
3637.84044,0.03088
3636.81018,0.03150
3635.77993,0.03166
3634.74967,0.03181
3633.71941,0.03225
3632.68915,0.03278
3631.65890,0.03333
3630.62864,0.03397
3629.59838,0.03466
3628.56812,0.03541
3627.53786,0.03613
3626.50761,0.03662
3625.47735,0.03682
3624.44709,0.03713
3623.41683,0.03774
3622.38657,0.03839
3621.35632,0.03929
3620.32606,0.04012
3619.29580,0.04016
3618.26554,0.03989
3617.23529,0.04055
3616.20503,0.04195
3615.17477,0.04289
3614.14451,0.04329
3613.11425,0.04367
3612.08400,0.04421
3611.05374,0.04523
3610.02348,0.04646
3608.99322,0.04698
3607.96296,0.04706
3606.93271,0.04752
3605.90245,0.04816
3604.87219,0.04892
3603.84193,0.04962
3602.81168,0.04997
3601.78142,0.05055
3600.75116,0.05150
3599.72090,0.05201
3598.69064,0.05230
3597.66039,0.05287
3596.63013,0.05360
3595.59987,0.05433
3594.56961,0.05500
3593.53936,0.05567
3592.50910,0.05650
3591.47884,0.05744
3590.44858,0.05845
3589.41832,0.05972
3588.38807,0.06062
3587.35781,0.06056
3586.32755,0.06060
3585.29729,0.06166
3584.26703,0.06294
3583.23678,0.06363
3582.20652,0.06422
3581.17626,0.06522
3580.14600,0.06603
3579.11575,0.06638
3578.08549,0.06704
3577.05523,0.06833
3576.02497,0.06944
3574.99471,0.06987
3573.96446,0.07025
3572.93420,0.07119
3571.90394,0.07213
3570.87368,0.07267
3569.84342,0.07321
3568.81317,0.07423
3567.78291,0.07572
3566.75265,0.07690
3565.72239,0.07778
3564.69214,0.07919
3563.66188,0.08057
3562.63162,0.08099
3561.60136,0.08104
3560.57110,0.08140
3559.54085,0.08203
3558.51059,0.08303
3557.48033,0.08427
3556.45007,0.08541
3555.41981,0.08650
3554.38956,0.08774
3553.35930,0.08878
3552.32904,0.08938
3551.29878,0.08986
3550.26853,0.09061
3549.23827,0.09184
3548.20801,0.09329
3547.17775,0.09446
3546.14749,0.09507
3545.11724,0.09561
3544.08698,0.09657
3543.05672,0.09755
3542.02646,0.09825
3540.99621,0.09923
3539.96595,0.10062
3538.93569,0.10172
3537.90543,0.10258
3536.87517,0.10360
3535.84492,0.10474
3534.81466,0.10587
3533.78440,0.10719
3532.75414,0.10870
3531.72388,0.10984
3530.69363,0.11064
3529.66337,0.11138
3528.63311,0.11227
3527.60285,0.11361
3526.57260,0.11493
3525.54234,0.11600
3524.51208,0.11727
3523.48182,0.11850
3522.45156,0.11911
3521.42131,0.11958
3520.39105,0.12047
3519.36079,0.12158
3518.33053,0.12290
3517.30027,0.12418
3516.27002,0.12507
3515.23976,0.12579
3514.20950,0.12650
3513.17924,0.12744
3512.14899,0.12862
3511.11873,0.12987
3510.08847,0.13130
3509.05821,0.13282
3508.02795,0.13420
3506.99770,0.13545
3505.96744,0.13638
3504.93718,0.13695
3503.90692,0.13745
3502.87666,0.13826
3501.84641,0.13950
3500.81615,0.14079
3499.78589,0.14192
3498.75563,0.14295
3497.72538,0.14345
3496.69512,0.14353
3495.66486,0.14427
3494.63460,0.14568
3493.60434,0.14705
3492.57409,0.14840
3491.54383,0.14970
3490.51357,0.15075
3489.48331,0.15180
3488.45306,0.15294
3487.42280,0.15389
3486.39254,0.15460
3485.36228,0.15572
3484.33202,0.15751
3483.30177,0.15888
3482.27151,0.15955
3481.24125,0.16021
3480.21099,0.16102
3479.18073,0.16222
3478.15048,0.16358
3477.12022,0.16474
3476.08996,0.16576
3475.05970,0.16620
3474.02945,0.16650
3472.99919,0.16758
3471.96893,0.16919
3470.93867,0.17034
3469.90841,0.17071
3468.87816,0.17133
3467.84790,0.17269
3466.81764,0.17404
3465.78738,0.17500
3464.75712,0.17563
3463.72687,0.17623
3462.69661,0.17734
3461.66635,0.17876
3460.63609,0.17991
3459.60584,0.18065
3458.57558,0.18125
3457.54532,0.18203
3456.51506,0.18330
3455.48480,0.18484
3454.45455,0.18610
3453.42429,0.18696
3452.39403,0.18763
3451.36377,0.18865
3450.33351,0.19006
3449.30326,0.19106
3448.27300,0.19154
3447.24274,0.19213
3446.21248,0.19324
3445.18223,0.19468
3444.15197,0.19574
3443.12171,0.19651
3442.09145,0.19750
3441.06119,0.19856
3440.03094,0.20001
3439.00068,0.20174
3437.97042,0.20288
3436.94016,0.20351
3435.90991,0.20426
3434.87965,0.20511
3433.84939,0.20572
3432.81913,0.20617
3431.78887,0.20683
3430.75862,0.20781
3429.72836,0.20873
3428.69810,0.20976
3427.66784,0.21146
3426.63758,0.21300
3425.60733,0.21361
3424.57707,0.21391
3423.54681,0.21450
3422.51655,0.21570
3421.48630,0.21720
3420.45604,0.21843
3419.42578,0.21937
3418.39552,0.22026
3417.36526,0.22122
3416.33501,0.22205
3415.30475,0.22292
3414.27449,0.22378
3413.24423,0.22437
3412.21397,0.22519
3411.18372,0.22625
3410.15346,0.22680
3409.12320,0.22735
3408.09294,0.22882
3407.06269,0.23049
3406.03243,0.23172
3405.00217,0.23276
3403.97191,0.23330
3402.94165,0.23318
3401.91140,0.23332
3400.88114,0.23428
3399.85088,0.23539
3398.82062,0.23600
3397.79036,0.23639
3396.76011,0.23705
3395.72985,0.23780
3394.69959,0.23842
3393.66933,0.23884
3392.63908,0.23910
3391.60882,0.23963
3390.57856,0.24047
3389.54830,0.24124
3388.51804,0.24209
3387.48779,0.24310
3386.45753,0.24402
3385.42727,0.24490
3384.39701,0.24596
3383.36676,0.24711
3382.33650,0.24792
3381.30624,0.24817
3380.27598,0.24820
3379.24572,0.24811
3378.21547,0.24816
3377.18521,0.24894
3376.15495,0.25013
3375.12469,0.25098
3374.09443,0.25138
3373.06418,0.25142
3372.03392,0.25150
3371.00366,0.25197
3369.97340,0.25233
3368.94315,0.25248
3367.91289,0.25277
3366.88263,0.25318
3365.85237,0.25364
3364.82211,0.25430
3363.79186,0.25526
3362.76160,0.25604
3361.73134,0.25646
3360.70108,0.25679
3359.67082,0.25689
3358.64057,0.25666
3357.61031,0.25683
3356.58005,0.25778
3355.54979,0.25853
3354.51954,0.25863
3353.48928,0.25883
3352.45902,0.25889
3351.42876,0.25845
3350.39850,0.25836
3349.36825,0.25906
3348.33799,0.25986
3347.30773,0.26048
3346.27747,0.26110
3345.24721,0.26179
3344.21696,0.26237
3343.18670,0.26209
3342.15644,0.26127
3341.12618,0.26097
3340.09593,0.26118
3339.06567,0.26180
3338.03541,0.26253
3337.00515,0.26278
3335.97489,0.26287
3334.94464,0.26320
3333.91438,0.26340
3332.88412,0.26348
3331.85386,0.26397
3330.82361,0.26448
3329.79335,0.26454
3328.76309,0.26456
3327.73283,0.26486
3326.70257,0.26510
3325.67232,0.26515
3324.64206,0.26531
3323.61180,0.26545
3322.58154,0.26530
3321.55128,0.26522
3320.52103,0.26561
3319.49077,0.26606
3318.46051,0.26627
3317.43025,0.26641
3316.40000,0.26656
3315.36974,0.26672
3314.33948,0.26679
3313.30922,0.26679
3312.27896,0.26693
3311.24871,0.26711
3310.21845,0.26729
3309.18819,0.26756
3308.15793,0.26773
3307.12767,0.26781
3306.09742,0.26771
3305.06716,0.26781
3304.03690,0.26846
3303.00664,0.26903
3301.97639,0.26928
3300.94613,0.26929
3299.91587,0.26916
3298.88561,0.26934
3297.85535,0.26979
3296.82510,0.27018
3295.79484,0.27039
3294.76458,0.27037
3293.73432,0.27025
3292.70406,0.27030
3291.67381,0.27071
3290.64355,0.27108
3289.61329,0.27096
3288.58303,0.27094
3287.55278,0.27141
3286.52252,0.27227
3285.49226,0.27295
3284.46200,0.27318
3283.43174,0.27345
3282.40149,0.27342
3281.37123,0.27323
3280.34097,0.27342
3279.31071,0.27379
3278.28046,0.27393
3277.25020,0.27387
3276.21994,0.27407
3275.18968,0.27449
3274.15942,0.27468
3273.12917,0.27445
3272.09891,0.27416
3271.06865,0.27441
3270.03839,0.27485
3269.00813,0.27476
3267.97788,0.27454
3266.94762,0.27480
3265.91736,0.27547
3264.88710,0.27620
3263.85685,0.27666
3262.82659,0.27654
3261.79633,0.27605
3260.76607,0.27601
3259.73581,0.27674
3258.70556,0.27778
3257.67530,0.27821
3256.64504,0.27808
3255.61478,0.27789
3254.58452,0.27764
3253.55427,0.27763
3252.52401,0.27777
3251.49375,0.27756
3250.46349,0.27703
3249.43324,0.27680
3248.40298,0.27716
3247.37272,0.27738
3246.34246,0.27708
3245.31220,0.27681
3244.28195,0.27703
3243.25169,0.27753
3242.22143,0.27799
3241.19117,0.27805
3240.16092,0.27786
3239.13066,0.27788
3238.10040,0.27801
3237.07014,0.27797
3236.03988,0.27751
3235.00963,0.27694
3233.97937,0.27657
3232.94911,0.27638
3231.91885,0.27653
3230.88859,0.27669
3229.85834,0.27639
3228.82808,0.27602
3227.79782,0.27603
3226.76756,0.27643
3225.73731,0.27694
3224.70705,0.27716
3223.67679,0.27679
3222.64653,0.27609
3221.61627,0.27559
3220.58602,0.27551
3219.55576,0.27547
3218.52550,0.27508
3217.49524,0.27489
3216.46498,0.27494
3215.43473,0.27451
3214.40447,0.27365
3213.37421,0.27295
3212.34395,0.27261
3211.31370,0.27246
3210.28344,0.27277
3209.25318,0.27315
3208.22292,0.27271
3207.19266,0.27202
3206.16241,0.27185
3205.13215,0.27188
3204.10189,0.27175
3203.07163,0.27138
3202.04137,0.27095
3201.01112,0.27074
3199.98086,0.27043
3198.95060,0.26990
3197.92034,0.26948
3196.89009,0.26915
3195.85983,0.26873
3194.82957,0.26832
3193.79931,0.26796
3192.76905,0.26752
3191.73880,0.26690
3190.70854,0.26647
3189.67828,0.26644
3188.64802,0.26657
3187.61777,0.26638
3186.58751,0.26562
3185.55725,0.26480
3184.52699,0.26437
3183.49673,0.26411
3182.46648,0.26342
3181.43622,0.26233
3180.40596,0.26167
3179.37570,0.26137
3178.34544,0.26094
3177.31519,0.26049
3176.28493,0.26016
3175.25467,0.25976
3174.22441,0.25939
3173.19416,0.25947
3172.16390,0.25941
3171.13364,0.25845
3170.10338,0.25743
3169.07312,0.25709
3168.04287,0.25672
3167.01261,0.25600
3165.98235,0.25542
3164.95209,0.25502
3163.92183,0.25448
3162.89158,0.25382
3161.86132,0.25324
3160.83106,0.25254
3159.80080,0.25203
3158.77055,0.25245
3157.74029,0.25280
3156.71003,0.25206
3155.67977,0.25069
3154.64951,0.24922
3153.61926,0.24848
3152.58900,0.24853
3151.55874,0.24830
3150.52848,0.24760
3149.49822,0.24716
3148.46797,0.24688
3147.43771,0.24625
3146.40745,0.24577
3145.37719,0.24549
3144.34694,0.24476
3143.31668,0.24374
3142.28642,0.24281
3141.25616,0.24201
3140.22590,0.24152
3139.19565,0.24139
3138.16539,0.24149
3137.13513,0.24147
3136.10487,0.24076
3135.07462,0.23968
3134.04436,0.23911
3133.01410,0.23909
3131.98384,0.23894
3130.95358,0.23831
3129.92333,0.23745
3128.89307,0.23654
3127.86281,0.23573
3126.83255,0.23500
3125.80229,0.23413
3124.77204,0.23377
3123.74178,0.23407
3122.71152,0.23399
3121.68126,0.23314
3120.65101,0.23202
3119.62075,0.23135
3118.59049,0.23099
3117.56023,0.23023
3116.52997,0.22915
3115.49972,0.22846
3114.46946,0.22831
3113.43920,0.22802
3112.40894,0.22738
3111.37868,0.22668
3110.34843,0.22603
3109.31817,0.22542
3108.28791,0.22464
3107.25765,0.22376
3106.22740,0.22319
3105.19714,0.22278
3104.16688,0.22220
3103.13662,0.22172
3102.10636,0.22124
3101.07611,0.22034
3100.04585,0.21962
3099.01559,0.21930
3097.98533,0.21867
3096.95507,0.21790
3095.92482,0.21720
3094.89456,0.21650
3093.86430,0.21603
3092.83404,0.21559
3091.80379,0.21484
3090.77353,0.21373
3089.74327,0.21279
3088.71301,0.21253
3087.68275,0.21239
3086.65250,0.21175
3085.62224,0.21090
3084.59198,0.21015
3083.56172,0.20939
3082.53147,0.20882
3081.50121,0.20841
3080.47095,0.20794
3079.44069,0.20744
3078.41043,0.20684
3077.38018,0.20627
3076.34992,0.20601
3075.31966,0.20575
3074.28940,0.20495
3073.25914,0.20363
3072.22889,0.20250
3071.19863,0.20217
3070.16837,0.20190
3069.13811,0.20102
3068.10786,0.20018
3067.07760,0.19996
3066.04734,0.20028
3065.01708,0.20049
3063.98682,0.19987
3062.95657,0.19870
3061.92631,0.19753
3060.89605,0.19678
3059.86579,0.19644
3058.83553,0.19578
3057.80528,0.19486
3056.77502,0.19422
3055.74476,0.19343
3054.71450,0.19256
3053.68425,0.19247
3052.65399,0.19249
3051.62373,0.19163
3050.59347,0.19094
3049.56321,0.19104
3048.53296,0.19081
3047.50270,0.19000
3046.47244,0.18908
3045.44218,0.18817
3044.41192,0.18777
3043.38167,0.18776
3042.35141,0.18760
3041.32115,0.18757
3040.29089,0.18786
3039.26064,0.18788
3038.23038,0.18725
3037.20012,0.18625
3036.16986,0.18523
3035.13960,0.18455
3034.10935,0.18450
3033.07909,0.18478
3032.04883,0.18472
3031.01857,0.18432
3029.98832,0.18400
3028.95806,0.18345
3027.92780,0.18235
3026.89754,0.18139
3025.86728,0.18108
3024.83703,0.18086
3023.80677,0.18024
3022.77651,0.17938
3021.74625,0.17825
3020.71599,0.17688
3019.68574,0.17592
3018.65548,0.17532
3017.62522,0.17415
3016.59496,0.17247
3015.56471,0.17131
3014.53445,0.17078
3013.50419,0.17009
3012.47393,0.16941
3011.44367,0.16891
3010.41342,0.16811
3009.38316,0.16743
3008.35290,0.16730
3007.32264,0.16713
3006.29238,0.16651
3005.26213,0.16534
3004.23187,0.16399
3003.20161,0.16314
3002.17135,0.16245
3001.14110,0.16164
3000.11084,0.16102
2999.08058,0.16018
2998.05032,0.15891
2997.02006,0.15804
2995.98981,0.15786
2994.95955,0.15759
2993.92929,0.15679
2992.89903,0.15587
2991.86877,0.15504
2990.83852,0.15413
2989.80826,0.15322
2988.77800,0.15262
2987.74774,0.15217
2986.71749,0.15151
2985.68723,0.15098
2984.65697,0.15055
2983.62671,0.14990
2982.59645,0.14947
2981.56620,0.14930
2980.53594,0.14857
2979.50568,0.14762
2978.47542,0.14748
2977.44517,0.14765
2976.41491,0.14727
2975.38465,0.14663
2974.35439,0.14646
2973.32413,0.14662
2972.29388,0.14641
2971.26362,0.14606
2970.23336,0.14583
2969.20310,0.14554
2968.17284,0.14551
2967.14259,0.14572
2966.11233,0.14562
2965.08207,0.14525
2964.05181,0.14511
2963.02156,0.14533
2961.99130,0.14544
2960.96104,0.14516
2959.93078,0.14449
2958.90052,0.14353
2957.87027,0.14262
2956.84001,0.14156
2955.80975,0.14014
2954.77949,0.13870
2953.74923,0.13737
2952.71898,0.13644
2951.68872,0.13623
2950.65846,0.13595
2949.62820,0.13476
2948.59795,0.13321
2947.56769,0.13220
2946.53743,0.13158
2945.50717,0.13075
2944.47691,0.12953
2943.44666,0.12824
2942.41640,0.12720
2941.38614,0.12652
2940.35588,0.12606
2939.32562,0.12542
2938.29537,0.12443
2937.26511,0.12345
2936.23485,0.12265
2935.20459,0.12186
2934.17434,0.12099
2933.14408,0.12012
2932.11382,0.11957
2931.08356,0.11940
2930.05330,0.11891
2929.02305,0.11800
2927.99279,0.11715
2926.96253,0.11658
2925.93227,0.11639
2924.90202,0.11606
2923.87176,0.11534
2922.84150,0.11474
2921.81124,0.11419
2920.78098,0.11352
2919.75073,0.11285
2918.72047,0.11204
2917.69021,0.11130
2916.65995,0.11083
2915.62969,0.11039
2914.59944,0.11010
2913.56918,0.10973
2912.53892,0.10875
2911.50866,0.10765
2910.47841,0.10707
2909.44815,0.10667
2908.41789,0.10605
2907.38763,0.10522
2906.35737,0.10437
2905.32712,0.10367
2904.29686,0.10310
2903.26660,0.10255
2902.23634,0.10212
2901.20608,0.10190
2900.17583,0.10138
2899.14557,0.10049
2898.11531,0.10002
2897.08505,0.09988
2896.05480,0.09948
2895.02454,0.09882
2893.99428,0.09803
2892.96402,0.09746
2891.93376,0.09730
2890.90351,0.09688
2889.87325,0.09616
2888.84299,0.09561
2887.81273,0.09502
2886.78247,0.09426
2885.75222,0.09360
2884.72196,0.09310
2883.69170,0.09266
2882.66144,0.09230
2881.63119,0.09200
2880.60093,0.09167
2879.57067,0.09106
2878.54041,0.09010
2877.51015,0.08936
2876.47990,0.08914
2875.44964,0.08896
2874.41938,0.08843
2873.38912,0.08763
2872.35887,0.08690
2871.32861,0.08634
2870.29835,0.08576
2869.26809,0.08530
2868.23783,0.08498
2867.20758,0.08463
2866.17732,0.08421
2865.14706,0.08362
2864.11680,0.08331
2863.08654,0.08339
2862.05629,0.08292
2861.02603,0.08180
2859.99577,0.08087
2858.96551,0.08036
2857.93526,0.07995
2856.90500,0.07934
2855.87474,0.07867
2854.84448,0.07837
2853.81422,0.07831
2852.78397,0.07796
2851.75371,0.07725
2850.72345,0.07663
2849.69319,0.07639
2848.66293,0.07608
2847.63268,0.07550
2846.60242,0.07524
2845.57216,0.07518
2844.54190,0.07493
2843.51165,0.07463
2842.48139,0.07403
2841.45113,0.07303
2840.42087,0.07213
2839.39061,0.07155
2838.36036,0.07112
2837.33010,0.07063
2836.29984,0.07045
2835.26958,0.07060
2834.23933,0.07041
2833.20907,0.06977
2832.17881,0.06900
2831.14855,0.06823
2830.11829,0.06777
2829.08804,0.06776
2828.05778,0.06779
2827.02752,0.06737
2825.99726,0.06671
2824.96700,0.06613
2823.93675,0.06548
2822.90649,0.06497
2821.87623,0.06484
2820.84597,0.06485
2819.81572,0.06464
2818.78546,0.06399
2817.75520,0.06327
2816.72494,0.06277
2815.69468,0.06228
2814.66443,0.06181
2813.63417,0.06169
2812.60391,0.06177
2811.57365,0.06148
2810.54339,0.06071
2809.51314,0.05994
2808.48288,0.05963
2807.45262,0.05955
2806.42236,0.05921
2805.39211,0.05867
2804.36185,0.05812
2803.33159,0.05773
2802.30133,0.05763
2801.27107,0.05762
2800.24082,0.05758
2799.21056,0.05746
2798.18030,0.05711
2797.15004,0.05652
2796.11978,0.05581
2795.08953,0.05528
2794.05927,0.05507
2793.02901,0.05484
2791.99875,0.05437
2790.96850,0.05385
2789.93824,0.05355
2788.90798,0.05334
2787.87772,0.05306
2786.84746,0.05283
2785.81721,0.05269
2784.78695,0.05227
2783.75669,0.05158
2782.72643,0.05111
2781.69618,0.05105
2780.66592,0.05105
2779.63566,0.05078
2778.60540,0.05027
2777.57514,0.04968
2776.54489,0.04923
2775.51463,0.04906
2774.48437,0.04914
2773.45411,0.04906
2772.42385,0.04861
2771.39360,0.04807
2770.36334,0.04748
2769.33308,0.04687
2768.30282,0.04647
2767.27257,0.04626
2766.24231,0.04611
2765.21205,0.04601
2764.18179,0.04588
2763.15153,0.04569
2762.12128,0.04532
2761.09102,0.04477
2760.06076,0.04444
2759.03050,0.04431
2758.00024,0.04408
2756.96999,0.04389
2755.93973,0.04388
2754.90947,0.04377
2753.87921,0.04347
2752.84896,0.04317
2751.81870,0.04279
2750.78844,0.04228
2749.75818,0.04187
2748.72792,0.04168
2747.69767,0.04150
2746.66741,0.04128
2745.63715,0.04115
2744.60689,0.04099
2743.57663,0.04079
2742.54638,0.04064
2741.51612,0.04058
2740.48586,0.04041
2739.45560,0.04022
2738.42535,0.04026
2737.39509,0.04006
2736.36483,0.03944
2735.33457,0.03897
2734.30431,0.03874
2733.27406,0.03860
2732.24380,0.03832
2731.21354,0.03796
2730.18328,0.03782
2729.15303,0.03770
2728.12277,0.03754
2727.09251,0.03738
2726.06225,0.03722
2725.03199,0.03705
2724.00174,0.03677
2722.97148,0.03631
2721.94122,0.03592
2720.91096,0.03572
2719.88070,0.03552
2718.85045,0.03540
2717.82019,0.03541
2716.78993,0.03524
2715.75967,0.03492
2714.72942,0.03466
2713.69916,0.03459
2712.66890,0.03459
2711.63864,0.03441
2710.60838,0.03419
2709.57813,0.03411
2708.54787,0.03396
2707.51761,0.03369
2706.48735,0.03353
2705.45709,0.03337
2704.42684,0.03293
2703.39658,0.03253
2702.36632,0.03242
2701.33606,0.03237
2700.30581,0.03222
2699.27555,0.03210
2698.24529,0.03206
2697.21503,0.03197
2696.18477,0.03171
2695.15452,0.03125
2694.12426,0.03073
2693.09400,0.03044
2692.06374,0.03038
2691.03348,0.03030
2690.00323,0.03008
2688.97297,0.02987
2687.94271,0.02968
2686.91245,0.02949
2685.88220,0.02952
2684.85194,0.02962
2683.82168,0.02953
2682.79142,0.02930
2681.76116,0.02907
2680.73091,0.02905
2679.70065,0.02913
2678.67039,0.02896
2677.64013,0.02860
2676.60988,0.02829
2675.57962,0.02807
2674.54936,0.02787
2673.51910,0.02767
2672.48884,0.02750
2671.45859,0.02736
2670.42833,0.02722
2669.39807,0.02713
2668.36781,0.02704
2667.33755,0.02697
2666.30730,0.02701
2665.27704,0.02694
2664.24678,0.02649
2663.21652,0.02596
2662.18627,0.02568
2661.15601,0.02559
2660.12575,0.02565
2659.09549,0.02561
2658.06523,0.02541
2657.03498,0.02524
2656.00472,0.02510
2654.97446,0.02474
2653.94420,0.02415
2652.91394,0.02387
2651.88369,0.02416
2650.85343,0.02451
2649.82317,0.02457
2648.79291,0.02441
2647.76266,0.02406
2646.73240,0.02363
2645.70214,0.02343
2644.67188,0.02361
2643.64162,0.02392
2642.61137,0.02387
2641.58111,0.02336
2640.55085,0.02301
2639.52059,0.02295
2638.49033,0.02281
2637.46008,0.02259
2636.42982,0.02261
2635.39956,0.02290
2634.36930,0.02314
2633.33905,0.02325
2632.30879,0.02297
2631.27853,0.02237
2630.24827,0.02208
2629.21801,0.02217
2628.18776,0.02223
2627.15750,0.02204
2626.12724,0.02163
2625.09698,0.02124
2624.06673,0.02109
2623.03647,0.02109
2622.00621,0.02111
2620.97595,0.02103
2619.94569,0.02074
2618.91544,0.02052
2617.88518,0.02040
2616.85492,0.02004
2615.82466,0.01982
2614.79440,0.02010
2613.76415,0.02033
2612.73389,0.02042
2611.70363,0.02067
2610.67337,0.02092
2609.64312,0.02098
2608.61286,0.02069
2607.58260,0.02028
2606.55234,0.02020
2605.52208,0.02039
2604.49183,0.02038
2603.46157,0.01986
2602.43131,0.01924
2601.40105,0.01922
2600.37079,0.01966
2599.34054,0.01994
2598.31028,0.01988
2597.28002,0.01966
2596.24976,0.01944
2595.21951,0.01912
2594.18925,0.01875
2593.15899,0.01865
2592.12873,0.01883
2591.09847,0.01906
2590.06822,0.01930
2589.03796,0.01918
2588.00770,0.01841
2586.97744,0.01791
2585.94718,0.01836
2584.91693,0.01908
2583.88667,0.01932
2582.85641,0.01928
2581.82615,0.01952
2580.79590,0.01991
2579.76564,0.01996
2578.73538,0.01967
2577.70512,0.01944
2576.67486,0.01911
2575.64461,0.01843
2574.61435,0.01811
2573.58409,0.01825
2572.55383,0.01783
2571.52358,0.01711
2570.49332,0.01747
2569.46306,0.01846
2568.43280,0.01909
2567.40254,0.01942
2566.37229,0.01909
2565.34203,0.01792
2564.31177,0.01691
2563.28151,0.01669
2562.25125,0.01702
2561.22100,0.01778
2560.19074,0.01853
2559.16048,0.01872
2558.13022,0.01863
2557.09997,0.01873
2556.06971,0.01884
2555.03945,0.01858
2554.00919,0.01813
2552.97893,0.01812
2551.94868,0.01840
2550.91842,0.01812
2549.88816,0.01738
2548.85790,0.01705
2547.82764,0.01735
2546.79739,0.01783
2545.76713,0.01791
2544.73687,0.01737
2543.70661,0.01678
2542.67636,0.01681
2541.64610,0.01751
2540.61584,0.01823
2539.58558,0.01859
2538.55532,0.01879
2537.52507,0.01870
2536.49481,0.01811
2535.46455,0.01742
2534.43429,0.01724
2533.40403,0.01758
2532.37378,0.01760
2531.34352,0.01727
2530.31326,0.01741
2529.28300,0.01793
2528.25275,0.01805
2527.22249,0.01797
2526.19223,0.01822
2525.16197,0.01856
2524.13171,0.01863
2523.10146,0.01846
2522.07120,0.01814
2521.04094,0.01785
2520.01068,0.01774
2518.98043,0.01761
2517.95017,0.01742
2516.91991,0.01742
2515.88965,0.01749
2514.85939,0.01743
2513.82914,0.01748
2512.79888,0.01801
2511.76862,0.01895
2510.73836,0.01904
2509.70810,0.01801
2508.67785,0.01731
2507.64759,0.01736
2506.61733,0.01755
2505.58707,0.01769
2504.55682,0.01763
2503.52656,0.01728
2502.49630,0.01716
2501.46604,0.01738
2500.43578,0.01743
2499.40553,0.01727
2498.37527,0.01720
2497.34501,0.01704
2496.31475,0.01667
2495.28449,0.01647
2494.25424,0.01664
2493.22398,0.01700
2492.19372,0.01712
2491.16346,0.01679
2490.13321,0.01648
2489.10295,0.01659
2488.07269,0.01690
2487.04243,0.01701
2486.01217,0.01697
2484.98192,0.01704
2483.95166,0.01715
2482.92140,0.01730
2481.89114,0.01748
2480.86088,0.01737
2479.83063,0.01681
2478.80037,0.01608
2477.77011,0.01585
2476.73985,0.01632
2475.70960,0.01686
2474.67934,0.01694
2473.64908,0.01670
2472.61882,0.01655
2471.58856,0.01659
2470.55831,0.01648
2469.52805,0.01633
2468.49779,0.01660
2467.46753,0.01679
2466.43728,0.01682
2465.40702,0.01743
2464.37676,0.01812
2463.34650,0.01799
2462.31624,0.01794
2461.28599,0.01843
2460.25573,0.01835
2459.22547,0.01783
2458.19521,0.01771
2457.16495,0.01765
2456.13470,0.01722
2455.10444,0.01696
2454.07418,0.01702
2453.04392,0.01684
2452.01367,0.01664
2450.98341,0.01702
2449.95315,0.01762
2448.92289,0.01804
2447.89263,0.01811
2446.86238,0.01777
2445.83212,0.01757
2444.80186,0.01760
2443.77160,0.01751
2442.74134,0.01746
2441.71109,0.01729
2440.68083,0.01691
2439.65057,0.01671
2438.62031,0.01671
2437.59006,0.01714
2436.55980,0.01794
2435.52954,0.01820
2434.49928,0.01799
2433.46902,0.01793
2432.43877,0.01795
2431.40851,0.01810
2430.37825,0.01857
2429.34799,0.01891
2428.31774,0.01859
2427.28748,0.01816
2426.25722,0.01800
2425.22696,0.01806
2424.19670,0.01847
2423.16645,0.01886
2422.13619,0.01881
2421.10593,0.01858
2420.07567,0.01857
2419.04541,0.01881
2418.01516,0.01905
2416.98490,0.01912
2415.95464,0.01920
2414.92438,0.01937
2413.89413,0.01949
2412.86387,0.01969
2411.83361,0.01991
2410.80335,0.01979
2409.77309,0.01954
2408.74284,0.01950
2407.71258,0.01943
2406.68232,0.01911
2405.65206,0.01903
2404.62180,0.01930
2403.59155,0.01947
2402.56129,0.01955
2401.53103,0.01955
2400.50077,0.01952
2399.47052,0.01950
2398.44026,0.01951
2397.41000,0.01948
2396.37974,0.01936
2395.34948,0.01955
2394.31923,0.01994
2393.28897,0.02021
2392.25871,0.02047
2391.22845,0.02080
2390.19819,0.02140
2389.16794,0.02159
2388.13768,0.02080
2387.10742,0.02025
2386.07716,0.02069
2385.04691,0.02112
2384.01665,0.02105
2382.98639,0.02086
2381.95613,0.02069
2380.92587,0.02059
2379.89562,0.02049
2378.86536,0.02048
2377.83510,0.02054
2376.80484,0.02017
2375.77459,0.01991
2374.74433,0.02047
2373.71407,0.02148
2372.68381,0.02216
2371.65355,0.02192
2370.62330,0.02146
2369.59304,0.02156
2368.56278,0.02164
2367.53252,0.02157
2366.50226,0.02216
2365.47201,0.02347
2364.44175,0.02427
2363.41149,0.02364
2362.38123,0.02198
2361.35098,0.02041
2360.32072,0.02037
2359.29046,0.02185
2358.26020,0.02330
2357.22994,0.02349
2356.19969,0.02276
2355.16943,0.02235
2354.13917,0.02233
2353.10891,0.02188
2352.07865,0.02147
2351.04840,0.02175
2350.01814,0.02231
2348.98788,0.02291
2347.95762,0.02344
2346.92737,0.02336
2345.89711,0.02271
2344.86685,0.02235
2343.83659,0.02268
2342.80633,0.02314
2341.77608,0.02332
2340.74582,0.02359
2339.71556,0.02394
2338.68530,0.02399
2337.65504,0.02406
2336.62479,0.02403
2335.59453,0.02354
2334.56427,0.02321
2333.53401,0.02305
2332.50376,0.02263
2331.47350,0.02265
2330.44324,0.02345
2329.41298,0.02387
2328.38272,0.02352
2327.35247,0.02326
2326.32221,0.02376
2325.29195,0.02442
2324.26169,0.02412
2323.23144,0.02345
2322.20118,0.02353
2321.17092,0.02390
2320.14066,0.02411
2319.11040,0.02404
2318.08015,0.02395
2317.04989,0.02426
2316.01963,0.02459
2314.98937,0.02479
2313.95911,0.02458
2312.92886,0.02414
2311.89860,0.02439
2310.86834,0.02463
2309.83808,0.02423
2308.80783,0.02398
2307.77757,0.02395
2306.74731,0.02366
2305.71705,0.02355
2304.68679,0.02409
2303.65654,0.02471
2302.62628,0.02501
2301.59602,0.02490
2300.56576,0.02477
2299.53550,0.02510
2298.50525,0.02514
2297.47499,0.02480
2296.44473,0.02475
2295.41447,0.02479
2294.38422,0.02484
2293.35396,0.02485
2292.32370,0.02478
2291.29344,0.02531
2290.26318,0.02647
2289.23293,0.02695
2288.20267,0.02622
2287.17241,0.02539
2286.14215,0.02545
2285.11189,0.02588
2284.08164,0.02608
2283.05138,0.02638
2282.02112,0.02667
2280.99086,0.02699
2279.96061,0.02731
2278.93035,0.02685
2277.90009,0.02616
2276.86983,0.02640
2275.83957,0.02706
2274.80932,0.02697
2273.77906,0.02612
2272.74880,0.02538
2271.71854,0.02523
2270.68829,0.02577
2269.65803,0.02629
2268.62777,0.02582
2267.59751,0.02497
2266.56725,0.02500
2265.53700,0.02615
2264.50674,0.02721
2263.47648,0.02710
2262.44622,0.02645
2261.41596,0.02630
2260.38571,0.02656
2259.35545,0.02724
2258.32519,0.02813
2257.29493,0.02800
2256.26468,0.02698
2255.23442,0.02667
2254.20416,0.02750
2253.17390,0.02777
2252.14364,0.02690
2251.11339,0.02659
2250.08313,0.02733
2249.05287,0.02800
2248.02261,0.02777
2246.99235,0.02731
2245.96210,0.02733
2244.93184,0.02709
2243.90158,0.02657
2242.87132,0.02680
2241.84107,0.02718
2240.81081,0.02708
2239.78055,0.02735
2238.75029,0.02785
2237.72003,0.02768
2236.68978,0.02725
2235.65952,0.02774
2234.62926,0.02897
2233.59900,0.02979
2232.56874,0.02945
2231.53849,0.02845
2230.50823,0.02784
2229.47797,0.02761
2228.44771,0.02762
2227.41746,0.02820
2226.38720,0.02929
2225.35694,0.03001
2224.32668,0.02989
2223.29642,0.02950
2222.26617,0.02921
2221.23591,0.02926
2220.20565,0.02913
2219.17539,0.02843
2218.14514,0.02853
2217.11488,0.02942
2216.08462,0.02914
2215.05436,0.02733
2214.02410,0.02600
2212.99385,0.02620
2211.96359,0.02751
2210.93333,0.02936
2209.90307,0.02976
2208.87281,0.02821
2207.84256,0.02740
2206.81230,0.02818
2205.78204,0.02906
2204.75178,0.02973
2203.72153,0.03065
2202.69127,0.03093
2201.66101,0.03028
2200.63075,0.02969
2199.60049,0.02893
2198.57024,0.02811
2197.53998,0.02824
2196.50972,0.02894
2195.47946,0.02919
2194.44920,0.02859
2193.41895,0.02780
2192.38869,0.02772
2191.35843,0.02895
2190.32817,0.03050
2189.29792,0.03036
2188.26766,0.02928
2187.23740,0.02880
2186.20714,0.02833
2185.17688,0.02756
2184.14663,0.02778
2183.11637,0.02909
2182.08611,0.02983
2181.05585,0.02885
2180.02559,0.02740
2178.99534,0.02756
2177.96508,0.02862
2176.93482,0.02959
2175.90456,0.03002
2174.87431,0.02909
2173.84405,0.02805
2172.81379,0.02803
2171.78353,0.02861
2170.75327,0.02933
2169.72302,0.03011
2168.69276,0.03062
2167.66250,0.03033
2166.63224,0.03010
2165.60199,0.03171
2164.57173,0.03368
2163.54147,0.03420
2162.51121,0.03405
2161.48095,0.03291
2160.45070,0.03146
2159.42044,0.02949
2158.39018,0.02551
2157.35992,0.02397
2156.32966,0.02628
2155.29941,0.02730
2154.26915,0.02678
2153.23889,0.02776
2152.20863,0.03034
2151.17838,0.03210
2150.14812,0.03113
2149.11786,0.02881
2148.08760,0.02733
2147.05734,0.02788
2146.02709,0.02975
2144.99683,0.02973
2143.96657,0.02779
2142.93631,0.02733
2141.90605,0.02813
2140.87580,0.02762
2139.84554,0.02668
2138.81528,0.02690
2137.78502,0.02694
2136.75477,0.02575
2135.72451,0.02446
2134.69425,0.02413
2133.66399,0.02405
2132.63373,0.02352
2131.60348,0.02396
2130.57322,0.02548
2129.54296,0.02603
2128.51270,0.02623
2127.48244,0.02662
2126.45219,0.02621
2125.42193,0.02565
2124.39167,0.02549
2123.36141,0.02559
2122.33116,0.02620
2121.30090,0.02619
2120.27064,0.02516
2119.24038,0.02472
2118.21012,0.02472
2117.17987,0.02488
2116.14961,0.02528
2115.11935,0.02484
2114.08909,0.02415
2113.05884,0.02431
2112.02858,0.02439
2110.99832,0.02376
2109.96806,0.02342
2108.93780,0.02362
2107.90755,0.02344
2106.87729,0.02283
2105.84703,0.02229
2104.81677,0.02248
2103.78651,0.02324
2102.75626,0.02322
2101.72600,0.02294
2100.69574,0.02363
2099.66548,0.02399
2098.63523,0.02341
2097.60497,0.02308
2096.57471,0.02311
2095.54445,0.02339
2094.51419,0.02401
2093.48394,0.02395
2092.45368,0.02272
2091.42342,0.02193
2090.39316,0.02299
2089.36290,0.02394
2088.33265,0.02278
2087.30239,0.02113
2086.27213,0.02099
2085.24187,0.02187
2084.21162,0.02212
2083.18136,0.02128
2082.15110,0.02045
2081.12084,0.02009
2080.09058,0.02019
2079.06033,0.02139
2078.03007,0.02273
2076.99981,0.02240
2075.96955,0.02107
2074.93930,0.02100
2073.90904,0.02198
2072.87878,0.02209
2071.84852,0.02145
2070.81826,0.02087
2069.78801,0.02019
2068.75775,0.01925
2067.72749,0.01941
2066.69723,0.02068
2065.66697,0.02090
2064.63672,0.01999
2063.60646,0.01919
2062.57620,0.01921
2061.54594,0.01937
2060.51569,0.01849
2059.48543,0.01747
2058.45517,0.01788
2057.42491,0.01850
2056.39465,0.01756
2055.36440,0.01659
2054.33414,0.01748
2053.30388,0.01900
2052.27362,0.01874
2051.24336,0.01754
2050.21311,0.01745
2049.18285,0.01766
2048.15259,0.01768
2047.12233,0.01868
2046.09208,0.01986
2045.06182,0.01986
2044.03156,0.01925
2043.00130,0.01937
2041.97104,0.02030
2040.94079,0.02037
2039.91053,0.01891
2038.88027,0.01756
2037.85001,0.01816
2036.81975,0.02035
2035.78950,0.02121
2034.75924,0.02051
2033.72898,0.01972
2032.69872,0.01873
2031.66847,0.01916
2030.63821,0.02080
2029.60795,0.02000
2028.57769,0.01668
2027.54743,0.01464
2026.51718,0.01585
2025.48692,0.01810
2024.45666,0.01838
2023.42640,0.01679
2022.39615,0.01570
2021.36589,0.01664
2020.33563,0.01878
2019.30537,0.01972
2018.27511,0.01929
2017.24486,0.01866
2016.21460,0.01701
2015.18434,0.01445
2014.15408,0.01339
2013.12382,0.01411
2012.09357,0.01474
2011.06331,0.01499
2010.03305,0.01554
2009.00279,0.01655
2007.97254,0.01682
2006.94228,0.01644
2005.91202,0.01694
2004.88176,0.01726
2003.85150,0.01647
2002.82125,0.01505
2001.79099,0.01313
2000.76073,0.01099
1999.73047,0.01099
1998.70021,0.01432
1997.66996,0.01736
1996.63970,0.01866
1995.60944,0.01890
1994.57918,0.01762
1993.54893,0.01661
1992.51867,0.01643
1991.48841,0.01583
1990.45815,0.01519
1989.42789,0.01541
1988.39764,0.01596
1987.36738,0.01579
1986.33712,0.01519
1985.30686,0.01513
1984.27660,0.01542
1983.24635,0.01536
1982.21609,0.01618
1981.18583,0.01751
1980.15557,0.01786
1979.12532,0.01709
1978.09506,0.01501
1977.06480,0.01389
1976.03454,0.01485
1975.00428,0.01495
1973.97403,0.01361
1972.94377,0.01326
1971.91351,0.01387
1970.88325,0.01403
1969.85300,0.01375
1968.82274,0.01387
1967.79248,0.01513
1966.76222,0.01650
1965.73196,0.01644
1964.70171,0.01583
1963.67145,0.01562
1962.64119,0.01552
1961.61093,0.01631
1960.58067,0.01779
1959.55042,0.01802
1958.52016,0.01668
1957.48990,0.01575
1956.45964,0.01643
1955.42939,0.01649
1954.39913,0.01474
1953.36887,0.01439
1952.33861,0.01628
1951.30835,0.01770
1950.27810,0.01730
1949.24784,0.01554
1948.21758,0.01405
1947.18732,0.01353
1946.15706,0.01346
1945.12681,0.01379
1944.09655,0.01417
1943.06629,0.01509
1942.03603,0.01658
1941.00578,0.01661
1939.97552,0.01552
1938.94526,0.01455
1937.91500,0.01410
1936.88474,0.01475
1935.85449,0.01524
1934.82423,0.01460
1933.79397,0.01419
1932.76371,0.01477
1931.73345,0.01563
1930.70320,0.01563
1929.67294,0.01493
1928.64268,0.01459
1927.61242,0.01445
1926.58217,0.01443
1925.55191,0.01476
1924.52165,0.01492
1923.49139,0.01446
1922.46113,0.01356
1921.43088,0.01354
1920.40062,0.01467
1919.37036,0.01530
1918.34010,0.01497
1917.30985,0.01477
1916.27959,0.01539
1915.24933,0.01625
1914.21907,0.01658
1913.18881,0.01616
1912.15856,0.01543
1911.12830,0.01514
1910.09804,0.01559
1909.06778,0.01600
1908.03752,0.01570
1907.00727,0.01502
1905.97701,0.01458
1904.94675,0.01465
1903.91649,0.01507
1902.88624,0.01572
1901.85598,0.01698
1900.82572,0.01811
1899.79546,0.01774
1898.76520,0.01665
1897.73495,0.01611
1896.70469,0.01612
1895.67443,0.01622
1894.64417,0.01634
1893.61391,0.01686
1892.58366,0.01737
1891.55340,0.01748
1890.52314,0.01729
1889.49288,0.01702
1888.46263,0.01692
1887.43237,0.01708
1886.40211,0.01759
1885.37185,0.01807
1884.34159,0.01805
1883.31134,0.01779
1882.28108,0.01785
1881.25082,0.01812
1880.22056,0.01837
1879.19030,0.01839
1878.16005,0.01765
1877.12979,0.01677
1876.09953,0.01673
1875.06927,0.01681
1874.03902,0.01684
1873.00876,0.01728
1871.97850,0.01720
1870.94824,0.01652
1869.91798,0.01630
1868.88773,0.01676
1867.85747,0.01709
1866.82721,0.01697
1865.79695,0.01681
1864.76670,0.01679
1863.73644,0.01703
1862.70618,0.01722
1861.67592,0.01707
1860.64566,0.01677
1859.61541,0.01635
1858.58515,0.01581
1857.55489,0.01544
1856.52463,0.01535
1855.49437,0.01557
1854.46412,0.01610
1853.43386,0.01666
1852.40360,0.01687
1851.37334,0.01682
1850.34309,0.01670
1849.31283,0.01677
1848.28257,0.01698
1847.25231,0.01691
1846.22205,0.01671
1845.19180,0.01641
1844.16154,0.01637
1843.13128,0.01703
1842.10102,0.01727
1841.07076,0.01667
1840.04051,0.01609
1839.01025,0.01620
1837.97999,0.01650
1836.94973,0.01670
1835.91948,0.01707
1834.88922,0.01728
1833.85896,0.01712
1832.82870,0.01707
1831.79844,0.01727
1830.76819,0.01725
1829.73793,0.01694
1828.70767,0.01688
1827.67741,0.01709
1826.64715,0.01728
1825.61690,0.01743
1824.58664,0.01762
1823.55638,0.01813
1822.52612,0.01886
1821.49587,0.01900
1820.46561,0.01829
1819.43535,0.01754
1818.40509,0.01736
1817.37483,0.01760
1816.34458,0.01793
1815.31432,0.01799
1814.28406,0.01795
1813.25380,0.01825
1812.22355,0.01859
1811.19329,0.01865
1810.16303,0.01869
1809.13277,0.01871
1808.10251,0.01876
1807.07226,0.01908
1806.04200,0.01920
1805.01174,0.01899
1803.98148,0.01879
1802.95122,0.01884
1801.92097,0.01927
1800.89071,0.01965
1799.86045,0.01958
1798.83019,0.01968
1797.79994,0.02016
1796.76968,0.02021
1795.73942,0.01992
1794.70916,0.02001
1793.67890,0.02038
1792.64865,0.02075
1791.61839,0.02097
1790.58813,0.02105
1789.55787,0.02131
1788.52761,0.02163
1787.49736,0.02173
1786.46710,0.02176
1785.43684,0.02186
1784.40658,0.02206
1783.37633,0.02244
1782.34607,0.02286
1781.31581,0.02321
1780.28555,0.02338
1779.25529,0.02334
1778.22504,0.02331
1777.19478,0.02346
1776.16452,0.02357
1775.13426,0.02367
1774.10400,0.02393
1773.07375,0.02439
1772.04349,0.02492
1771.01323,0.02510
1769.98297,0.02504
1768.95272,0.02493
1767.92246,0.02490
1766.89220,0.02510
1765.86194,0.02531
1764.83168,0.02564
1763.80143,0.02597
1762.77117,0.02613
1761.74091,0.02639
1760.71065,0.02675
1759.68040,0.02703
1758.65014,0.02738
1757.61988,0.02777
1756.58962,0.02802
1755.55936,0.02833
1754.52911,0.02872
1753.49885,0.02900
1752.46859,0.02921
1751.43833,0.02950
1750.40807,0.03003
1749.37782,0.03055
1748.34756,0.03089
1747.31730,0.03129
1746.28704,0.03174
1745.25679,0.03201
1744.22653,0.03223
1743.19627,0.03267
1742.16601,0.03329
1741.13575,0.03381
1740.10550,0.03436
1739.07524,0.03514
1738.04498,0.03575
1737.01472,0.03607
1735.98446,0.03644
1734.95421,0.03701
1733.92395,0.03761
1732.89369,0.03808
1731.86343,0.03866
1730.83318,0.03935
1729.80292,0.04007
1728.77266,0.04080
1727.74240,0.04148
1726.71214,0.04215
1725.68189,0.04280
1724.65163,0.04352
1723.62137,0.04444
1722.59111,0.04549
1721.56085,0.04647
1720.53060,0.04720
1719.50034,0.04792
1718.47008,0.04894
1717.43982,0.04985
1716.40957,0.05035
1715.37931,0.05118
1714.34905,0.05251
1713.31879,0.05389
1712.28853,0.05506
1711.25828,0.05610
1710.22802,0.05732
1709.19776,0.05863
1708.16750,0.05976
1707.13725,0.06096
1706.10699,0.06243
1705.07673,0.06382
1704.04647,0.06498
1703.01621,0.06607
1701.98596,0.06712
1700.95570,0.06822
1699.92544,0.06999
1698.89518,0.07176
1697.86492,0.07292
1696.83467,0.07386
1695.80441,0.07516
1694.77415,0.07687
1693.74389,0.07847
1692.71364,0.07997
1691.68338,0.08121
1690.65312,0.08235
1689.62286,0.08377
1688.59260,0.08547
1687.56235,0.08728
1686.53209,0.08886
1685.50183,0.09014
1684.47157,0.09173
1683.44131,0.09342
1682.41106,0.09466
1681.38080,0.09593
1680.35054,0.09732
1679.32028,0.09879
1678.29003,0.10025
1677.25977,0.10140
1676.22951,0.10210
1675.19925,0.10292
1674.16899,0.10429
1673.13874,0.10563
1672.10848,0.10670
1671.07822,0.10762
1670.04796,0.10857
1669.01771,0.10960
1667.98745,0.11071
1666.95719,0.11168
1665.92693,0.11239
1664.89667,0.11320
1663.86642,0.11437
1662.83616,0.11537
1661.80590,0.11592
1660.77564,0.11643
1659.74538,0.11687
1658.71513,0.11717
1657.68487,0.11743
1656.65461,0.11776
1655.62435,0.11835
1654.59410,0.11912
1653.56384,0.11952
1652.53358,0.11882
1651.50332,0.11869
1650.47306,0.11922
1649.44281,0.11959
1648.41255,0.11951
1647.38229,0.11898
1646.35203,0.11817
1645.32177,0.11731
1644.29152,0.11679
1643.26126,0.11639
1642.23100,0.11606
1641.20074,0.11580
1640.17049,0.11517
1639.14023,0.11413
1638.10997,0.11304
1637.07971,0.11225
1636.04945,0.11122
1635.01920,0.10935
1633.98894,0.10817
1632.95868,0.10753
1631.92842,0.10658
1630.89816,0.10536
1629.86791,0.10410
1628.83765,0.10305
1627.80739,0.10205
1626.77713,0.10073
1625.74688,0.09925
1624.71662,0.09789
1623.68636,0.09634
1622.65610,0.09474
1621.62584,0.09370
1620.59559,0.09268
1619.56533,0.09142
1618.53507,0.09017
1617.50481,0.08863
1616.47456,0.08660
1615.44430,0.08542
1614.41404,0.08468
1613.38378,0.08376
1612.35352,0.08289
1611.32327,0.08195
1610.29301,0.08081
1609.26275,0.07945
1608.23249,0.07825
1607.20223,0.07745
1606.17198,0.07659
1605.14172,0.07539
1604.11146,0.07423
1603.08120,0.07339
1602.05095,0.07263
1601.02069,0.07192
1599.99043,0.07133
1598.96017,0.07058
1597.92991,0.06970
1596.89966,0.06887
1595.86940,0.06822
1594.83914,0.06767
1593.80888,0.06713
1592.77862,0.06657
1591.74837,0.06589
1590.71811,0.06518
1589.68785,0.06462
1588.65759,0.06426
1587.62734,0.06388
1586.59708,0.06343
1585.56682,0.06309
1584.53656,0.06267
1583.50630,0.06220
1582.47605,0.06185
1581.44579,0.06147
1580.41553,0.06099
1579.38527,0.06046
1578.35501,0.05988
1577.32476,0.05935
1576.29450,0.05884
1575.26424,0.05862
1574.23398,0.05857
1573.20373,0.05830
1572.17347,0.05784
1571.14321,0.05747
1570.11295,0.05726
1569.08269,0.05689
1568.05244,0.05662
1567.02218,0.05672
1565.99192,0.05689
1564.96166,0.05670
1563.93141,0.05606
1562.90115,0.05551
1561.87089,0.05533
1560.84063,0.05515
1559.81037,0.05428
1558.78012,0.05298
1557.74986,0.05257
1556.71960,0.05301
1555.68934,0.05349
1554.65908,0.05347
1553.62883,0.05303
1552.59857,0.05278
1551.56831,0.05263
1550.53805,0.05247
1549.50780,0.05251
1548.47754,0.05242
1547.44728,0.05206
1546.41702,0.05175
1545.38676,0.05145
1544.35651,0.05102
1543.32625,0.05080
1542.29599,0.05071
1541.26573,0.05059
1540.23547,0.05041
1539.20522,0.05016
1538.17496,0.05024
1537.14470,0.05035
1536.11444,0.05021
1535.08419,0.04998
1534.05393,0.04989
1533.02367,0.04988
1531.99341,0.04978
1530.96315,0.04957
1529.93290,0.04940
1528.90264,0.04926
1527.87238,0.04917
1526.84212,0.04917
1525.81186,0.04919
1524.78161,0.04916
1523.75135,0.04911
1522.72109,0.04886
1521.69083,0.04855
1520.66058,0.04866
1519.63032,0.04884
1518.60006,0.04889
1517.56980,0.04899
1516.53954,0.04919
1515.50929,0.04928
1514.47903,0.04926
1513.44877,0.04924
1512.41851,0.04922
1511.38826,0.04931
1510.35800,0.04932
1509.32774,0.04903
1508.29748,0.04860
1507.26722,0.04811
1506.23697,0.04778
1505.20671,0.04848
1504.17645,0.04926
1503.14619,0.04955
1502.11593,0.04957
1501.08568,0.04970
1500.05542,0.05000
1499.02516,0.05028
1497.99490,0.05057
1496.96465,0.05087
1495.93439,0.05113
1494.90413,0.05152
1493.87387,0.05229
1492.84361,0.05335
1491.81336,0.05476
1490.78310,0.05681
1489.75284,0.05981
1488.72258,0.06374
1487.69232,0.06926
1486.66207,0.07731
1485.63181,0.08736
1484.60155,0.09938
1483.57129,0.11300
1482.54104,0.12587
1481.51078,0.13405
1480.48052,0.13397
1479.45026,0.12644
1478.42000,0.11597
1477.38975,0.10664
1476.35949,0.09933
1475.32923,0.09488
1474.29897,0.09388
1473.26871,0.09587
1472.23846,0.10053
1471.20820,0.10643
1470.17794,0.11242
1469.14768,0.11868
1468.11743,0.12474
1467.08717,0.12951
1466.05691,0.13244
1465.02665,0.13329
1463.99639,0.13200
1462.96614,0.12938
1461.93588,0.12575
1460.90562,0.12143
1459.87536,0.11712
1458.84511,0.11291
1457.81485,0.10866
1456.78459,0.10362
1455.75433,0.09991
1454.72407,0.09817
1453.69382,0.09669
1452.66356,0.09529
1451.63330,0.09415
1450.60304,0.09296
1449.57278,0.09158
1448.54253,0.08994
1447.51227,0.08789
1446.48201,0.08601
1445.45175,0.08447
1444.42150,0.08296
1443.39124,0.08145
1442.36098,0.07998
1441.33072,0.07855
1440.30046,0.07712
1439.27021,0.07573
1438.23995,0.07450
1437.20969,0.07290
1436.17943,0.07065
1435.14917,0.06902
1434.11892,0.06769
1433.08866,0.06614
1432.05840,0.06464
1431.02814,0.06318
1429.99789,0.06158
1428.96763,0.06026
1427.93737,0.05948
1426.90711,0.05877
1425.87685,0.05786
1424.84660,0.05678
1423.81634,0.05571
1422.78608,0.05494
1421.75582,0.05446
1420.72556,0.05409
1419.69531,0.05354
1418.66505,0.05292
1417.63479,0.05279
1416.60453,0.05275
1415.57428,0.05250
1414.54402,0.05227
1413.51376,0.05239
1412.48350,0.05300
1411.45324,0.05382
1410.42299,0.05459
1409.39273,0.05565
1408.36247,0.05732
1407.33221,0.05959
1406.30196,0.06243
1405.27170,0.06574
1404.24144,0.06885
1403.21118,0.07100
1402.18092,0.07203
1401.15067,0.07185
1400.12041,0.07048
1399.09015,0.06789
1398.05989,0.06473
1397.02963,0.06183
1395.99938,0.05915
1394.96912,0.05648
1393.93886,0.05408
1392.90860,0.05249
1391.87835,0.05136
1390.84809,0.05043
1389.81783,0.04973
1388.78757,0.04919
1387.75731,0.04876
1386.72706,0.04837
1385.69680,0.04793
1384.66654,0.04758
1383.63628,0.04739
1382.60602,0.04717
1381.57577,0.04693
1380.54551,0.04684
1379.51525,0.04666
1378.48499,0.04624
1377.45474,0.04595
1376.42448,0.04597
1375.39422,0.04596
1374.36396,0.04577
1373.33370,0.04564
1372.30345,0.04567
1371.27319,0.04562
1370.24293,0.04542
1369.21267,0.04530
1368.18241,0.04533
1367.15216,0.04540
1366.12190,0.04536
1365.09164,0.04515
1364.06138,0.04485
1363.03113,0.04450
1362.00087,0.04439
1360.97061,0.04454
1359.94035,0.04453
1358.91009,0.04429
1357.87984,0.04408
1356.84958,0.04410
1355.81932,0.04412
1354.78906,0.04404
1353.75881,0.04410
1352.72855,0.04424
1351.69829,0.04420
1350.66803,0.04408
1349.63777,0.04416
1348.60752,0.04432
1347.57726,0.04430
1346.54700,0.04424
1345.51674,0.04428
1344.48648,0.04421
1343.45623,0.04399
1342.42597,0.04385
1341.39571,0.04388
1340.36545,0.04386
1339.33520,0.04379
1338.30494,0.04384
1337.27468,0.04398
1336.24442,0.04401
1335.21416,0.04387
1334.18391,0.04369
1333.15365,0.04364
1332.12339,0.04367
1331.09313,0.04354
1330.06287,0.04323
1329.03262,0.04309
1328.00236,0.04327
1326.97210,0.04355
1325.94184,0.04369
1324.91159,0.04356
1323.88133,0.04333
1322.85107,0.04323
1321.82081,0.04316
1320.79055,0.04307
1319.76030,0.04296
1318.73004,0.04276
1317.69978,0.04282
1316.66952,0.04321
1315.63927,0.04342
1314.60901,0.04334
1313.57875,0.04330
1312.54849,0.04317
1311.51823,0.04293
1310.48798,0.04284
1309.45772,0.04288
1308.42746,0.04299
1307.39720,0.04305
1306.36694,0.04300
1305.33669,0.04304
1304.30643,0.04310
1303.27617,0.04303
1302.24591,0.04305
1301.21566,0.04314
1300.18540,0.04295
1299.15514,0.04266
1298.12488,0.04262
1297.09462,0.04279
1296.06437,0.04301
1295.03411,0.04305
1294.00385,0.04278
1292.97359,0.04247
1291.94333,0.04252
1290.91308,0.04285
1289.88282,0.04298
1288.85256,0.04280
1287.82230,0.04254
1286.79205,0.04244
1285.76179,0.04252
1284.73153,0.04247
1283.70127,0.04219
1282.67101,0.04205
1281.64076,0.04219
1280.61050,0.04253
1279.58024,0.04276
1278.54998,0.04262
1277.51972,0.04238
1276.48947,0.04225
1275.45921,0.04227
1274.42895,0.04257
1273.39869,0.04295
1272.36844,0.04315
1271.33818,0.04324
1270.30792,0.04327
1269.27766,0.04336
1268.24740,0.04361
1267.21715,0.04387
1266.18689,0.04399
1265.15663,0.04389
1264.12637,0.04388
1263.09612,0.04399
1262.06586,0.04385
1261.03560,0.04377
1260.00534,0.04411
1258.97508,0.04463
1257.94483,0.04511
1256.91457,0.04555
1255.88431,0.04607
1254.85405,0.04679
1253.82379,0.04764
1252.79354,0.04862
1251.76328,0.04987
1250.73302,0.05162
1249.70276,0.05382
1248.67251,0.05633
1247.64225,0.05930
1246.61199,0.06305
1245.58173,0.06760
1244.55147,0.07284
1243.52122,0.07884
1242.49096,0.08505
1241.46070,0.09075
1240.43044,0.09581
1239.40018,0.09974
1238.36993,0.10190
1237.33967,0.10203
1236.30941,0.10014
1235.27915,0.09652
1234.24890,0.09170
1233.21864,0.08636
1232.18838,0.08120
1231.15812,0.07624
1230.12786,0.07138
1229.09761,0.06696
1228.06735,0.06331
1227.03709,0.06053
1226.00683,0.05831
1224.97657,0.05642
1223.94632,0.05482
1222.91606,0.05338
1221.88580,0.05213
1220.85554,0.05108
1219.82529,0.05025
1218.79503,0.04948
1217.76477,0.04865
1216.73451,0.04795
1215.70425,0.04743
1214.67400,0.04708
1213.64374,0.04684
1212.61348,0.04668
1211.58322,0.04663
1210.55297,0.04655
1209.52271,0.04619
1208.49245,0.04577
1207.46219,0.04545
1206.43193,0.04521
1205.40168,0.04513
1204.37142,0.04505
1203.34116,0.04486
1202.31090,0.04467
1201.28064,0.04468
1200.25039,0.04485
1199.22013,0.04492
1198.18987,0.04481
1197.15961,0.04470
1196.12936,0.04467
1195.09910,0.04478
1194.06884,0.04495
1193.03858,0.04500
1192.00832,0.04486
1190.97807,0.04459
1189.94781,0.04439
1188.91755,0.04424
1187.88729,0.04398
1186.85703,0.04369
1185.82678,0.04355
1184.79652,0.04347
1183.76626,0.04345
1182.73600,0.04358
1181.70575,0.04378
1180.67549,0.04381
1179.64523,0.04370
1178.61497,0.04368
1177.58471,0.04364
1176.55446,0.04356
1175.52420,0.04362
1174.49394,0.04368
1173.46368,0.04356
1172.43342,0.04345
1171.40317,0.04356
1170.37291,0.04366
1169.34265,0.04355
1168.31239,0.04321
1167.28214,0.04294
1166.25188,0.04310
1165.22162,0.04335
1164.19136,0.04328
1163.16110,0.04314
1162.13085,0.04318
1161.10059,0.04320
1160.07033,0.04314
1159.04007,0.04325
1158.00982,0.04342
1156.97956,0.04329
1155.94930,0.04290
1154.91904,0.04255
1153.88878,0.04252
1152.85853,0.04286
1151.82827,0.04312
1150.79801,0.04317
1149.76775,0.04319
1148.73749,0.04310
1147.70724,0.04297
1146.67698,0.04312
1145.64672,0.04340
1144.61646,0.04346
1143.58621,0.04346
1142.55595,0.04352
1141.52569,0.04350
1140.49543,0.04343
1139.46517,0.04339
1138.43492,0.04332
1137.40466,0.04327
1136.37440,0.04320
1135.34414,0.04301
1134.31388,0.04276
1133.28363,0.04281
1132.25337,0.04314
1131.22311,0.04338
1130.19285,0.04360
1129.16260,0.04395
1128.13234,0.04456
1127.10208,0.04563
1126.07182,0.04689
1125.04156,0.04793
1124.01131,0.04865
1122.98105,0.04920
1121.95079,0.04951
1120.92053,0.04935
1119.89027,0.04894
1118.86002,0.04843
1117.82976,0.04764
1116.79950,0.04675
1115.76924,0.04598
1114.73899,0.04529
1113.70873,0.04475
1112.67847,0.04451
1111.64821,0.04447
1110.61795,0.04430
1109.58770,0.04407
1108.55744,0.04395
1107.52718,0.04390
1106.49692,0.04391
1105.46667,0.04394
1104.43641,0.04399
1103.40615,0.04401
1102.37589,0.04407
1101.34563,0.04408
1100.31538,0.04379
1099.28512,0.04374
1098.25486,0.04422
1097.22460,0.04432
1096.19434,0.04376
1095.16409,0.04341
1094.13383,0.04369
1093.10357,0.04423
1092.07331,0.04460
1091.04306,0.04477
1090.01280,0.04488
1088.98254,0.04495
1087.95228,0.04482
1086.92202,0.04450
1085.89177,0.04433
1084.86151,0.04458
1083.83125,0.04484
1082.80099,0.04476
1081.77073,0.04455
1080.74048,0.04443
1079.71022,0.04440
1078.67996,0.04446
1077.64970,0.04460
1076.61945,0.04474
1075.58919,0.04486
1074.55893,0.04491
1073.52867,0.04497
1072.49841,0.04504
1071.46816,0.04515
1070.43790,0.04533
1069.40764,0.04550
1068.37738,0.04561
1067.34712,0.04558
1066.31687,0.04553
1065.28661,0.04549
1064.25635,0.04539
1063.22609,0.04538
1062.19584,0.04537
1061.16558,0.04537
1060.13532,0.04554
1059.10506,0.04547
1058.07480,0.04517
1057.04455,0.04514
1056.01429,0.04525
1054.98403,0.04528
1053.95377,0.04539
1052.92352,0.04568
1051.89326,0.04580
1050.86300,0.04558
1049.83274,0.04534
1048.80248,0.04540
1047.77223,0.04564
1046.74197,0.04585
1045.71171,0.04594
1044.68145,0.04590
1043.65119,0.04579
1042.62094,0.04565
1041.59068,0.04558
1040.56042,0.04560
1039.53016,0.04566
1038.49991,0.04609
1037.46965,0.04674
1036.43939,0.04701
1035.40913,0.04682
1034.37887,0.04651
1033.34862,0.04644
1032.31836,0.04655
1031.28810,0.04672
1030.25784,0.04693
1029.22758,0.04711
1028.19733,0.04732
1027.16707,0.04748
1026.13681,0.04759
1025.10655,0.04762
1024.07630,0.04749
1023.04604,0.04760
1022.01578,0.04791
1020.98552,0.04798
1019.95526,0.04787
1018.92501,0.04804
1017.89475,0.04852
1016.86449,0.04877
1015.83423,0.04879
1014.80397,0.04889
1013.77372,0.04889
1012.74346,0.04884
1011.71320,0.04923
1010.68294,0.04987
1009.65269,0.05022
1008.62243,0.05036
1007.59217,0.05062
1006.56191,0.05108
1005.53165,0.05147
1004.50140,0.05152
1003.47114,0.05153
1002.44088,0.05186
1001.41062,0.05215
1000.38037,0.05207
999.35011,0.05211
998.31985,0.05255
997.28959,0.05310
996.25933,0.05352
995.22908,0.05382
994.19882,0.05413
993.16856,0.05454
992.13830,0.05490
991.10804,0.05527
990.07779,0.05582
989.04753,0.05636
988.01727,0.05677
986.98701,0.05712
985.95676,0.05742
984.92650,0.05786
983.89624,0.05843
982.86598,0.05886
981.83572,0.05925
980.80547,0.05958
979.77521,0.05978
978.74495,0.06016
977.71469,0.06103
976.68443,0.06211
975.65418,0.06281
974.62392,0.06319
973.59366,0.06371
972.56340,0.06456
971.53315,0.06567
970.50289,0.06682
969.47263,0.06800
968.44237,0.06934
967.41211,0.07078
966.38186,0.07244
965.35160,0.07420
964.32134,0.07635
963.29108,0.07957
962.26082,0.08365
961.23057,0.08822
960.20031,0.09347
959.17005,0.09957
958.13979,0.10681
957.10954,0.11572
956.07928,0.12633
955.04902,0.13827
954.01876,0.15086
952.98850,0.16330
951.95825,0.17534
950.92799,0.18710
949.89773,0.19811
948.86747,0.20761
947.83722,0.21437
946.80696,0.21678
945.77670,0.21464
944.74644,0.20840
943.71618,0.19827
942.68593,0.18558
941.65567,0.17202
940.62541,0.15865
939.59515,0.14672
938.56489,0.13703
937.53464,0.12935
936.50438,0.12323
935.47412,0.11821
934.44386,0.11398
933.41361,0.11064
932.38335,0.10808
931.35309,0.10589
930.32283,0.10392
929.29257,0.10200
928.26232,0.10041
927.23206,0.09956
926.20180,0.09893
925.17154,0.09821
924.14128,0.09789
923.11103,0.09783
922.08077,0.09758
921.05051,0.09757
920.02025,0.09785
918.99000,0.09774
917.95974,0.09735
916.92948,0.09735
915.89922,0.09793
914.86896,0.09890
913.83871,0.09999
912.80845,0.10111
911.77819,0.10208
910.74793,0.10260
909.71768,0.10273
908.68742,0.10324
907.65716,0.10438
906.62690,0.10534
905.59664,0.10593
904.56639,0.10662
903.53613,0.10750
902.50587,0.10845
901.47561,0.10939
900.44535,0.11033
899.41510,0.11130
898.38484,0.11249
897.35458,0.11392
896.32432,0.11517
895.29407,0.11606
894.26381,0.11689
893.23355,0.11770
892.20329,0.11824
891.17303,0.11883
890.14278,0.12010
889.11252,0.12177
888.08226,0.12326
887.05200,0.12449
886.02174,0.12544
884.99149,0.12639
883.96123,0.12769
882.93097,0.12917
881.90071,0.13021
880.87046,0.13042
879.84020,0.13062
878.80994,0.13197
877.77968,0.13378
876.74942,0.13515
875.71917,0.13619
874.68891,0.13720
873.65865,0.13842
872.62839,0.13952
871.59813,0.14060
870.56788,0.14201
869.53762,0.14328
868.50736,0.14433
867.47710,0.14539
866.44685,0.14639
865.41659,0.14748
864.38633,0.14848
863.35607,0.14938
862.32581,0.15116
861.29556,0.15354
860.26530,0.15496
859.23504,0.15559
858.20478,0.15671
857.17453,0.15878
856.14427,0.16077
855.11401,0.16173
854.08375,0.16238
853.05349,0.16342
852.02324,0.16464
850.99298,0.16558
849.96272,0.16686
848.93246,0.16893
847.90220,0.17065
846.87195,0.17163
845.84169,0.17278
844.81143,0.17424
843.78117,0.17540
842.75092,0.17633
841.72066,0.17738
840.69040,0.17863
839.66014,0.17989
838.62988,0.18098
837.59963,0.18206
836.56937,0.18310
835.53911,0.18419
834.50885,0.18562
833.47859,0.18727
832.44834,0.18892
831.41808,0.19036
830.38782,0.19173
829.35756,0.19310
828.32731,0.19428
827.29705,0.19603
826.26679,0.19811
825.23653,0.19923
824.20627,0.20026
823.17602,0.20208
822.14576,0.20370
821.11550,0.20461
820.08524,0.20524
819.05498,0.20573
818.02473,0.20636
816.99447,0.20779
815.96421,0.20973
814.93395,0.21183
813.90370,0.21402
812.87344,0.21570
811.84318,0.21676
810.81292,0.21786
809.78266,0.21924
808.75241,0.22070
807.72215,0.22185
806.69189,0.22291
805.66163,0.22436
804.63138,0.22584
803.60112,0.22698
802.57086,0.22816
801.54060,0.22987
800.51034,0.23188
799.48009,0.23370
798.44983,0.23535
797.41957,0.23675
796.38931,0.23804
795.35905,0.23913
794.32880,0.24000
793.29854,0.24111
792.26828,0.24239
791.23802,0.24389
790.20777,0.24589
789.17751,0.24751
788.14725,0.24809
787.11699,0.24869
786.08673,0.25002
785.05648,0.25132
784.02622,0.25254
782.99596,0.25412
781.96570,0.25573
780.93544,0.25757
779.90519,0.26000
778.87493,0.26236
777.84467,0.26451
776.81441,0.26710
775.78416,0.26951
774.75390,0.27107
773.72364,0.27276
772.69338,0.27485
771.66312,0.27722
770.63287,0.28032
769.60261,0.28400
768.57235,0.28758
767.54209,0.29056
766.51183,0.29371
765.48158,0.29782
764.45132,0.30268
763.42106,0.30815
762.39080,0.31435
761.36055,0.32128
760.33029,0.32853
759.30003,0.33548
758.26977,0.34143
757.23951,0.34572
756.20926,0.34784
755.17900,0.34805
754.14874,0.34694
753.11848,0.34410
752.08823,0.33967
751.05797,0.33577
750.02771,0.33377
748.99745,0.33245
747.96719,0.33061
746.93694,0.32866
745.90668,0.32740
744.87642,0.32728
743.84616,0.32783
742.81590,0.32812
741.78565,0.32784
740.75539,0.32734
739.72513,0.32754
738.69487,0.32869
737.66462,0.32979
736.63436,0.32997
735.60410,0.32989
734.57384,0.33083
733.54358,0.33284
732.51333,0.33516
731.48307,0.33689
730.45281,0.33728
729.42255,0.33700
728.39229,0.33715
727.36204,0.33755
726.33178,0.33822
725.30152,0.33967
724.27126,0.34178
723.24101,0.34396
722.21075,0.34569
721.18049,0.34689
720.15023,0.34773
719.11997,0.34889
718.08972,0.35058
717.05946,0.35134
716.02920,0.35087
714.99894,0.35109
713.96868,0.35248
712.93843,0.35399
711.90817,0.35539
710.87791,0.35664
709.84765,0.35780
708.81740,0.35904
707.78714,0.35975
706.75688,0.36023
705.72662,0.36125
704.69636,0.36255
703.66611,0.36407
702.63585,0.36522
701.60559,0.36629
700.57533,0.36782
699.54508,0.36880
698.51482,0.36934
697.48456,0.36983
696.45430,0.36995
695.42404,0.37013
694.39379,0.37024
693.36353,0.37021
692.33327,0.37099
691.30301,0.37260
690.27275,0.37438
689.24250,0.37620
688.21224,0.37766
687.18198,0.37867
686.15172,0.37988
685.12147,0.38095
684.09121,0.38139
683.06095,0.38194
682.03069,0.38305
681.00043,0.38393
679.97018,0.38454
678.93992,0.38590
677.90966,0.38733
676.87940,0.38780
675.84914,0.38872
674.81889,0.39086
673.78863,0.39220
672.75837,0.39188
671.72811,0.39131
670.69786,0.39138
669.66760,0.39214
668.63734,0.39273
667.60708,0.39168
666.57682,0.39206
665.54657,0.39358
664.51631,0.39565
663.48605,0.39783
662.45579,0.39863
661.42553,0.39859
660.39528,0.39818
659.36502,0.39737
658.33476,0.39766
657.30450,0.39900
656.27425,0.39977
655.24399,0.39967
654.21373,0.40018
653.18347,0.40161
652.15321,0.40195
651.12296,0.40101
650.09270,0.40160
649.06244,0.40425
648.03218,0.40671
647.00193,0.40820
645.97167,0.40871
644.94141,0.40863
643.91115,0.40853
642.88089,0.40772
641.85064,0.40645
640.82038,0.40659
639.79012,0.40908
638.75986,0.41192
637.72960,0.41265
636.69935,0.41210
635.66909,0.41132
634.63883,0.41036
633.60857,0.41053
632.57832,0.41208
631.54806,0.41395
630.51780,0.41445
629.48754,0.41374
628.45728,0.41447
627.42703,0.41573
626.39677,0.41491
625.36651,0.41376
624.33625,0.41417
623.30599,0.41437
622.27574,0.41400
621.24548,0.41449
620.21522,0.41461
619.18496,0.41360
618.15471,0.41285
617.12445,0.41284
616.09419,0.41356
615.06393,0.41485
614.03367,0.41613
613.00342,0.41669
611.97316,0.41579
610.94290,0.41456
609.91264,0.41517
608.88238,0.41682
607.85213,0.41776
606.82187,0.41877
605.79161,0.42006
604.76135,0.42073
603.73110,0.42065
602.70084,0.42018
601.67058,0.41995
600.64032,0.41945
599.61006,0.41904
598.57981,0.41995
597.54955,0.42004
596.51929,0.41893
595.48903,0.41896
594.45878,0.41913
593.42852,0.41844
592.39826,0.41773
591.36800,0.41736
590.33774,0.41645
589.30749,0.41547
588.27723,0.41636
587.24697,0.41890
586.21671,0.42068
585.18645,0.42017
584.15620,0.41932
583.12594,0.41964
582.09568,0.42048
581.06542,0.42155
580.03517,0.42172
579.00491,0.42032
577.97465,0.41935
576.94439,0.42003
575.91413,0.42085
574.88388,0.42018
573.85362,0.41755
572.82336,0.41522
571.79310,0.41521
570.76284,0.41594
569.73259,0.41687
568.70233,0.41829
567.67207,0.41943
566.64181,0.41986
565.61156,0.41949
564.58130,0.41954
563.55104,0.42079
562.52078,0.42144
561.49052,0.42083
560.46027,0.41988
559.43001,0.41824
558.39975,0.41649
557.36949,0.41656
556.33924,0.41800
555.30898,0.41727
554.27872,0.41427
553.24846,0.41390
552.21820,0.41486
551.18795,0.41351
550.15769,0.41259
549.12743,0.41275
548.09717,0.41241
547.06691,0.41322
546.03666,0.41497
545.00640,0.41453
543.97614,0.41142
542.94588,0.40974
541.91563,0.41156
540.88537,0.41353
539.85511,0.41409
538.82485,0.41345
537.79459,0.41184
536.76434,0.41104
535.73408,0.41024
534.70382,0.40864
533.67356,0.40805
532.64330,0.40862
531.61305,0.41028
530.58279,0.41349
529.55253,0.41713
528.52227,0.41938
527.49202,0.42000
526.46176,0.42085
525.43150,0.42322
524.40124,0.42662
523.37098,0.42916
522.34073,0.43019
521.31047,0.43217
520.28021,0.43544
519.24995,0.43836
518.21969,0.44099
517.18944,0.44395
516.15918,0.44841
515.12892,0.45331
514.09866,0.45638
513.06841,0.45912
512.03815,0.46345
511.00789,0.46905
509.97763,0.47650
508.94737,0.48626
507.91712,0.49597
506.88686,0.50258
505.85660,0.50643
504.82634,0.50939
503.79609,0.51211
502.76583,0.51560
501.73557,0.52041
500.70531,0.52576
499.67505,0.52811
498.64480,0.52552
497.61454,0.52320
496.58428,0.52331
495.55402,0.52241
494.52376,0.52154
493.49351,0.52325
492.46325,0.52386
491.43299,0.52067
490.40273,0.51560
489.37248,0.50884
488.34222,0.50081
487.31196,0.49398
486.28170,0.48953
485.25144,0.48498
484.22119,0.47805
483.19093,0.46980
482.16067,0.46089
481.13041,0.45260
480.10015,0.44706
479.06990,0.44288
478.03964,0.44136
477.00938,0.44386
475.97912,0.44378
474.94887,0.43867
473.91861,0.43479
472.88835,0.43613
471.85809,0.44124
470.82783,0.44921
469.79758,0.46149
468.76732,0.48027
467.73706,0.50615
466.70680,0.53382
465.67654,0.55917
464.64629,0.58273
463.61603,0.60246
462.58577,0.60951
461.55551,0.60577
460.52526,0.60253
459.49500,0.59629
458.46474,0.58006
457.43448,0.55560
456.40422,0.53661
455.37397,0.52639
454.34371,0.51630
453.31345,0.50522
452.28319,0.49742
451.25294,0.49177
450.22268,0.48577
449.19242,0.48035
448.16216,0.47584
447.13190,0.47027
446.10165,0.46411
445.07139,0.45697
444.04113,0.44693
443.01087,0.44087
441.98061,0.44272
440.95036,0.44070
439.92010,0.43143
438.88984,0.42606
437.85958,0.42702
436.82933,0.42879
435.79907,0.42877
434.76881,0.42311
433.73855,0.41366
432.70829,0.40683
431.67804,0.40227
430.64778,0.39830
429.61752,0.39404
428.58726,0.38841
427.55700,0.38754
426.52675,0.39178
425.49649,0.38934
424.46623,0.37785
423.43597,0.36642
422.40572,0.36543
421.37546,0.37265
420.34520,0.37282
419.31494,0.36433
418.28468,0.36437
417.25443,0.36719
416.22417,0.36391
415.19391,0.36284
414.16365,0.36454
413.13339,0.36284
412.10314,0.36081
411.07288,0.35999
410.04262,0.36017
409.01236,0.36561
407.98211,0.36889
406.95185,0.36100
405.92159,0.35030
404.89133,0.35006
403.86107,0.35967
402.83082,0.36324
401.80056,0.35460
400.77030,0.34903
399.74004,0.35465
