4996.79519,0.00317
4994.73466,0.00397
4992.67413,0.00409
4990.61359,0.00426
4988.55306,0.00457
4986.49252,0.00396
4984.43199,0.00305
4982.37145,0.00278
4980.31092,0.00238
4978.25039,0.00162
4976.18985,0.00112
4974.12932,0.00139
4972.06878,0.00219
4970.00825,0.00306
4967.94772,0.00388
4965.88718,0.00446
4963.82665,0.00457
4961.76611,0.00407
4959.70558,0.00327
4957.64505,0.00269
4955.58451,0.00246
4953.52398,0.00249
4951.46344,0.00262
4949.40291,0.00288
4947.34238,0.00330
4945.28184,0.00379
4943.22131,0.00425
4941.16077,0.00389
4939.10024,0.00300
4937.03970,0.00289
4934.97917,0.00317
4932.91864,0.00338
4930.85810,0.00366
4928.79757,0.00356
4926.73703,0.00298
4924.67650,0.00248
4922.61597,0.00234
4920.55543,0.00232
4918.49490,0.00200
4916.43436,0.00192
4914.37383,0.00275
4912.31330,0.00325
4910.25276,0.00275
4908.19223,0.00220
4906.13169,0.00194
4904.07116,0.00223
4902.01062,0.00343
4899.95009,0.00452
4897.88956,0.00465
4895.82902,0.00422
4893.76849,0.00368
4891.70795,0.00321
4889.64742,0.00289
4887.58689,0.00283
4885.52635,0.00284
4883.46582,0.00308
4881.40528,0.00332
4879.34475,0.00288
4877.28422,0.00213
4875.22368,0.00176
4873.16315,0.00209
4871.10261,0.00266
4869.04208,0.00296
4866.98155,0.00326
4864.92101,0.00331
4862.86048,0.00326
4860.79994,0.00322
4858.73941,0.00277
4856.67887,0.00264
4854.61834,0.00309
4852.55781,0.00342
4850.49727,0.00315
4848.43674,0.00252
4846.37620,0.00265
4844.31567,0.00328
4842.25514,0.00332
4840.19460,0.00292
4838.13407,0.00259
4836.07353,0.00266
4834.01300,0.00318
4831.95247,0.00351
4829.89193,0.00314
4827.83140,0.00294
4825.77086,0.00317
4823.71033,0.00302
4821.64979,0.00268
4819.58926,0.00254
4817.52873,0.00275
4815.46819,0.00301
4813.40766,0.00277
4811.34712,0.00287
4809.28659,0.00333
4807.22606,0.00313
4805.16552,0.00242
4803.10499,0.00158
4801.04445,0.00113
4798.98392,0.00160
4796.92339,0.00236
4794.86285,0.00246
4792.80232,0.00217
4790.74178,0.00232
4788.68125,0.00260
4786.62072,0.00264
4784.56018,0.00277
4782.49965,0.00289
4780.43911,0.00277
4778.37858,0.00245
4776.31804,0.00206
4774.25751,0.00188
4772.19698,0.00207
4770.13644,0.00247
4768.07591,0.00275
4766.01537,0.00279
4763.95484,0.00286
4761.89431,0.00281
4759.83377,0.00237
4757.77324,0.00201
4755.71270,0.00235
4753.65217,0.00287
4751.59164,0.00301
4749.53110,0.00294
4747.47057,0.00256
4745.41003,0.00216
4743.34950,0.00220
4741.28897,0.00243
4739.22843,0.00247
4737.16790,0.00238
4735.10736,0.00245
4733.04683,0.00273
4730.98629,0.00292
4728.92576,0.00275
4726.86523,0.00252
4724.80469,0.00266
4722.74416,0.00274
4720.68362,0.00248
4718.62309,0.00220
4716.56256,0.00208
4714.50202,0.00217
4712.44149,0.00225
4710.38095,0.00229
4708.32042,0.00230
4706.25989,0.00202
4704.19935,0.00177
4702.13882,0.00227
4700.07828,0.00304
4698.01775,0.00303
4695.95721,0.00269
4693.89668,0.00274
4691.83615,0.00250
4689.77561,0.00181
4687.71508,0.00153
4685.65454,0.00180
4683.59401,0.00218
4681.53348,0.00240
4679.47294,0.00234
4677.41241,0.00232
4675.35187,0.00250
4673.29134,0.00244
4671.23081,0.00201
4669.17027,0.00178
4667.10974,0.00216
4665.04920,0.00269
4662.98867,0.00270
4660.92814,0.00249
4658.86760,0.00241
4656.80707,0.00217
4654.74653,0.00178
4652.68600,0.00158
4650.62546,0.00175
4648.56493,0.00204
4646.50440,0.00187
4644.44386,0.00138
4642.38333,0.00123
4640.32279,0.00143
4638.26226,0.00141
4636.20173,0.00137
4634.14119,0.00180
4632.08066,0.00259
4630.02012,0.00336
4627.95959,0.00348
4625.89906,0.00291
4623.83852,0.00266
4621.77799,0.00273
4619.71745,0.00258
4617.65692,0.00280
4615.59638,0.00304
4613.53585,0.00243
4611.47532,0.00175
4609.41478,0.00189
4607.35425,0.00227
4605.29371,0.00229
4603.23318,0.00221
4601.17265,0.00209
4599.11211,0.00183
4597.05158,0.00175
4594.99104,0.00181
4592.93051,0.00185
4590.86998,0.00200
4588.80944,0.00201
4586.74891,0.00177
4584.68837,0.00168
4582.62784,0.00169
4580.56731,0.00156
4578.50677,0.00145
4576.44624,0.00161
4574.38570,0.00199
4572.32517,0.00231
4570.26463,0.00219
4568.20410,0.00179
4566.14357,0.00119
4564.08303,0.00063
4562.02250,0.00079
4559.96196,0.00166
4557.90143,0.00254
4555.84090,0.00259
4553.78036,0.00194
4551.71983,0.00145
4549.65929,0.00144
4547.59876,0.00161
4545.53823,0.00185
4543.47769,0.00204
4541.41716,0.00210
4539.35662,0.00238
4537.29609,0.00284
4535.23556,0.00319
4533.17502,0.00314
4531.11449,0.00248
4529.05395,0.00175
4526.99342,0.00177
4524.93288,0.00200
4522.87235,0.00200
4520.81182,0.00227
4518.75128,0.00253
4516.69075,0.00248
4514.63021,0.00234
4512.56968,0.00203
4510.50915,0.00173
4508.44861,0.00186
4506.38808,0.00244
4504.32754,0.00314
4502.26701,0.00350
4500.20648,0.00318
4498.14594,0.00249
4496.08541,0.00212
4494.02487,0.00233
4491.96434,0.00264
4489.90380,0.00267
4487.84327,0.00272
4485.78274,0.00275
4483.72220,0.00223
4481.66167,0.00156
4479.60113,0.00151
4477.54060,0.00191
4475.48007,0.00208
4473.41953,0.00171
4471.35900,0.00144
4469.29846,0.00169
4467.23793,0.00181
4465.17740,0.00151
4463.11686,0.00114
4461.05633,0.00104
4458.99579,0.00133
4456.93526,0.00172
4454.87473,0.00194
4452.81419,0.00212
4450.75366,0.00243
4448.69312,0.00247
4446.63259,0.00208
4444.57205,0.00210
4442.51152,0.00243
4440.45099,0.00224
4438.39045,0.00203
4436.32992,0.00224
4434.26938,0.00235
4432.20885,0.00211
4430.14832,0.00195
4428.08778,0.00210
4426.02725,0.00235
4423.96671,0.00264
4421.90618,0.00292
4419.84565,0.00292
4417.78511,0.00257
4415.72458,0.00225
4413.66404,0.00206
4411.60351,0.00183
4409.54297,0.00185
4407.48244,0.00219
4405.42191,0.00223
4403.36137,0.00204
4401.30084,0.00228
4399.24030,0.00268
4397.17977,0.00277
4395.11924,0.00238
4393.05870,0.00182
4390.99817,0.00178
4388.93763,0.00220
4386.87710,0.00248
4384.81657,0.00252
4382.75603,0.00248
4380.69550,0.00216
4378.63496,0.00187
4376.57443,0.00199
4374.51390,0.00222
4372.45336,0.00201
4370.39283,0.00167
4368.33229,0.00209
4366.27176,0.00282
4364.21122,0.00299
4362.15069,0.00282
4360.09016,0.00261
4358.02962,0.00220
4355.96909,0.00179
4353.90855,0.00174
4351.84802,0.00201
4349.78749,0.00232
4347.72695,0.00250
4345.66642,0.00246
4343.60588,0.00232
4341.54535,0.00218
4339.48482,0.00217
4337.42428,0.00243
4335.36375,0.00248
4333.30321,0.00221
4331.24268,0.00207
4329.18214,0.00181
4327.12161,0.00138
4325.06108,0.00157
4323.00054,0.00271
4320.94001,0.00364
4318.87947,0.00343
4316.81894,0.00281
4314.75841,0.00251
4312.69787,0.00230
4310.63734,0.00202
4308.57680,0.00206
4306.51627,0.00235
4304.45574,0.00238
4302.39520,0.00226
4300.33467,0.00228
4298.27413,0.00218
4296.21360,0.00217
4294.15307,0.00266
4292.09253,0.00323
4290.03200,0.00352
4287.97146,0.00324
4285.91093,0.00245
4283.85039,0.00198
4281.78986,0.00200
4279.72933,0.00201
4277.66879,0.00194
4275.60826,0.00186
4273.54772,0.00175
4271.48719,0.00172
4269.42666,0.00203
4267.36612,0.00249
4265.30559,0.00274
4263.24505,0.00287
4261.18452,0.00279
4259.12399,0.00239
4257.06345,0.00229
4255.00292,0.00252
4252.94238,0.00266
4250.88185,0.00297
4248.82132,0.00335
4246.76078,0.00328
4244.70025,0.00288
4242.63971,0.00262
4240.57918,0.00258
4238.51864,0.00230
4236.45811,0.00193
4234.39758,0.00210
4232.33704,0.00261
4230.27651,0.00260
4228.21597,0.00213
4226.15544,0.00207
4224.09491,0.00236
4222.03437,0.00244
4219.97384,0.00231
4217.91330,0.00226
4215.85277,0.00238
4213.79224,0.00238
4211.73170,0.00228
4209.67117,0.00241
4207.61063,0.00264
4205.55010,0.00271
4203.48956,0.00243
4201.42903,0.00217
4199.36850,0.00249
4197.30796,0.00303
4195.24743,0.00312
4193.18689,0.00294
4191.12636,0.00274
4189.06583,0.00246
4187.00529,0.00228
4184.94476,0.00221
4182.88422,0.00225
4180.82369,0.00260
4178.76316,0.00285
4176.70262,0.00264
4174.64209,0.00224
4172.58155,0.00195
4170.52102,0.00198
4168.46049,0.00237
4166.39995,0.00278
4164.33942,0.00316
4162.27888,0.00349
4160.21835,0.00323
4158.15781,0.00277
4156.09728,0.00293
4154.03675,0.00328
4151.97621,0.00317
4149.91568,0.00284
4147.85514,0.00265
4145.79461,0.00265
4143.73408,0.00274
4141.67354,0.00253
4139.61301,0.00223
4137.55247,0.00226
4135.49194,0.00247
4133.43141,0.00265
4131.37087,0.00287
4129.31034,0.00309
4127.24980,0.00306
4125.18927,0.00290
4123.12873,0.00293
4121.06820,0.00319
4119.00767,0.00341
4116.94713,0.00334
4114.88660,0.00316
4112.82606,0.00313
4110.76553,0.00313
4108.70500,0.00314
4106.64446,0.00333
4104.58393,0.00337
4102.52339,0.00308
4100.46286,0.00281
4098.40233,0.00281
4096.34179,0.00307
4094.28126,0.00326
4092.22072,0.00319
4090.16019,0.00326
4088.09966,0.00362
4086.03912,0.00372
4083.97859,0.00342
4081.91805,0.00312
4079.85752,0.00304
4077.79698,0.00310
4075.73645,0.00316
4073.67592,0.00324
4071.61538,0.00336
4069.55485,0.00340
4067.49431,0.00348
4065.43378,0.00354
4063.37325,0.00340
4061.31271,0.00340
4059.25218,0.00359
4057.19164,0.00367
4055.13111,0.00376
4053.07058,0.00385
4051.01004,0.00370
4048.94951,0.00344
4046.88897,0.00338
4044.82844,0.00364
4042.76791,0.00384
4040.70737,0.00384
4038.64684,0.00392
4036.58630,0.00406
4034.52577,0.00409
4032.46523,0.00380
4030.40470,0.00338
4028.34417,0.00342
4026.28363,0.00376
4024.22310,0.00378
4022.16256,0.00352
4020.10203,0.00341
4018.04150,0.00359
4015.98096,0.00378
4013.92043,0.00376
4011.85989,0.00373
4009.79936,0.00384
4007.73883,0.00394
4005.67829,0.00419
4003.61776,0.00449
4001.55722,0.00452
3999.49669,0.00443
3997.43615,0.00454
3995.37562,0.00450
3993.31509,0.00399
3991.25455,0.00355
3989.19402,0.00367
3987.13348,0.00406
3985.07295,0.00427
3983.01242,0.00423
3980.95188,0.00417
3978.89135,0.00417
3976.83081,0.00421
3974.77028,0.00416
3972.70975,0.00401
3970.64921,0.00403
3968.58868,0.00410
3966.52814,0.00408
3964.46761,0.00410
3962.40708,0.00416
3960.34654,0.00432
3958.28601,0.00437
3956.22547,0.00421
3954.16494,0.00416
3952.10440,0.00428
3950.04387,0.00445
3947.98334,0.00438
3945.92280,0.00401
3943.86227,0.00384
3941.80173,0.00406
3939.74120,0.00429
3937.68067,0.00443
3935.62013,0.00456
3933.55960,0.00458
3931.49906,0.00451
3929.43853,0.00459
3927.37800,0.00464
3925.31746,0.00456
3923.25693,0.00438
3921.19639,0.00403
3919.13586,0.00392
3917.07532,0.00426
3915.01479,0.00445
3912.95426,0.00445
3910.89372,0.00448
3908.83319,0.00429
3906.77265,0.00381
3904.71212,0.00339
3902.65159,0.00345
3900.59105,0.00377
3898.53052,0.00396
3896.46998,0.00402
3894.40945,0.00399
3892.34892,0.00408
3890.28838,0.00449
3888.22785,0.00489
3886.16731,0.00475
3884.10678,0.00409
3882.04625,0.00366
3879.98571,0.00382
3877.92518,0.00414
3875.86464,0.00431
3873.80411,0.00442
3871.74357,0.00458
3869.68304,0.00479
3867.62251,0.00453
3865.56197,0.00401
3863.50144,0.00395
3861.44090,0.00414
3859.38037,0.00416
3857.31984,0.00405
3855.25930,0.00411
3853.19877,0.00475
3851.13823,0.00536
3849.07770,0.00531
3847.01717,0.00514
3844.95663,0.00511
3842.89610,0.00512
3840.83556,0.00510
3838.77503,0.00491
3836.71449,0.00452
3834.65396,0.00436
3832.59343,0.00451
3830.53289,0.00478
3828.47236,0.00491
3826.41182,0.00500
3824.35129,0.00523
3822.29076,0.00533
3820.23022,0.00493
3818.16969,0.00446
3816.10915,0.00446
3814.04862,0.00502
3811.98809,0.00562
3809.92755,0.00576
3807.86702,0.00544
3805.80648,0.00523
3803.74595,0.00544
3801.68542,0.00566
3799.62488,0.00560
3797.56435,0.00540
3795.50381,0.00522
3793.44328,0.00532
3791.38274,0.00555
3789.32221,0.00580
3787.26168,0.00612
3785.20114,0.00618
3783.14061,0.00591
3781.08007,0.00578
3779.01954,0.00584
3776.95901,0.00589
3774.89847,0.00588
3772.83794,0.00590
3770.77740,0.00610
3768.71687,0.00643
3766.65634,0.00639
3764.59580,0.00598
3762.53527,0.00585
3760.47473,0.00611
3758.41420,0.00615
3756.35367,0.00597
3754.29313,0.00592
3752.23260,0.00606
3750.17206,0.00650
3748.11153,0.00679
3746.05099,0.00681
3743.99046,0.00694
3741.92993,0.00701
3739.86939,0.00697
3737.80886,0.00719
3735.74832,0.00792
3733.68779,0.00876
3731.62726,0.00908
3729.56672,0.00901
3727.50619,0.00887
3725.44565,0.00884
3723.38512,0.00883
3721.32459,0.00874
3719.26405,0.00874
3717.20352,0.00892
3715.14298,0.00924
3713.08245,0.00981
3711.02191,0.01052
3708.96138,0.01124
3706.90085,0.01200
3704.84031,0.01280
3702.77978,0.01353
3700.71924,0.01420
3698.65871,0.01478
3696.59818,0.01526
3694.53764,0.01592
3692.47711,0.01704
3690.41657,0.01856
3688.35604,0.01982
3686.29551,0.02062
3684.23497,0.02175
3682.17444,0.02339
3680.11390,0.02498
3678.05337,0.02623
3675.99284,0.02769
3673.93230,0.02942
3671.87177,0.03093
3669.81123,0.03274
3667.75070,0.03488
3665.69016,0.03686
3663.62963,0.03880
3661.56910,0.04068
3659.50856,0.04244
3657.44803,0.04434
3655.38749,0.04649
3653.32696,0.04813
3651.26643,0.04945
3649.20589,0.05181
3647.14536,0.05490
3645.08482,0.05714
3643.02429,0.05892
3640.96376,0.06081
3638.90322,0.06296
3636.84269,0.06522
3634.78215,0.06740
3632.72162,0.06931
3630.66108,0.07093
3628.60055,0.07249
3626.54002,0.07396
3624.47948,0.07536
3622.41895,0.07691
3620.35841,0.07898
3618.29788,0.08147
3616.23735,0.08357
3614.17681,0.08507
3612.11628,0.08612
3610.05574,0.08736
3607.99521,0.08914
3605.93468,0.09101
3603.87414,0.09295
3601.81361,0.09502
3599.75307,0.09697
3597.69254,0.09901
3595.63201,0.10109
3593.57147,0.10302
3591.51094,0.10481
3589.45040,0.10646
3587.38987,0.10833
3585.32933,0.11033
3583.26880,0.11200
3581.20827,0.11340
3579.14773,0.11522
3577.08720,0.11758
3575.02666,0.11983
3572.96613,0.12183
3570.90560,0.12369
3568.84506,0.12554
3566.78453,0.12771
3564.72399,0.12979
3562.66346,0.13147
3560.60293,0.13340
3558.54239,0.13588
3556.48186,0.13853
3554.42132,0.14100
3552.36079,0.14319
3550.30026,0.14502
3548.23972,0.14683
3546.17919,0.14878
3544.11865,0.15079
3542.05812,0.15319
3539.99758,0.15575
3537.93705,0.15806
3535.87652,0.16057
3533.81598,0.16318
3531.75545,0.16541
3529.69491,0.16763
3527.63438,0.16995
3525.57385,0.17218
3523.51331,0.17451
3521.45278,0.17691
3519.39224,0.17920
3517.33171,0.18159
3515.27118,0.18430
3513.21064,0.18712
3511.15011,0.18962
3509.08957,0.19187
3507.02904,0.19414
3504.96850,0.19626
3502.90797,0.19848
3500.84744,0.20120
3498.78690,0.20409
3496.72637,0.20667
3494.66583,0.20882
3492.60530,0.21080
3490.54477,0.21303
3488.48423,0.21559
3486.42370,0.21849
3484.36316,0.22133
3482.30263,0.22364
3480.24210,0.22576
3478.18156,0.22827
3476.12103,0.23100
3474.06049,0.23376
3471.99996,0.23629
3469.93943,0.23849
3467.87889,0.24094
3465.81836,0.24377
3463.75782,0.24672
3461.69729,0.24964
3459.63675,0.25246
3457.57622,0.25533
3455.51569,0.25796
3453.45515,0.26000
3451.39462,0.26228
3449.33408,0.26548
3447.27355,0.26864
3445.21302,0.27129
3443.15248,0.27411
3441.09195,0.27690
3439.03141,0.27910
3436.97088,0.28102
3434.91035,0.28325
3432.84981,0.28597
3430.78928,0.28898
3428.72874,0.29193
3426.66821,0.29445
3424.60767,0.29658
3422.54714,0.29882
3420.48661,0.30143
3418.42607,0.30439
3416.36554,0.30736
3414.30500,0.30980
3412.24447,0.31180
3410.18394,0.31383
3408.12340,0.31612
3406.06287,0.31846
3404.00233,0.32060
3401.94180,0.32257
3399.88127,0.32446
3397.82073,0.32654
3395.76020,0.32922
3393.69966,0.33175
3391.63913,0.33357
3389.57860,0.33548
3387.51806,0.33756
3385.45753,0.33947
3383.39699,0.34116
3381.33646,0.34249
3379.27592,0.34348
3377.21539,0.34433
3375.15486,0.34557
3373.09432,0.34692
3371.03379,0.34783
3368.97325,0.34903
3366.91272,0.35066
3364.85219,0.35186
3362.79165,0.35262
3360.73112,0.35351
3358.67058,0.35463
3356.61005,0.35562
3354.54952,0.35604
3352.48898,0.35625
3350.42845,0.35698
3348.36791,0.35795
3346.30738,0.35818
3344.24684,0.35811
3342.18631,0.35875
3340.12578,0.35956
3338.06524,0.35991
3336.00471,0.35992
3333.94417,0.36000
3331.88364,0.36022
3329.82311,0.36060
3327.76257,0.36114
3325.70204,0.36145
3323.64150,0.36145
3321.58097,0.36170
3319.52044,0.36238
3317.45990,0.36249
3315.39937,0.36176
3313.33883,0.36142
3311.27830,0.36168
3309.21777,0.36194
3307.15723,0.36210
3305.09670,0.36227
3303.03616,0.36260
3300.97563,0.36275
3298.91509,0.36244
3296.85456,0.36224
3294.79403,0.36274
3292.73349,0.36359
3290.67296,0.36387
3288.61242,0.36370
3286.55189,0.36387
3284.49136,0.36422
3282.43082,0.36415
3280.37029,0.36359
3278.30975,0.36306
3276.24922,0.36326
3274.18869,0.36376
3272.12815,0.36356
3270.06762,0.36332
3268.00708,0.36368
3265.94655,0.36398
3263.88602,0.36407
3261.82548,0.36383
3259.76495,0.36290
3257.70441,0.36173
3255.64388,0.36124
3253.58334,0.36120
3251.52281,0.36062
3249.46228,0.35966
3247.40174,0.35891
3245.34121,0.35857
3243.28067,0.35815
3241.22014,0.35722
3239.15961,0.35622
3237.09907,0.35535
3235.03854,0.35439
3232.97800,0.35362
3230.91747,0.35312
3228.85694,0.35245
3226.79640,0.35128
3224.73587,0.34965
3222.67533,0.34805
3220.61480,0.34668
3218.55426,0.34525
3216.49373,0.34371
3214.43320,0.34212
3212.37266,0.34025
3210.31213,0.33818
3208.25159,0.33606
3206.19106,0.33372
3204.13053,0.33155
3202.06999,0.32988
3200.00946,0.32805
3197.94892,0.32549
3195.88839,0.32262
3193.82786,0.31988
3191.76732,0.31723
3189.70679,0.31465
3187.64625,0.31205
3185.58572,0.30931
3183.52519,0.30610
3181.46465,0.30265
3179.40412,0.29970
3177.34358,0.29683
3175.28305,0.29339
3173.22251,0.28989
3171.16198,0.28693
3169.10145,0.28422
3167.04091,0.28102
3164.98038,0.27721
3162.91984,0.27347
3160.85931,0.27010
3158.79878,0.26667
3156.73824,0.26317
3154.67771,0.25982
3152.61717,0.25651
3150.55664,0.25303
3148.49611,0.24937
3146.43557,0.24580
3144.37504,0.24235
3142.31450,0.23867
3140.25397,0.23484
3138.19343,0.23129
3136.13290,0.22819
3134.07237,0.22520
3132.01183,0.22163
3129.95130,0.21769
3127.89076,0.21415
3125.83023,0.21093
3123.76970,0.20769
3121.70916,0.20467
3119.64863,0.20167
3117.58809,0.19830
3115.52756,0.19463
3113.46703,0.19098
3111.40649,0.18774
3109.34596,0.18490
3107.28542,0.18200
3105.22489,0.17878
3103.16436,0.17551
3101.10382,0.17245
3099.04329,0.16950
3096.98275,0.16651
3094.92222,0.16340
3092.86168,0.16036
3090.80115,0.15759
3088.74062,0.15498
3086.68008,0.15225
3084.61955,0.14946
3082.55901,0.14685
3080.49848,0.14436
3078.43795,0.14170
3076.37741,0.13880
3074.31688,0.13606
3072.25634,0.13374
3070.19581,0.13140
3068.13528,0.12889
3066.07474,0.12646
3064.01421,0.12400
3061.95367,0.12153
3059.89314,0.11928
3057.83261,0.11724
3055.77207,0.11510
3053.71154,0.11293
3051.65100,0.11096
3049.59047,0.10893
3047.52993,0.10674
3045.46940,0.10471
3043.40887,0.10275
3041.34833,0.10045
3039.28780,0.09814
3037.22726,0.09623
3035.16673,0.09454
3033.10620,0.09293
3031.04566,0.09146
3028.98513,0.09002
3026.92459,0.08836
3024.86406,0.08655
3022.80353,0.08474
3020.74299,0.08289
3018.68246,0.08106
3016.62192,0.07935
3014.56139,0.07772
3012.50085,0.07619
3010.44032,0.07482
3008.37979,0.07366
3006.31925,0.07246
3004.25872,0.07089
3002.19818,0.06914
3000.13765,0.06774
2998.07712,0.06671
2996.01658,0.06571
2993.95605,0.06462
2991.89551,0.06349
2989.83498,0.06255
2987.77445,0.06172
2985.71391,0.06071
2983.65338,0.05957
2981.59284,0.05837
2979.53231,0.05725
2977.47178,0.05625
2975.41124,0.05526
2973.35071,0.05428
2971.29017,0.05341
2969.22964,0.05277
2967.16910,0.05205
2965.10857,0.05100
2963.04804,0.04987
2960.98750,0.04887
2958.92697,0.04798
2956.86643,0.04699
2954.80590,0.04590
2952.74537,0.04495
2950.68483,0.04417
2948.62430,0.04354
2946.56376,0.04292
2944.50323,0.04214
2942.44270,0.04142
2940.38216,0.04084
2938.32163,0.04017
2936.26109,0.03945
2934.20056,0.03877
2932.14002,0.03810
2930.07949,0.03740
2928.01896,0.03657
2925.95842,0.03559
2923.89789,0.03454
2921.83735,0.03366
2919.77682,0.03308
2917.71629,0.03271
2915.65575,0.03234
2913.59522,0.03194
2911.53468,0.03151
2909.47415,0.03095
2907.41362,0.03028
2905.35308,0.02960
2903.29255,0.02897
2901.23201,0.02851
2899.17148,0.02809
2897.11095,0.02768
2895.05041,0.02719
2892.98988,0.02646
2890.92934,0.02576
2888.86881,0.02539
2886.80827,0.02510
2884.74774,0.02464
2882.68721,0.02409
2880.62667,0.02368
2878.56614,0.02355
2876.50560,0.02345
2874.44507,0.02317
2872.38454,0.02278
2870.32400,0.02224
2868.26347,0.02167
2866.20293,0.02126
2864.14240,0.02091
2862.08187,0.02060
2860.02133,0.02047
2857.96080,0.02034
2855.90026,0.01993
2853.83973,0.01934
2851.77919,0.01891
2849.71866,0.01881
2847.65813,0.01877
2845.59759,0.01837
2843.53706,0.01775
2841.47652,0.01750
2839.41599,0.01762
2837.35546,0.01753
2835.29492,0.01689
2833.23439,0.01615
2831.17385,0.01580
2829.11332,0.01579
2827.05279,0.01584
2824.99225,0.01573
2822.93172,0.01550
2820.87118,0.01533
2818.81065,0.01516
2816.75012,0.01495
2814.68958,0.01488
2812.62905,0.01482
2810.56851,0.01463
2808.50798,0.01441
2806.44744,0.01428
2804.38691,0.01404
2802.32638,0.01357
2800.26584,0.01321
2798.20531,0.01310
2796.14477,0.01294
2794.08424,0.01269
2792.02371,0.01257
2789.96317,0.01259
2787.90264,0.01254
2785.84210,0.01236
2783.78157,0.01208
2781.72104,0.01178
2779.66050,0.01168
2777.59997,0.01179
2775.53943,0.01191
2773.47890,0.01196
2771.41837,0.01190
2769.35783,0.01164
2767.29730,0.01136
2765.23676,0.01122
2763.17623,0.01106
2761.11569,0.01083
2759.05516,0.01066
2756.99463,0.01049
2754.93409,0.01031
2752.87356,0.01025
2750.81302,0.01019
2748.75249,0.01001
2746.69196,0.00994
2744.63142,0.01002
2742.57089,0.01003
2740.51035,0.00983
2738.44982,0.00959
2736.38929,0.00949
2734.32875,0.00947
2732.26822,0.00938
2730.20768,0.00930
2728.14715,0.00925
2726.08661,0.00909
2724.02608,0.00897
2721.96555,0.00901
2719.90501,0.00900
2717.84448,0.00884
2715.78394,0.00879
2713.72341,0.00885
2711.66288,0.00877
2709.60234,0.00854
2707.54181,0.00836
2705.48127,0.00823
2703.42074,0.00813
2701.36021,0.00818
2699.29967,0.00827
2697.23914,0.00815
2695.17860,0.00792
2693.11807,0.00786
2691.05754,0.00798
2688.99700,0.00803
2686.93647,0.00804
2684.87593,0.00804
2682.81540,0.00798
2680.75486,0.00781
2678.69433,0.00774
2676.63380,0.00798
2674.57326,0.00817
2672.51273,0.00798
2670.45219,0.00775
2668.39166,0.00781
2666.33113,0.00786
2664.27059,0.00768
2662.21006,0.00757
2660.14952,0.00761
2658.08899,0.00762
2656.02846,0.00762
2653.96792,0.00767
2651.90739,0.00779
2649.84685,0.00782
2647.78632,0.00757
2645.72578,0.00718
2643.66525,0.00697
2641.60472,0.00703
2639.54418,0.00708
2637.48365,0.00706
2635.42311,0.00707
2633.36258,0.00706
2631.30205,0.00693
2629.24151,0.00693
2627.18098,0.00710
2625.12044,0.00712
2623.05991,0.00711
2620.99938,0.00715
2618.93884,0.00702
2616.87831,0.00687
2614.81777,0.00689
2612.75724,0.00689
2610.69671,0.00675
2608.63617,0.00665
2606.57564,0.00671
2604.51510,0.00688
2602.45457,0.00704
2600.39403,0.00713
2598.33350,0.00702
2596.27297,0.00670
2594.21243,0.00644
2592.15190,0.00652
2590.09136,0.00688
2588.03083,0.00722
2585.97030,0.00733
2583.90976,0.00715
2581.84923,0.00673
2579.78869,0.00641
2577.72816,0.00662
2575.66763,0.00705
2573.60709,0.00725
2571.54656,0.00737
2569.48602,0.00754
2567.42549,0.00750
2565.36496,0.00728
2563.30442,0.00716
2561.24389,0.00721
2559.18335,0.00740
2557.12282,0.00750
2555.06228,0.00735
2553.00175,0.00720
2550.94122,0.00729
2548.88068,0.00749
2546.82015,0.00757
2544.75961,0.00749
2542.69908,0.00726
2540.63855,0.00718
2538.57801,0.00743
2536.51748,0.00766
2534.45694,0.00760
2532.39641,0.00759
2530.33588,0.00774
2528.27534,0.00757
2526.21481,0.00725
2524.15427,0.00721
2522.09374,0.00740
2520.03320,0.00756
2517.97267,0.00765
2515.91214,0.00787
2513.85160,0.00800
2511.79107,0.00797
2509.73053,0.00814
2507.67000,0.00842
2505.60947,0.00852
2503.54893,0.00822
2501.48840,0.00786
2499.42786,0.00790
2497.36733,0.00813
2495.30680,0.00803
2493.24626,0.00775
2491.18573,0.00787
2489.12519,0.00824
2487.06466,0.00841
2485.00413,0.00857
2482.94359,0.00891
2480.88306,0.00926
2478.82252,0.00943
2476.76199,0.00927
2474.70145,0.00898
2472.64092,0.00900
2470.58039,0.00928
2468.51985,0.00946
2466.45932,0.00929
2464.39878,0.00904
2462.33825,0.00916
2460.27772,0.00926
2458.21718,0.00874
2456.15665,0.00820
2454.09611,0.00834
2452.03558,0.00876
2449.97505,0.00895
2447.91451,0.00890
2445.85398,0.00896
2443.79344,0.00926
2441.73291,0.00959
2439.67237,0.00975
2437.61184,0.00973
2435.55131,0.00976
2433.49077,0.00996
2431.43024,0.01026
2429.36970,0.01047
2427.30917,0.01037
2425.24864,0.01017
2423.18810,0.01024
2421.12757,0.01050
2419.06703,0.01077
2417.00650,0.01088
2414.94597,0.01063
2412.88543,0.01013
2410.82490,0.01006
2408.76436,0.01051
2406.70383,0.01081
2404.64330,0.01081
2402.58276,0.01080
2400.52223,0.01100
2398.46169,0.01142
2396.40116,0.01170
2394.34062,0.01158
2392.28009,0.01138
2390.21956,0.01149
2388.15902,0.01160
2386.09849,0.01131
2384.03795,0.01093
2381.97742,0.01090
2379.91689,0.01109
2377.85635,0.01125
2375.79582,0.01142
2373.73528,0.01143
2371.67475,0.01118
2369.61422,0.01150
2367.55368,0.01268
2365.49315,0.01350
2363.43261,0.01324
2361.37208,0.01231
2359.31154,0.01139
2357.25101,0.01087
2355.19048,0.01098
2353.12994,0.01150
2351.06941,0.01206
2349.00887,0.01244
2346.94834,0.01254
2344.88781,0.01277
2342.82727,0.01346
2340.76674,0.01394
2338.70620,0.01405
2336.64567,0.01419
2334.58514,0.01426
2332.52460,0.01436
2330.46407,0.01435
2328.40353,0.01397
2326.34300,0.01384
2324.28247,0.01411
2322.22193,0.01420
2320.16140,0.01398
2318.10086,0.01398
2316.04033,0.01436
2313.97979,0.01448
2311.91926,0.01415
2309.85873,0.01413
2307.79819,0.01465
2305.73766,0.01516
2303.67712,0.01513
2301.61659,0.01463
2299.55606,0.01432
2297.49552,0.01455
2295.43499,0.01494
2293.37445,0.01530
2291.31392,0.01570
2289.25339,0.01582
2287.19285,0.01574
2285.13232,0.01579
2283.07178,0.01587
2281.01125,0.01605
2278.95072,0.01628
2276.89018,0.01636
2274.82965,0.01645
2272.76911,0.01635
2270.70858,0.01601
2268.64804,0.01571
2266.58751,0.01561
2264.52698,0.01585
2262.46644,0.01619
2260.40591,0.01649
2258.34537,0.01685
2256.28484,0.01717
2254.22431,0.01720
2252.16377,0.01732
2250.10324,0.01770
2248.04270,0.01747
2245.98217,0.01678
2243.92164,0.01669
2241.86110,0.01709
2239.80057,0.01791
2237.74003,0.01902
2235.67950,0.01935
2233.61896,0.01897
2231.55843,0.01869
2229.49790,0.01847
2227.43736,0.01838
2225.37683,0.01862
2223.31629,0.01909
2221.25576,0.01989
2219.19523,0.02055
2217.13469,0.02042
2215.07416,0.02023
2213.01362,0.02057
2210.95309,0.02071
2208.89256,0.02052
2206.83202,0.02112
2204.77149,0.02229
2202.71095,0.02237
2200.65042,0.02154
2198.58989,0.02049
2196.52935,0.01955
2194.46882,0.02016
2192.40828,0.02160
2190.34775,0.02204
2188.28721,0.02214
2186.22668,0.02157
2184.16615,0.02011
2182.10561,0.01987
2180.04508,0.02072
2177.98454,0.02154
2175.92401,0.02268
2173.86348,0.02271
2171.80294,0.02123
2169.74241,0.02083
2167.68187,0.02186
2165.62134,0.02231
2163.56081,0.02179
2161.50027,0.02176
2159.43974,0.02220
2157.37920,0.02255
2155.31867,0.02276
2153.25813,0.02238
2151.19760,0.02207
2149.13707,0.02241
2147.07653,0.02277
2145.01600,0.02288
2142.95546,0.02309
2140.89493,0.02288
2138.83440,0.02197
2136.77386,0.02144
2134.71333,0.02196
2132.65279,0.02284
2130.59226,0.02377
2128.53173,0.02458
2126.47119,0.02472
2124.41066,0.02417
2122.35012,0.02339
2120.28959,0.02294
2118.22906,0.02312
2116.16852,0.02365
2114.10799,0.02420
2112.04745,0.02463
2109.98692,0.02448
2107.92638,0.02408
2105.86585,0.02426
2103.80532,0.02436
2101.74478,0.02389
2099.68425,0.02361
2097.62371,0.02340
2095.56318,0.02301
2093.50265,0.02287
2091.44211,0.02286
2089.38158,0.02288
2087.32104,0.02300
2085.26051,0.02297
2083.19998,0.02292
2081.13944,0.02312
2079.07891,0.02346
2077.01837,0.02386
2074.95784,0.02406
2072.89731,0.02352
2070.83677,0.02226
2068.77624,0.02137
2066.71570,0.02163
2064.65517,0.02190
2062.59463,0.02134
2060.53410,0.02108
2058.47357,0.02166
2056.41303,0.02205
2054.35250,0.02202
2052.29196,0.02173
2050.23143,0.02067
2048.17090,0.01940
2046.11036,0.01919
2044.04983,0.01980
2041.98929,0.01998
2039.92876,0.01942
2037.86823,0.01946
2035.80769,0.02055
2033.74716,0.02103
2031.68662,0.02045
2029.62609,0.01960
2027.56555,0.01858
2025.50502,0.01754
2023.44449,0.01752
2021.38395,0.01794
2019.32342,0.01695
2017.26288,0.01573
2015.20235,0.01589
2013.14182,0.01659
2011.08128,0.01666
2009.02075,0.01618
2006.96021,0.01584
2004.89968,0.01639
2002.83915,0.01752
2000.77861,0.01821
1998.71808,0.01794
1996.65754,0.01673
1994.59701,0.01607
1992.53648,0.01646
1990.47594,0.01668
1988.41541,0.01647
1986.35487,0.01668
1984.29434,0.01736
1982.23380,0.01721
1980.17327,0.01654
1978.11274,0.01694
1976.05220,0.01781
1973.99167,0.01742
1971.93113,0.01609
1969.87060,0.01564
1967.81007,0.01615
1965.74953,0.01588
1963.68900,0.01481
1961.62846,0.01465
1959.56793,0.01562
1957.50740,0.01598
1955.44686,0.01536
1953.38633,0.01505
1951.32579,0.01559
1949.26526,0.01660
1947.20472,0.01680
1945.14419,0.01550
1943.08366,0.01424
1941.02312,0.01386
1938.96259,0.01397
1936.90205,0.01477
1934.84152,0.01510
1932.78099,0.01428
1930.72045,0.01417
1928.65992,0.01517
1926.59938,0.01584
1924.53885,0.01594
1922.47832,0.01583
1920.41778,0.01573
1918.35725,0.01542
1916.29671,0.01469
1914.23618,0.01417
1912.17565,0.01396
1910.11511,0.01383
1908.05458,0.01389
1905.99404,0.01383
1903.93351,0.01372
1901.87297,0.01376
1899.81244,0.01382
1897.75191,0.01404
1895.69137,0.01431
1893.63084,0.01427
1891.57030,0.01403
1889.50977,0.01388
1887.44924,0.01389
1885.38870,0.01388
1883.32817,0.01387
1881.26763,0.01402
1879.20710,0.01407
1877.14657,0.01412
1875.08603,0.01438
1873.02550,0.01467
1870.96496,0.01484
1868.90443,0.01480
1866.84389,0.01467
1864.78336,0.01472
1862.72283,0.01478
1860.66229,0.01490
1858.60176,0.01508
1856.54122,0.01507
1854.48069,0.01499
1852.42016,0.01487
1850.35962,0.01478
1848.29909,0.01491
1846.23855,0.01507
1844.17802,0.01512
1842.11749,0.01524
1840.05695,0.01538
1837.99642,0.01542
1835.93588,0.01539
1833.87535,0.01540
1831.81482,0.01566
1829.75428,0.01600
1827.69375,0.01586
1825.63321,0.01539
1823.57268,0.01526
1821.51214,0.01547
1819.45161,0.01575
1817.39108,0.01613
1815.33054,0.01653
1813.27001,0.01679
1811.20947,0.01683
1809.14894,0.01685
1807.08841,0.01711
1805.02787,0.01753
1802.96734,0.01773
1800.90680,0.01757
1798.84627,0.01746
1796.78574,0.01775
1794.72520,0.01808
1792.66467,0.01801
1790.60413,0.01787
1788.54360,0.01822
1786.48307,0.01896
1784.42253,0.01951
1782.36200,0.01968
1780.30146,0.01988
1778.24093,0.02029
1776.18039,0.02059
1774.11986,0.02074
1772.05933,0.02110
1769.99879,0.02168
1767.93826,0.02221
1765.87772,0.02262
1763.81719,0.02295
1761.75666,0.02342
1759.69612,0.02395
1757.63559,0.02435
1755.57505,0.02479
1753.51452,0.02534
1751.45399,0.02609
1749.39345,0.02687
1747.33292,0.02750
1745.27238,0.02841
1743.21185,0.02944
1741.15131,0.03019
1739.09078,0.03093
1737.03025,0.03182
1734.96971,0.03286
1732.90918,0.03418
1730.84864,0.03545
1728.78811,0.03669
1726.72758,0.03809
1724.66704,0.03964
1722.60651,0.04116
1720.54597,0.04266
1718.48544,0.04433
1716.42491,0.04606
1714.36437,0.04803
1712.30384,0.05036
1710.24330,0.05268
1708.18277,0.05483
1706.12224,0.05726
1704.06170,0.05990
1702.00117,0.06253
1699.94063,0.06586
1697.88010,0.06941
1695.81956,0.07305
1693.75903,0.07675
1691.69850,0.07993
1689.63796,0.08343
1687.57743,0.08716
1685.51689,0.09132
1683.45636,0.09689
1681.39583,0.10194
1679.33529,0.10620
1677.27476,0.11051
1675.21422,0.11554
1673.15369,0.12079
1671.09316,0.12589
1669.03262,0.13172
1666.97209,0.13726
1664.91155,0.14233
1662.85102,0.14839
1660.79048,0.15471
1658.72995,0.15990
1656.66942,0.16403
1654.60888,0.16798
1652.54835,0.17330
1650.48781,0.17756
1648.42728,0.18018
1646.36675,0.18255
1644.30621,0.18479
1642.24568,0.18657
1640.18514,0.18781
1638.12461,0.18847
1636.06408,0.18833
1634.00354,0.18742
1631.94301,0.18633
1629.88247,0.18466
1627.82194,0.18193
1625.76141,0.17840
1623.70087,0.17383
1621.64034,0.16874
1619.57980,0.16445
1617.51927,0.15939
1615.45873,0.15284
1613.39820,0.14740
1611.33767,0.14253
1609.27713,0.13709
1607.21660,0.13165
1605.15606,0.12678
1603.09553,0.12221
1601.03500,0.11773
1598.97446,0.11353
1596.91393,0.10971
1594.85339,0.10611
1592.79286,0.10269
1590.73233,0.09949
1588.67179,0.09654
1586.61126,0.09399
1584.55072,0.09184
1582.49019,0.08992
1580.42966,0.08821
1578.36912,0.08670
1576.30859,0.08490
1574.24805,0.08323
1572.18752,0.08219
1570.12698,0.08113
1568.06645,0.08012
1566.00592,0.07952
1563.94538,0.07915
1561.88485,0.07901
1559.82431,0.07895
1557.76378,0.07870
1555.70325,0.07885
1553.64271,0.07915
1551.58218,0.07914
1549.52164,0.07865
1547.46111,0.07792
1545.40058,0.07721
1543.34004,0.07649
1541.27951,0.07540
1539.21897,0.07361
1537.15844,0.07225
1535.09790,0.07111
1533.03737,0.06950
1530.97684,0.06807
1528.91630,0.06707
1526.85577,0.06607
1524.79523,0.06524
1522.73470,0.06437
1520.67417,0.06314
1518.61363,0.06210
1516.55310,0.06139
1514.49256,0.06075
1512.43203,0.06012
1510.37150,0.05943
1508.31096,0.05852
1506.25043,0.05735
1504.18989,0.05667
1502.12936,0.05639
1500.06883,0.05608
1498.00829,0.05560
1495.94776,0.05490
1493.88722,0.05438
1491.82669,0.05405
1489.76615,0.05361
1487.70562,0.05321
1485.64509,0.05295
1483.58455,0.05276
1481.52402,0.05260
1479.46348,0.05244
1477.40295,0.05243
1475.34242,0.05254
1473.28188,0.05246
1471.22135,0.05231
1469.16081,0.05235
1467.10028,0.05234
1465.03975,0.05219
1462.97921,0.05219
1460.91868,0.05237
1458.85814,0.05244
1456.79761,0.05231
1454.73707,0.05212
1452.67654,0.05195
1450.61601,0.05182
1448.55547,0.05183
1446.49494,0.05184
1444.43440,0.05169
1442.37387,0.05156
1440.31334,0.05148
1438.25280,0.05128
1436.19227,0.05106
1434.13173,0.05095
1432.07120,0.05074
1430.01067,0.05048
1427.95013,0.05034
1425.88960,0.05040
1423.82906,0.05065
1421.76853,0.05097
1419.70800,0.05108
1417.64746,0.05106
1415.58693,0.05122
1413.52639,0.05145
1411.46586,0.05153
1409.40532,0.05167
1407.34479,0.05190
1405.28426,0.05202
1403.22372,0.05206
1401.16319,0.05211
1399.10265,0.05208
1397.04212,0.05188
1394.98159,0.05150
1392.92105,0.05122
1390.86052,0.05124
1388.79998,0.05118
1386.73945,0.05074
1384.67892,0.05027
1382.61838,0.05006
1380.55785,0.04989
1378.49731,0.04958
1376.43678,0.04928
1374.37624,0.04907
1372.31571,0.04916
1370.25518,0.04938
1368.19464,0.04934
1366.13411,0.04923
1364.07357,0.04918
1362.01304,0.04896
1359.95251,0.04870
1357.89197,0.04868
1355.83144,0.04873
1353.77090,0.04880
1351.71037,0.04887
1349.64984,0.04892
1347.58930,0.04896
1345.52877,0.04898
1343.46823,0.04894
1341.40770,0.04895
1339.34717,0.04903
1337.28663,0.04912
1335.22610,0.04917
1333.16556,0.04919
1331.10503,0.04925
1329.04449,0.04932
1326.98396,0.04935
1324.92343,0.04945
1322.86289,0.04965
1320.80236,0.04978
1318.74182,0.04970
1316.68129,0.04967
1314.62076,0.04986
1312.56022,0.05008
1310.49969,0.05013
1308.43915,0.05009
1306.37862,0.05012
1304.31809,0.05017
1302.25755,0.05013
1300.19702,0.05007
1298.13648,0.05012
1296.07595,0.05026
1294.01542,0.05030
1291.95488,0.05011
1289.89435,0.04988
1287.83381,0.04978
1285.77328,0.04979
1283.71274,0.04984
1281.65221,0.04989
1279.59168,0.04987
1277.53114,0.04975
1275.47061,0.04964
1273.41007,0.04968
1271.34954,0.04979
1269.28901,0.04968
1267.22847,0.04948
1265.16794,0.04947
1263.10740,0.04960
1261.04687,0.04972
1258.98634,0.04972
1256.92580,0.04973
1254.86527,0.04983
1252.80473,0.04977
1250.74420,0.04963
1248.68366,0.04963
1246.62313,0.04970
1244.56260,0.04963
1242.50206,0.04940
1240.44153,0.04926
1238.38099,0.04931
1236.32046,0.04935
1234.25993,0.04915
1232.19939,0.04884
1230.13886,0.04877
1228.07832,0.04886
1226.01779,0.04874
1223.95726,0.04852
1221.89672,0.04861
1219.83619,0.04884
1217.77565,0.04883
1215.71512,0.04873
1213.65459,0.04867
1211.59405,0.04853
1209.53352,0.04825
1207.47298,0.04804
1205.41245,0.04804
1203.35191,0.04814
1201.29138,0.04813
1199.23085,0.04807
1197.17031,0.04816
1195.10978,0.04827
1193.04924,0.04815
1190.98871,0.04792
1188.92818,0.04791
1186.86764,0.04817
1184.80711,0.04840
1182.74657,0.04852
1180.68604,0.04856
1178.62551,0.04853
1176.56497,0.04850
1174.50444,0.04850
1172.44390,0.04856
1170.38337,0.04860
1168.32283,0.04861
1166.26230,0.04865
1164.20177,0.04873
1162.14123,0.04885
1160.08070,0.04893
1158.02016,0.04884
1155.95963,0.04858
1153.89910,0.04841
1151.83856,0.04840
1149.77803,0.04826
1147.71749,0.04799
1145.65696,0.04775
1143.59643,0.04767
1141.53589,0.04775
1139.47536,0.04796
1137.41482,0.04826
1135.35429,0.04837
1133.29376,0.04826
1131.23322,0.04822
1129.17269,0.04835
1127.11215,0.04850
1125.05162,0.04868
1122.99108,0.04888
1120.93055,0.04900
1118.87002,0.04895
1116.80948,0.04865
1114.74895,0.04828
1112.68841,0.04836
1110.62788,0.04879
1108.56735,0.04904
1106.50681,0.04915
1104.44628,0.04939
1102.38574,0.04954
1100.32521,0.04955
1098.26468,0.04973
1096.20414,0.05006
1094.14361,0.05034
1092.08307,0.05056
1090.02254,0.05074
1087.96201,0.05097
1085.90147,0.05117
1083.84094,0.05115
1081.78040,0.05102
1079.71987,0.05113
1077.65933,0.05140
1075.59880,0.05151
1073.53827,0.05133
1071.47773,0.05101
1069.41720,0.05090
1067.35666,0.05102
1065.29613,0.05106
1063.23560,0.05104
1061.17506,0.05124
1059.11453,0.05144
1057.05399,0.05133
1054.99346,0.05118
1052.93293,0.05123
1050.87239,0.05121
1048.81186,0.05084
1046.75132,0.05060
1044.69079,0.05084
1042.63025,0.05111
1040.56972,0.05109
1038.50919,0.05109
1036.44865,0.05138
1034.38812,0.05172
1032.32758,0.05185
1030.26705,0.05189
1028.20652,0.05207
1026.14598,0.05233
1024.08545,0.05241
1022.02491,0.05255
1019.96438,0.05295
1017.90385,0.05334
1015.84331,0.05356
1013.78278,0.05359
1011.72224,0.05362
1009.66171,0.05383
1007.60118,0.05414
1005.54064,0.05456
1003.48011,0.05502
1001.41957,0.05546
999.35904,0.05587
997.29850,0.05636
995.23797,0.05706
993.17744,0.05785
991.11690,0.05846
989.05637,0.05873
986.99583,0.05889
984.93530,0.05915
982.87477,0.05950
980.81423,0.05977
978.75370,0.05999
976.69316,0.06043
974.63263,0.06096
972.57210,0.06138
970.51156,0.06187
968.45103,0.06251
966.39049,0.06322
964.32996,0.06383
962.26942,0.06436
960.20889,0.06495
958.14836,0.06561
956.08782,0.06636
954.02729,0.06735
951.96675,0.06841
949.90622,0.06917
947.84569,0.06962
945.78515,0.07039
943.72462,0.07162
941.66408,0.07283
939.60355,0.07383
937.54302,0.07477
935.48248,0.07574
933.42195,0.07664
931.36141,0.07762
929.30088,0.07867
927.24035,0.07963
925.17981,0.08077
923.11928,0.08204
921.05874,0.08325
918.99821,0.08465
916.93767,0.08624
914.87714,0.08764
912.81661,0.08873
910.75607,0.08977
908.69554,0.09105
906.63500,0.09251
904.57447,0.09410
902.51394,0.09573
900.45340,0.09720
898.39287,0.09865
896.33233,0.10026
894.27180,0.10203
892.21127,0.10398
890.15073,0.10592
888.09020,0.10770
886.02966,0.10965
883.96913,0.11194
881.90859,0.11405
879.84806,0.11565
877.78753,0.11697
875.72699,0.11872
873.66646,0.12113
871.60592,0.12344
869.54539,0.12540
867.48486,0.12757
865.42432,0.13009
863.36379,0.13238
861.30325,0.13421
859.24272,0.13616
857.18219,0.13870
855.12165,0.14139
853.06112,0.14381
851.00058,0.14617
848.94005,0.14851
846.87952,0.15066
844.81898,0.15264
842.75845,0.15492
840.69791,0.15747
838.63738,0.15962
836.57684,0.16159
834.51631,0.16402
832.45578,0.16690
830.39524,0.16965
828.33471,0.17191
826.27417,0.17405
824.21364,0.17624
822.15311,0.17872
820.09257,0.18163
818.03204,0.18452
815.97150,0.18707
813.91097,0.18927
811.85044,0.19140
809.78990,0.19385
807.72937,0.19657
805.66883,0.19920
803.60830,0.20177
801.54777,0.20466
799.48723,0.20751
797.42670,0.21018
795.36616,0.21313
793.30563,0.21628
791.24509,0.21930
789.18456,0.22188
787.12403,0.22412
785.06349,0.22642
783.00296,0.22868
780.94242,0.23119
778.88189,0.23442
776.82136,0.23778
774.76082,0.24108
772.70029,0.24424
770.63975,0.24671
768.57922,0.24893
766.51869,0.25162
764.45815,0.25445
762.39762,0.25659
760.33708,0.25826
758.27655,0.26062
756.21601,0.26407
754.15548,0.26776
752.09495,0.27061
750.03441,0.27321
747.97388,0.27652
745.91334,0.27933
743.85281,0.28134
741.79228,0.28427
739.73174,0.28796
737.67121,0.29098
735.61067,0.29345
733.55014,0.29610
731.48961,0.29873
729.42907,0.30125
727.36854,0.30421
725.30800,0.30727
723.24747,0.31013
721.18694,0.31293
719.12640,0.31524
717.06587,0.31763
715.00533,0.32066
712.94480,0.32364
710.88426,0.32636
708.82373,0.32924
706.76320,0.33214
704.70266,0.33465
702.64213,0.33715
700.58159,0.34020
698.52106,0.34385
696.46053,0.34731
694.39999,0.34975
692.33946,0.35223
690.27892,0.35568
688.21839,0.35889
686.15786,0.36092
684.09732,0.36256
682.03679,0.36512
679.97625,0.36796
677.91572,0.37018
675.85518,0.37266
673.79465,0.37561
671.73412,0.37844
669.67358,0.38101
667.61305,0.38487
665.55251,0.38872
663.49198,0.39073
661.43145,0.39206
659.37091,0.39378
657.31038,0.39651
655.24984,0.39998
653.18931,0.40284
651.12878,0.40468
649.06824,0.40703
647.00771,0.41077
644.94717,0.41385
642.88664,0.41610
640.82611,0.41943
638.76557,0.42272
636.70504,0.42477
634.64450,0.42620
632.58397,0.42772
630.52343,0.42978
628.46290,0.43207
626.40237,0.43408
624.34183,0.43628
622.28130,0.43951
620.22076,0.44275
618.16023,0.44501
616.09970,0.44759
614.03916,0.45056
611.97863,0.45272
609.91809,0.45470
607.85756,0.45686
605.79703,0.45884
603.73649,0.46099
601.67596,0.46285
599.61542,0.46525
597.55489,0.47004
595.49436,0.47378
593.43382,0.47403
591.37329,0.47509
589.31275,0.47857
587.25222,0.48116
585.19168,0.48114
583.13115,0.48169
581.07062,0.48557
579.01008,0.49025
576.94955,0.49229
574.88901,0.49185
572.82848,0.49216
570.76795,0.49434
568.70741,0.49612
566.64688,0.49680
564.58634,0.49859
562.52581,0.50215
560.46528,0.50538
558.40474,0.50741
556.34421,0.50932
554.28367,0.51093
552.22314,0.51179
550.16260,0.51186
548.10207,0.51242
546.04154,0.51449
543.98100,0.51630
541.92047,0.51834
539.85993,0.52254
537.79940,0.52615
535.73887,0.52695
533.67833,0.52734
531.61780,0.52906
529.55726,0.53198
527.49673,0.53447
525.43620,0.53527
523.37566,0.53579
521.31513,0.53591
519.25459,0.53543
517.19406,0.53558
515.13353,0.53672
513.07299,0.54012
511.01246,0.54561
508.95192,0.54978
506.89139,0.55140
504.83085,0.55098
502.77032,0.55008
500.70979,0.54916
498.64925,0.54844
496.58872,0.55114
494.52818,0.55674
492.46765,0.55803
490.40712,0.55452
488.34658,0.55556
486.28605,0.56102
484.22551,0.56226
482.16498,0.56129
480.10445,0.56473
478.04391,0.56868
475.98338,0.56743
473.92284,0.56282
471.86231,0.56143
469.80177,0.56577
467.74124,0.56896
465.68071,0.56727
463.62017,0.56744
461.55964,0.57139
459.49910,0.57301
457.43857,0.57177
455.37804,0.57080
453.31750,0.57275
451.25697,0.57596
449.19643,0.57437
447.13590,0.57012
445.07537,0.57082
443.01483,0.57646
440.95430,0.57786
438.89376,0.57648
436.83323,0.58326
434.77270,0.59202
432.71216,0.58680
430.65163,0.57870
428.59109,0.58178
426.53056,0.58599
424.47002,0.57987
422.40949,0.57115
420.34896,0.57208
418.28842,0.57819
416.22789,0.57511
414.16735,0.57144
412.10682,0.57645
410.04629,0.58216
407.98575,0.58113
405.92522,0.57836
403.86468,0.58021
401.80415,0.58850
399.74362,0.59994
