4996.79519,0.00364
4994.73466,0.00362
4992.67413,0.00311
4990.61359,0.00319
4988.55306,0.00376
4986.49252,0.00375
4984.43199,0.00353
4982.37145,0.00359
4980.31092,0.00299
4978.25039,0.00190
4976.18985,0.00150
4974.12932,0.00196
4972.06878,0.00293
4970.00825,0.00383
4967.94772,0.00390
4965.88718,0.00376
4963.82665,0.00435
4961.76611,0.00473
4959.70558,0.00427
4957.64505,0.00382
4955.58451,0.00366
4953.52398,0.00359
4951.46344,0.00351
4949.40291,0.00340
4947.34238,0.00326
4945.28184,0.00316
4943.22131,0.00385
4941.16077,0.00451
4939.10024,0.00414
4937.03970,0.00418
4934.97917,0.00464
4932.91864,0.00447
4930.85810,0.00439
4928.79757,0.00438
4926.73703,0.00383
4924.67650,0.00328
4922.61597,0.00315
4920.55543,0.00330
4918.49490,0.00361
4916.43436,0.00380
4914.37383,0.00373
4912.31330,0.00349
4910.25276,0.00316
4908.19223,0.00279
4906.13169,0.00269
4904.07116,0.00283
4902.01062,0.00321
4899.95009,0.00407
4897.88956,0.00466
4895.82902,0.00439
4893.76849,0.00376
4891.70795,0.00352
4889.64742,0.00385
4887.58689,0.00413
4885.52635,0.00379
4883.46582,0.00354
4881.40528,0.00359
4879.34475,0.00297
4877.28422,0.00253
4875.22368,0.00335
4873.16315,0.00441
4871.10261,0.00450
4869.04208,0.00391
4866.98155,0.00361
4864.92101,0.00359
4862.86048,0.00373
4860.79994,0.00411
4858.73941,0.00443
4856.67887,0.00458
4854.61834,0.00443
4852.55781,0.00423
4850.49727,0.00442
4848.43674,0.00458
4846.37620,0.00475
4844.31567,0.00524
4842.25514,0.00539
4840.19460,0.00481
4838.13407,0.00417
4836.07353,0.00410
4834.01300,0.00431
4831.95247,0.00410
4829.89193,0.00351
4827.83140,0.00349
4825.77086,0.00372
4823.71033,0.00332
4821.64979,0.00326
4819.58926,0.00398
4817.52873,0.00412
4815.46819,0.00342
4813.40766,0.00304
4811.34712,0.00332
4809.28659,0.00358
4807.22606,0.00331
4805.16552,0.00314
4803.10499,0.00330
4801.04445,0.00315
4798.98392,0.00278
4796.92339,0.00270
4794.86285,0.00293
4792.80232,0.00316
4790.74178,0.00338
4788.68125,0.00364
4786.62072,0.00378
4784.56018,0.00364
4782.49965,0.00332
4780.43911,0.00322
4778.37858,0.00343
4776.31804,0.00373
4774.25751,0.00380
4772.19698,0.00372
4770.13644,0.00347
4768.07591,0.00310
4766.01537,0.00320
4763.95484,0.00390
4761.89431,0.00426
4759.83377,0.00372
4757.77324,0.00297
4755.71270,0.00324
4753.65217,0.00415
4751.59164,0.00416
4749.53110,0.00328
4747.47057,0.00272
4745.41003,0.00284
4743.34950,0.00318
4741.28897,0.00348
4739.22843,0.00371
4737.16790,0.00371
4735.10736,0.00369
4733.04683,0.00379
4730.98629,0.00368
4728.92576,0.00330
4726.86523,0.00303
4724.80469,0.00320
4722.74416,0.00341
4720.68362,0.00317
4718.62309,0.00291
4716.56256,0.00291
4714.50202,0.00276
4712.44149,0.00242
4710.38095,0.00237
4708.32042,0.00262
4706.25989,0.00278
4704.19935,0.00301
4702.13882,0.00346
4700.07828,0.00357
4698.01775,0.00331
4695.95721,0.00312
4693.89668,0.00327
4691.83615,0.00378
4689.77561,0.00396
4687.71508,0.00350
4685.65454,0.00318
4683.59401,0.00342
4681.53348,0.00373
4679.47294,0.00381
4677.41241,0.00407
4675.35187,0.00444
4673.29134,0.00415
4671.23081,0.00314
4669.17027,0.00241
4667.10974,0.00256
4665.04920,0.00304
4662.98867,0.00332
4660.92814,0.00351
4658.86760,0.00355
4656.80707,0.00313
4654.74653,0.00287
4652.68600,0.00339
4650.62546,0.00404
4648.56493,0.00430
4646.50440,0.00415
4644.44386,0.00364
4642.38333,0.00328
4640.32279,0.00330
4638.26226,0.00322
4636.20173,0.00294
4634.14119,0.00289
4632.08066,0.00335
4630.02012,0.00417
4627.95959,0.00430
4625.89906,0.00364
4623.83852,0.00341
4621.77799,0.00336
4619.71745,0.00305
4617.65692,0.00324
4615.59638,0.00376
4613.53585,0.00389
4611.47532,0.00397
4609.41478,0.00418
4607.35425,0.00407
4605.29371,0.00377
4603.23318,0.00374
4601.17265,0.00406
4599.11211,0.00417
4597.05158,0.00383
4594.99104,0.00331
4592.93051,0.00290
4590.86998,0.00286
4588.80944,0.00302
4586.74891,0.00297
4584.68837,0.00286
4582.62784,0.00326
4580.56731,0.00380
4578.50677,0.00376
4576.44624,0.00342
4574.38570,0.00327
4572.32517,0.00329
4570.26463,0.00317
4568.20410,0.00296
4566.14357,0.00290
4564.08303,0.00290
4562.02250,0.00292
4559.96196,0.00315
4557.90143,0.00334
4555.84090,0.00324
4553.78036,0.00309
4551.71983,0.00328
4549.65929,0.00372
4547.59876,0.00370
4545.53823,0.00341
4543.47769,0.00356
4541.41716,0.00399
4539.35662,0.00417
4537.29609,0.00405
4535.23556,0.00403
4533.17502,0.00434
4531.11449,0.00458
4529.05395,0.00441
4526.99342,0.00375
4524.93288,0.00299
4522.87235,0.00283
4520.81182,0.00312
4518.75128,0.00319
4516.69075,0.00292
4514.63021,0.00275
4512.56968,0.00287
4510.50915,0.00305
4508.44861,0.00310
4506.38808,0.00331
4504.32754,0.00372
4502.26701,0.00408
4500.20648,0.00410
4498.14594,0.00341
4496.08541,0.00250
4494.02487,0.00222
4491.96434,0.00267
4489.90380,0.00329
4487.84327,0.00369
4485.78274,0.00378
4483.72220,0.00344
4481.66167,0.00300
4479.60113,0.00294
4477.54060,0.00328
4475.48007,0.00342
4473.41953,0.00313
4471.35900,0.00316
4469.29846,0.00376
4467.23793,0.00406
4465.17740,0.00366
4463.11686,0.00325
4461.05633,0.00349
4458.99579,0.00390
4456.93526,0.00400
4454.87473,0.00399
4452.81419,0.00399
4450.75366,0.00415
4448.69312,0.00420
4446.63259,0.00377
4444.57205,0.00333
4442.51152,0.00322
4440.45099,0.00298
4438.39045,0.00266
4436.32992,0.00285
4434.26938,0.00327
4432.20885,0.00322
4430.14832,0.00292
4428.08778,0.00297
4426.02725,0.00328
4423.96671,0.00364
4421.90618,0.00403
4419.84565,0.00417
4417.78511,0.00394
4415.72458,0.00350
4413.66404,0.00305
4411.60351,0.00277
4409.54297,0.00285
4407.48244,0.00314
4405.42191,0.00332
4403.36137,0.00345
4401.30084,0.00367
4399.24030,0.00366
4397.17977,0.00326
4395.11924,0.00299
4393.05870,0.00345
4390.99817,0.00400
4388.93763,0.00401
4386.87710,0.00389
4384.81657,0.00372
4382.75603,0.00347
4380.69550,0.00354
4378.63496,0.00382
4376.57443,0.00388
4374.51390,0.00382
4372.45336,0.00376
4370.39283,0.00367
4368.33229,0.00373
4366.27176,0.00399
4364.21122,0.00419
4362.15069,0.00400
4360.09016,0.00363
4358.02962,0.00360
4355.96909,0.00350
4353.90855,0.00317
4351.84802,0.00312
4349.78749,0.00321
4347.72695,0.00317
4345.66642,0.00306
4343.60588,0.00299
4341.54535,0.00302
4339.48482,0.00319
4337.42428,0.00365
4335.36375,0.00412
4333.30321,0.00438
4331.24268,0.00435
4329.18214,0.00390
4327.12161,0.00356
4325.06108,0.00366
4323.00054,0.00409
4320.94001,0.00467
4318.87947,0.00473
4316.81894,0.00409
4314.75841,0.00358
4312.69787,0.00358
4310.63734,0.00371
4308.57680,0.00380
4306.51627,0.00370
4304.45574,0.00331
4302.39520,0.00312
4300.33467,0.00327
4298.27413,0.00331
4296.21360,0.00346
4294.15307,0.00410
4292.09253,0.00474
4290.03200,0.00499
4287.97146,0.00461
4285.91093,0.00388
4283.85039,0.00357
4281.78986,0.00359
4279.72933,0.00349
4277.66879,0.00341
4275.60826,0.00356
4273.54772,0.00385
4271.48719,0.00386
4269.42666,0.00361
4267.36612,0.00354
4265.30559,0.00359
4263.24505,0.00366
4261.18452,0.00375
4259.12399,0.00373
4257.06345,0.00397
4255.00292,0.00434
4252.94238,0.00409
4250.88185,0.00371
4248.82132,0.00379
4246.76078,0.00404
4244.70025,0.00408
4242.63971,0.00384
4240.57918,0.00349
4238.51864,0.00317
4236.45811,0.00302
4234.39758,0.00323
4232.33704,0.00373
4230.27651,0.00411
4228.21597,0.00413
4226.15544,0.00389
4224.09491,0.00374
4222.03437,0.00389
4219.97384,0.00393
4217.91330,0.00364
4215.85277,0.00348
4213.79224,0.00358
4211.73170,0.00378
4209.67117,0.00414
4207.61063,0.00437
4205.55010,0.00435
4203.48956,0.00421
4201.42903,0.00399
4199.36850,0.00403
4197.30796,0.00423
4195.24743,0.00415
4193.18689,0.00396
4191.12636,0.00382
4189.06583,0.00360
4187.00529,0.00329
4184.94476,0.00323
4182.88422,0.00365
4180.82369,0.00433
4178.76316,0.00462
4176.70262,0.00433
4174.64209,0.00381
4172.58155,0.00339
4170.52102,0.00346
4168.46049,0.00408
4166.39995,0.00468
4164.33942,0.00490
4162.27888,0.00486
4160.21835,0.00458
4158.15781,0.00425
4156.09728,0.00414
4154.03675,0.00408
4151.97621,0.00391
4149.91568,0.00367
4147.85514,0.00342
4145.79461,0.00329
4143.73408,0.00342
4141.67354,0.00365
4139.61301,0.00383
4137.55247,0.00402
4135.49194,0.00407
4133.43141,0.00389
4131.37087,0.00376
4129.31034,0.00376
4127.24980,0.00392
4125.18927,0.00410
4123.12873,0.00398
4121.06820,0.00396
4119.00767,0.00428
4116.94713,0.00445
4114.88660,0.00452
4112.82606,0.00460
4110.76553,0.00457
4108.70500,0.00440
4106.64446,0.00421
4104.58393,0.00416
4102.52339,0.00407
4100.46286,0.00386
4098.40233,0.00394
4096.34179,0.00429
4094.28126,0.00453
4092.22072,0.00469
4090.16019,0.00475
4088.09966,0.00473
4086.03912,0.00475
4083.97859,0.00476
4081.91805,0.00466
4079.85752,0.00460
4077.79698,0.00465
4075.73645,0.00468
4073.67592,0.00460
4071.61538,0.00430
4069.55485,0.00398
4067.49431,0.00424
4065.43378,0.00463
4063.37325,0.00444
4061.31271,0.00431
4059.25218,0.00457
4057.19164,0.00468
4055.13111,0.00471
4053.07058,0.00475
4051.01004,0.00451
4048.94951,0.00430
4046.88897,0.00436
4044.82844,0.00450
4042.76791,0.00462
4040.70737,0.00475
4038.64684,0.00501
4036.58630,0.00526
4034.52577,0.00519
4032.46523,0.00485
4030.40470,0.00457
4028.34417,0.00457
4026.28363,0.00470
4024.22310,0.00462
4022.16256,0.00441
4020.10203,0.00445
4018.04150,0.00453
4015.98096,0.00440
4013.92043,0.00437
4011.85989,0.00465
4009.79936,0.00498
4007.73883,0.00506
4005.67829,0.00496
4003.61776,0.00485
4001.55722,0.00477
3999.49669,0.00475
3997.43615,0.00481
3995.37562,0.00489
3993.31509,0.00479
3991.25455,0.00460
3989.19402,0.00454
3987.13348,0.00455
3985.07295,0.00458
3983.01242,0.00483
3980.95188,0.00519
3978.89135,0.00528
3976.83081,0.00516
3974.77028,0.00505
3972.70975,0.00504
3970.64921,0.00523
3968.58868,0.00521
3966.52814,0.00484
3964.46761,0.00452
3962.40708,0.00444
3960.34654,0.00465
3958.28601,0.00502
3956.22547,0.00536
3954.16494,0.00556
3952.10440,0.00554
3950.04387,0.00533
3947.98334,0.00485
3945.92280,0.00430
3943.86227,0.00420
3941.80173,0.00450
3939.74120,0.00475
3937.68067,0.00502
3935.62013,0.00536
3933.55960,0.00541
3931.49906,0.00510
3929.43853,0.00495
3927.37800,0.00514
3925.31746,0.00513
3923.25693,0.00484
3921.19639,0.00456
3919.13586,0.00452
3917.07532,0.00471
3915.01479,0.00474
3912.95426,0.00463
3910.89372,0.00455
3908.83319,0.00434
3906.77265,0.00404
3904.71212,0.00396
3902.65159,0.00417
3900.59105,0.00430
3898.53052,0.00418
3896.46998,0.00405
3894.40945,0.00399
3892.34892,0.00403
3890.28838,0.00425
3888.22785,0.00442
3886.16731,0.00437
3884.10678,0.00428
3882.04625,0.00439
3879.98571,0.00467
3877.92518,0.00474
3875.86464,0.00466
3873.80411,0.00486
3871.74357,0.00523
3869.68304,0.00533
3867.62251,0.00501
3865.56197,0.00477
3863.50144,0.00488
3861.44090,0.00495
3859.38037,0.00476
3857.31984,0.00460
3855.25930,0.00486
3853.19877,0.00563
3851.13823,0.00578
3849.07770,0.00511
3847.01717,0.00474
3844.95663,0.00507
3842.89610,0.00531
3840.83556,0.00498
3838.77503,0.00435
3836.71449,0.00416
3834.65396,0.00470
3832.59343,0.00531
3830.53289,0.00537
3828.47236,0.00491
3826.41182,0.00460
3824.35129,0.00482
3822.29076,0.00506
3820.23022,0.00478
3818.16969,0.00431
3816.10915,0.00427
3814.04862,0.00463
3811.98809,0.00499
3809.92755,0.00520
3807.86702,0.00511
3805.80648,0.00477
3803.74595,0.00466
3801.68542,0.00488
3799.62488,0.00513
3797.56435,0.00516
3795.50381,0.00499
3793.44328,0.00482
3791.38274,0.00479
3789.32221,0.00500
3787.26168,0.00535
3785.20114,0.00558
3783.14061,0.00578
3781.08007,0.00588
3779.01954,0.00568
3776.95901,0.00544
3774.89847,0.00533
3772.83794,0.00523
3770.77740,0.00522
3768.71687,0.00542
3766.65634,0.00537
3764.59580,0.00494
3762.53527,0.00473
3760.47473,0.00500
3758.41420,0.00539
3756.35367,0.00533
3754.29313,0.00501
3752.23260,0.00492
3750.17206,0.00508
3748.11153,0.00511
3746.05099,0.00506
3743.99046,0.00547
3741.92993,0.00605
3739.86939,0.00625
3737.80886,0.00662
3735.74832,0.00733
3733.68779,0.00761
3731.62726,0.00740
3729.56672,0.00712
3727.50619,0.00693
3725.44565,0.00700
3723.38512,0.00731
3721.32459,0.00764
3719.26405,0.00796
3717.20352,0.00811
3715.14298,0.00819
3713.08245,0.00868
3711.02191,0.00924
3708.96138,0.00943
3706.90085,0.00969
3704.84031,0.01005
3702.77978,0.01029
3700.71924,0.01025
3698.65871,0.01008
3696.59818,0.01032
3694.53764,0.01108
3692.47711,0.01213
3690.41657,0.01352
3688.35604,0.01481
3686.29551,0.01521
3684.23497,0.01540
3682.17444,0.01607
3680.11390,0.01681
3678.05337,0.01747
3675.99284,0.01853
3673.93230,0.01972
3671.87177,0.02077
3669.81123,0.02210
3667.75070,0.02367
3665.69016,0.02505
3663.62963,0.02623
3661.56910,0.02746
3659.50856,0.02873
3657.44803,0.03003
3655.38749,0.03148
3653.32696,0.03279
3651.26643,0.03393
3649.20589,0.03539
3647.14536,0.03756
3645.08482,0.03977
3643.02429,0.04149
3640.96376,0.04292
3638.90322,0.04441
3636.84269,0.04606
3634.78215,0.04775
3632.72162,0.04903
3630.66108,0.05013
3628.60055,0.05191
3626.54002,0.05374
3624.47948,0.05493
3622.41895,0.05589
3620.35841,0.05716
3618.29788,0.05891
3616.23735,0.06100
3614.17681,0.06325
3612.11628,0.06498
3610.05574,0.06588
3607.99521,0.06680
3605.93468,0.06871
3603.87414,0.07100
3601.81361,0.07286
3599.75307,0.07430
3597.69254,0.07582
3595.63201,0.07763
3593.57147,0.07933
3591.51094,0.08077
3589.45040,0.08211
3587.38987,0.08363
3585.32933,0.08539
3583.26880,0.08731
3581.20827,0.08931
3579.14773,0.09136
3577.08720,0.09346
3575.02666,0.09522
3572.96613,0.09638
3570.90560,0.09750
3568.84506,0.09938
3566.78453,0.10202
3564.72399,0.10425
3562.66346,0.10583
3560.60293,0.10736
3558.54239,0.10906
3556.48186,0.11100
3554.42132,0.11318
3552.36079,0.11541
3550.30026,0.11743
3548.23972,0.11932
3546.17919,0.12133
3544.11865,0.12357
3542.05812,0.12581
3539.99758,0.12794
3537.93705,0.13002
3535.87652,0.13211
3533.81598,0.13420
3531.75545,0.13619
3529.69491,0.13796
3527.63438,0.13958
3525.57385,0.14149
3523.51331,0.14360
3521.45278,0.14553
3519.39224,0.14758
3517.33171,0.14998
3515.27118,0.15236
3513.21064,0.15456
3511.15011,0.15656
3509.08957,0.15825
3507.02904,0.15984
3504.96850,0.16147
3502.90797,0.16331
3500.84744,0.16545
3498.78690,0.16762
3496.72637,0.16958
3494.66583,0.17132
3492.60530,0.17314
3490.54477,0.17521
3488.48423,0.17721
3486.42370,0.17911
3484.36316,0.18100
3482.30263,0.18241
3480.24210,0.18360
3478.18156,0.18542
3476.12103,0.18771
3474.06049,0.18993
3471.99996,0.19170
3469.93943,0.19304
3467.87889,0.19449
3465.81836,0.19627
3463.75782,0.19822
3461.69729,0.20013
3459.63675,0.20188
3457.57622,0.20357
3455.51569,0.20531
3453.45515,0.20700
3451.39462,0.20882
3449.33408,0.21091
3447.27355,0.21270
3445.21302,0.21405
3443.15248,0.21544
3441.09195,0.21698
3439.03141,0.21831
3436.97088,0.21924
3434.91035,0.21989
3432.84981,0.22087
3430.78928,0.22271
3428.72874,0.22476
3426.66821,0.22642
3424.60767,0.22767
3422.54714,0.22874
3420.48661,0.23001
3418.42607,0.23148
3416.36554,0.23301
3414.30500,0.23455
3412.24447,0.23572
3410.18394,0.23646
3408.12340,0.23728
3406.06287,0.23815
3404.00233,0.23875
3401.94180,0.23961
3399.88127,0.24087
3397.82073,0.24221
3395.76020,0.24360
3393.69966,0.24462
3391.63913,0.24540
3389.57860,0.24662
3387.51806,0.24783
3385.45753,0.24881
3383.39699,0.24990
3381.33646,0.25088
3379.27592,0.25191
3377.21539,0.25331
3375.15486,0.25484
3373.09432,0.25612
3371.03379,0.25682
3368.97325,0.25746
3366.91272,0.25867
3364.85219,0.26016
3362.79165,0.26177
3360.73112,0.26347
3358.67058,0.26462
3356.61005,0.26514
3354.54952,0.26596
3352.48898,0.26734
3350.42845,0.26865
3348.36791,0.26982
3346.30738,0.27126
3344.24684,0.27279
3342.18631,0.27405
3340.12578,0.27525
3338.06524,0.27664
3336.00471,0.27786
3333.94417,0.27883
3331.88364,0.28015
3329.82311,0.28216
3327.76257,0.28437
3325.70204,0.28612
3323.64150,0.28737
3321.58097,0.28882
3319.52044,0.29120
3317.45990,0.29395
3315.39937,0.29596
3313.33883,0.29755
3311.27830,0.29952
3309.21777,0.30202
3307.15723,0.30501
3305.09670,0.30767
3303.03616,0.30952
3300.97563,0.31139
3298.91509,0.31382
3296.85456,0.31632
3294.79403,0.31823
3292.73349,0.31948
3290.67296,0.32039
3288.61242,0.32147
3286.55189,0.32270
3284.49136,0.32335
3282.43082,0.32316
3280.37029,0.32267
3278.30975,0.32228
3276.24922,0.32180
3274.18869,0.32097
3272.12815,0.31971
3270.06762,0.31810
3268.00708,0.31631
3265.94655,0.31447
3263.88602,0.31248
3261.82548,0.31022
3259.76495,0.30781
3257.70441,0.30540
3255.64388,0.30297
3253.58334,0.30034
3251.52281,0.29741
3249.46228,0.29445
3247.40174,0.29188
3245.34121,0.28974
3243.28067,0.28781
3241.22014,0.28587
3239.15961,0.28379
3237.09907,0.28179
3235.03854,0.28016
3232.97800,0.27832
3230.91747,0.27552
3228.85694,0.27287
3226.79640,0.27157
3224.73587,0.27054
3222.67533,0.26888
3220.61480,0.26714
3218.55426,0.26568
3216.49373,0.26428
3214.43320,0.26291
3212.37266,0.26157
3210.31213,0.25988
3208.25159,0.25790
3206.19106,0.25616
3204.13053,0.25485
3202.06999,0.25375
3200.00946,0.25240
3197.94892,0.25093
3195.88839,0.24938
3193.82786,0.24719
3191.76732,0.24483
3189.70679,0.24310
3187.64625,0.24164
3185.58572,0.23987
3183.52519,0.23798
3181.46465,0.23620
3179.40412,0.23429
3177.34358,0.23217
3175.28305,0.23019
3173.22251,0.22822
3171.16198,0.22597
3169.10145,0.22350
3167.04091,0.22096
3164.98038,0.21856
3162.91984,0.21641
3160.85931,0.21424
3158.79878,0.21189
3156.73824,0.20976
3154.67771,0.20788
3152.61717,0.20595
3150.55664,0.20396
3148.49611,0.20179
3146.43557,0.19926
3144.37504,0.19675
3142.31450,0.19449
3140.25397,0.19237
3138.19343,0.19051
3136.13290,0.18868
3134.07237,0.18657
3132.01183,0.18431
3129.95130,0.18216
3127.89076,0.18017
3125.83023,0.17827
3123.76970,0.17644
3121.70916,0.17480
3119.64863,0.17332
3117.58809,0.17172
3115.52756,0.16967
3113.46703,0.16736
3111.40649,0.16556
3109.34596,0.16432
3107.28542,0.16290
3105.22489,0.16140
3103.16436,0.16027
3101.10382,0.15921
3099.04329,0.15775
3096.98275,0.15614
3094.92222,0.15495
3092.86168,0.15415
3090.80115,0.15359
3088.74062,0.15299
3086.68008,0.15201
3084.61955,0.15099
3082.55901,0.15037
3080.49848,0.14992
3078.43795,0.14911
3076.37741,0.14776
3074.31688,0.14631
3072.25634,0.14540
3070.19581,0.14484
3068.13528,0.14409
3066.07474,0.14307
3064.01421,0.14165
3061.95367,0.14002
3059.89314,0.13864
3057.83261,0.13756
3055.77207,0.13649
3053.71154,0.13525
3051.65100,0.13392
3049.59047,0.13245
3047.52993,0.13085
3045.46940,0.12945
3043.40887,0.12812
3041.34833,0.12654
3039.28780,0.12485
3037.22726,0.12336
3035.16673,0.12214
3033.10620,0.12091
3031.04566,0.11958
3028.98513,0.11819
3026.92459,0.11675
3024.86406,0.11525
3022.80353,0.11339
3020.74299,0.11124
3018.68246,0.10930
3016.62192,0.10770
3014.56139,0.10636
3012.50085,0.10507
3010.44032,0.10370
3008.37979,0.10224
3006.31925,0.10090
3004.25872,0.09994
3002.19818,0.09903
3000.13765,0.09813
2998.07712,0.09763
2996.01658,0.09760
2993.95605,0.09784
2991.89551,0.09799
2989.83498,0.09797
2987.77445,0.09822
2985.71391,0.09892
2983.65338,0.09970
2981.59284,0.10022
2979.53231,0.10080
2977.47178,0.10179
2975.41124,0.10299
2973.35071,0.10437
2971.29017,0.10607
2969.22964,0.10813
2967.16910,0.11013
2965.10857,0.11156
2963.04804,0.11250
2960.98750,0.11315
2958.92697,0.11322
2956.86643,0.11256
2954.80590,0.11151
2952.74537,0.11010
2950.68483,0.10829
2948.62430,0.10659
2946.56376,0.10537
2944.50323,0.10454
2942.44270,0.10416
2940.38216,0.10415
2938.32163,0.10421
2936.26109,0.10408
2934.20056,0.10356
2932.14002,0.10277
2930.07949,0.10177
2928.01896,0.10042
2925.95842,0.09878
2923.89789,0.09690
2921.83735,0.09502
2919.77682,0.09337
2917.71629,0.09184
2915.65575,0.09006
2913.59522,0.08780
2911.53468,0.08539
2909.47415,0.08323
2907.41362,0.08127
2905.35308,0.07935
2903.29255,0.07758
2901.23201,0.07606
2899.17148,0.07469
2897.11095,0.07352
2895.05041,0.07237
2892.98988,0.07099
2890.92934,0.06991
2888.86881,0.06942
2886.80827,0.06909
2884.74774,0.06882
2882.68721,0.06878
2880.62667,0.06915
2878.56614,0.06995
2876.50560,0.07088
2874.44507,0.07155
2872.38454,0.07145
2870.32400,0.07032
2868.26347,0.06866
2866.20293,0.06693
2864.14240,0.06509
2862.08187,0.06336
2860.02133,0.06217
2857.96080,0.06111
2855.90026,0.05971
2853.83973,0.05812
2851.77919,0.05663
2849.71866,0.05550
2847.65813,0.05444
2845.59759,0.05302
2843.53706,0.05145
2841.47652,0.05026
2839.41599,0.04967
2837.35546,0.04931
2835.29492,0.04864
2833.23439,0.04764
2831.17385,0.04689
2829.11332,0.04659
2827.05279,0.04625
2824.99225,0.04572
2822.93172,0.04514
2820.87118,0.04472
2818.81065,0.04449
2816.75012,0.04419
2814.68958,0.04387
2812.62905,0.04365
2810.56851,0.04320
2808.50798,0.04249
2806.44744,0.04186
2804.38691,0.04128
2802.32638,0.04069
2800.26584,0.04024
2798.20531,0.03989
2796.14477,0.03949
2794.08424,0.03904
2792.02371,0.03868
2789.96317,0.03832
2787.90264,0.03777
2785.84210,0.03712
2783.78157,0.03661
2781.72104,0.03628
2779.66050,0.03599
2777.59997,0.03570
2775.53943,0.03535
2773.47890,0.03498
2771.41837,0.03464
2769.35783,0.03416
2767.29730,0.03360
2765.23676,0.03324
2763.17623,0.03298
2761.11569,0.03253
2759.05516,0.03203
2756.99463,0.03172
2754.93409,0.03151
2752.87356,0.03127
2750.81302,0.03088
2748.75249,0.03032
2746.69196,0.02982
2744.63142,0.02954
2742.57089,0.02944
2740.51035,0.02917
2738.44982,0.02866
2736.38929,0.02827
2734.32875,0.02811
2732.26822,0.02794
2730.20768,0.02769
2728.14715,0.02745
2726.08661,0.02720
2724.02608,0.02688
2721.96555,0.02656
2719.90501,0.02637
2717.84448,0.02634
2715.78394,0.02626
2713.72341,0.02593
2711.66288,0.02554
2709.60234,0.02536
2707.54181,0.02533
2705.48127,0.02513
2703.42074,0.02486
2701.36021,0.02485
2699.29967,0.02480
2697.23914,0.02454
2695.17860,0.02426
2693.11807,0.02405
2691.05754,0.02394
2688.99700,0.02382
2686.93647,0.02372
2684.87593,0.02370
2682.81540,0.02361
2680.75486,0.02341
2678.69433,0.02329
2676.63380,0.02340
2674.57326,0.02344
2672.51273,0.02326
2670.45219,0.02310
2668.39166,0.02311
2666.33113,0.02305
2664.27059,0.02280
2662.21006,0.02266
2660.14952,0.02258
2658.08899,0.02235
2656.02846,0.02205
2653.96792,0.02192
2651.90739,0.02200
2649.84685,0.02199
2647.78632,0.02164
2645.72578,0.02109
2643.66525,0.02067
2641.60472,0.02060
2639.54418,0.02070
2637.48365,0.02065
2635.42311,0.02050
2633.36258,0.02029
2631.30205,0.01998
2629.24151,0.01990
2627.18098,0.02005
2625.12044,0.02001
2623.05991,0.01981
2620.99938,0.01957
2618.93884,0.01931
2616.87831,0.01913
2614.81777,0.01896
2612.75724,0.01881
2610.69671,0.01880
2608.63617,0.01864
2606.57564,0.01809
2604.51510,0.01781
2602.45457,0.01820
2600.39403,0.01850
2598.33350,0.01824
2596.27297,0.01791
2594.21243,0.01762
2592.15190,0.01741
2590.09136,0.01730
2588.03083,0.01712
2585.97030,0.01713
2583.90976,0.01730
2581.84923,0.01715
2579.78869,0.01678
2577.72816,0.01659
2575.66763,0.01665
2573.60709,0.01671
2571.54656,0.01666
2569.48602,0.01660
2567.42549,0.01655
2565.36496,0.01644
2563.30442,0.01637
2561.24389,0.01643
2559.18335,0.01641
2557.12282,0.01623
2555.06228,0.01609
2553.00175,0.01610
2550.94122,0.01618
2548.88068,0.01631
2546.82015,0.01641
2544.75961,0.01638
2542.69908,0.01616
2540.63855,0.01591
2538.57801,0.01590
2536.51748,0.01586
2534.45694,0.01560
2532.39641,0.01552
2530.33588,0.01558
2528.27534,0.01546
2526.21481,0.01538
2524.15427,0.01540
2522.09374,0.01534
2520.03320,0.01530
2517.97267,0.01522
2515.91214,0.01504
2513.85160,0.01498
2511.79107,0.01496
2509.73053,0.01467
2507.67000,0.01444
2505.60947,0.01457
2503.54893,0.01468
2501.48840,0.01466
2499.42786,0.01461
2497.36733,0.01446
2495.30680,0.01429
2493.24626,0.01418
2491.18573,0.01417
2489.12519,0.01410
2487.06466,0.01410
2485.00413,0.01437
2482.94359,0.01466
2480.88306,0.01467
2478.82252,0.01440
2476.76199,0.01412
2474.70145,0.01417
2472.64092,0.01457
2470.58039,0.01485
2468.51985,0.01481
2466.45932,0.01444
2464.39878,0.01399
2462.33825,0.01382
2460.27772,0.01376
2458.21718,0.01359
2456.15665,0.01361
2454.09611,0.01373
2452.03558,0.01352
2449.97505,0.01333
2447.91451,0.01345
2445.85398,0.01343
2443.79344,0.01329
2441.73291,0.01328
2439.67237,0.01329
2437.61184,0.01331
2435.55131,0.01333
2433.49077,0.01345
2431.43024,0.01368
2429.36970,0.01383
2427.30917,0.01380
2425.24864,0.01367
2423.18810,0.01351
2421.12757,0.01326
2419.06703,0.01319
2417.00650,0.01329
2414.94597,0.01326
2412.88543,0.01316
2410.82490,0.01336
2408.76436,0.01383
2406.70383,0.01400
2404.64330,0.01395
2402.58276,0.01397
2400.52223,0.01407
2398.46169,0.01405
2396.40116,0.01385
2394.34062,0.01372
2392.28009,0.01378
2390.21956,0.01377
2388.15902,0.01372
2386.09849,0.01375
2384.03795,0.01380
2381.97742,0.01392
2379.91689,0.01394
2377.85635,0.01375
2375.79582,0.01371
2373.73528,0.01391
2371.67475,0.01395
2369.61422,0.01387
2367.55368,0.01405
2365.49315,0.01447
2363.43261,0.01475
2361.37208,0.01447
2359.31154,0.01360
2357.25101,0.01266
2355.19048,0.01282
2353.12994,0.01374
2351.06941,0.01420
2349.00887,0.01430
2346.94834,0.01440
2344.88781,0.01464
2342.82727,0.01493
2340.76674,0.01501
2338.70620,0.01503
2336.64567,0.01518
2334.58514,0.01533
2332.52460,0.01536
2330.46407,0.01519
2328.40353,0.01494
2326.34300,0.01484
2324.28247,0.01459
2322.22193,0.01444
2320.16140,0.01482
2318.10086,0.01515
2316.04033,0.01503
2313.97979,0.01477
2311.91926,0.01472
2309.85873,0.01501
2307.79819,0.01522
2305.73766,0.01495
2303.67712,0.01458
2301.61659,0.01442
2299.55606,0.01448
2297.49552,0.01484
2295.43499,0.01530
2293.37445,0.01575
2291.31392,0.01609
2289.25339,0.01613
2287.19285,0.01594
2285.13232,0.01588
2283.07178,0.01599
2281.01125,0.01613
2278.95072,0.01622
2276.89018,0.01607
2274.82965,0.01579
2272.76911,0.01565
2270.70858,0.01563
2268.64804,0.01531
2266.58751,0.01489
2264.52698,0.01529
2262.46644,0.01617
2260.40591,0.01641
2258.34537,0.01609
2256.28484,0.01586
2254.22431,0.01558
2252.16377,0.01546
2250.10324,0.01594
2248.04270,0.01625
2245.98217,0.01611
2243.92164,0.01572
2241.86110,0.01539
2239.80057,0.01599
2237.74003,0.01701
2235.67950,0.01706
2233.61896,0.01651
2231.55843,0.01617
2229.49790,0.01561
2227.43736,0.01553
2225.37683,0.01677
2223.31629,0.01781
2221.25576,0.01805
2219.19523,0.01795
2217.13469,0.01755
2215.07416,0.01756
2213.01362,0.01776
2210.95309,0.01756
2208.89256,0.01751
2206.83202,0.01814
2204.77149,0.01941
2202.71095,0.02028
2200.65042,0.01982
2198.58989,0.01848
2196.52935,0.01756
2194.46882,0.01725
2192.40828,0.01671
2190.34775,0.01617
2188.28721,0.01633
2186.22668,0.01703
2184.16615,0.01802
2182.10561,0.01823
2180.04508,0.01733
2177.98454,0.01744
2175.92401,0.01865
2173.86348,0.01849
2171.80294,0.01686
2169.74241,0.01612
2167.68187,0.01707
2165.62134,0.01804
2163.56081,0.01826
2161.50027,0.01853
2159.43974,0.01835
2157.37920,0.01789
2155.31867,0.01834
2153.25813,0.01924
2151.19760,0.01970
2149.13707,0.01940
2147.07653,0.01931
2145.01600,0.01960
2142.95546,0.01955
2140.89493,0.01934
2138.83440,0.01910
2136.77386,0.01945
2134.71333,0.02019
2132.65279,0.02046
2130.59226,0.02082
2128.53173,0.02111
2126.47119,0.02092
2124.41066,0.02057
2122.35012,0.01993
2120.28959,0.01953
2118.22906,0.01983
2116.16852,0.02023
2114.10799,0.02064
2112.04745,0.02083
2109.98692,0.02024
2107.92638,0.01967
2105.86585,0.01947
2103.80532,0.01908
2101.74478,0.01926
2099.68425,0.01999
2097.62371,0.01997
2095.56318,0.01964
2093.50265,0.01953
2091.44211,0.01919
2089.38158,0.01881
2087.32104,0.01845
2085.26051,0.01837
2083.19998,0.01893
2081.13944,0.01941
2079.07891,0.01938
2077.01837,0.01930
2074.95784,0.01931
2072.89731,0.01912
2070.83677,0.01866
2068.77624,0.01808
2066.71570,0.01728
2064.65517,0.01640
2062.59463,0.01632
2060.53410,0.01718
2058.47357,0.01797
2056.41303,0.01793
2054.35250,0.01783
2052.29196,0.01803
2050.23143,0.01773
2048.17090,0.01745
2046.11036,0.01765
2044.04983,0.01753
2041.98929,0.01694
2039.92876,0.01659
2037.86823,0.01725
2035.80769,0.01791
2033.74716,0.01706
2031.68662,0.01594
2029.62609,0.01576
2027.56555,0.01553
2025.50502,0.01500
2023.44449,0.01502
2021.38395,0.01524
2019.32342,0.01454
2017.26288,0.01334
2015.20235,0.01278
2013.14182,0.01260
2011.08128,0.01249
2009.02075,0.01225
2006.96021,0.01178
2004.89968,0.01266
2002.83915,0.01472
2000.77861,0.01535
1998.71808,0.01412
1996.65754,0.01273
1994.59701,0.01205
1992.53648,0.01200
1990.47594,0.01265
1988.41541,0.01323
1986.35487,0.01330
1984.29434,0.01330
1982.23380,0.01274
1980.17327,0.01204
1978.11274,0.01300
1976.05220,0.01464
1973.99167,0.01388
1971.93113,0.01150
1969.87060,0.01085
1967.81007,0.01251
1965.74953,0.01372
1963.68900,0.01274
1961.62846,0.01218
1959.56793,0.01375
1957.50740,0.01470
1955.44686,0.01363
1953.38633,0.01232
1951.32579,0.01197
1949.26526,0.01232
1947.20472,0.01242
1945.14419,0.01195
1943.08366,0.01198
1941.02312,0.01231
1938.96259,0.01202
1936.90205,0.01170
1934.84152,0.01169
1932.78099,0.01185
1930.72045,0.01242
1928.65992,0.01316
1926.59938,0.01356
1924.53885,0.01371
1922.47832,0.01363
1920.41778,0.01324
1918.35725,0.01271
1916.29671,0.01237
1914.23618,0.01229
1912.17565,0.01206
1910.11511,0.01193
1908.05458,0.01252
1905.99404,0.01297
1903.93351,0.01284
1901.87297,0.01287
1899.81244,0.01300
1897.75191,0.01282
1895.69137,0.01261
1893.63084,0.01254
1891.57030,0.01242
1889.50977,0.01222
1887.44924,0.01225
1885.38870,0.01256
1883.32817,0.01282
1881.26763,0.01286
1879.20710,0.01278
1877.14657,0.01298
1875.08603,0.01325
1873.02550,0.01322
1870.96496,0.01322
1868.90443,0.01327
1866.84389,0.01314
1864.78336,0.01311
1862.72283,0.01327
1860.66229,0.01360
1858.60176,0.01390
1856.54122,0.01387
1854.48069,0.01368
1852.42016,0.01350
1850.35962,0.01337
1848.29909,0.01333
1846.23855,0.01329
1844.17802,0.01331
1842.11749,0.01349
1840.05695,0.01363
1837.99642,0.01349
1835.93588,0.01329
1833.87535,0.01336
1831.81482,0.01358
1829.75428,0.01369
1827.69375,0.01381
1825.63321,0.01403
1823.57268,0.01423
1821.51214,0.01418
1819.45161,0.01408
1817.39108,0.01431
1815.33054,0.01463
1813.27001,0.01492
1811.20947,0.01527
1809.14894,0.01557
1807.08841,0.01572
1805.02787,0.01586
1802.96734,0.01601
1800.90680,0.01607
1798.84627,0.01623
1796.78574,0.01644
1794.72520,0.01649
1792.66467,0.01643
1790.60413,0.01640
1788.54360,0.01656
1786.48307,0.01708
1784.42253,0.01759
1782.36200,0.01776
1780.30146,0.01780
1778.24093,0.01794
1776.18039,0.01807
1774.11986,0.01818
1772.05933,0.01840
1769.99879,0.01882
1767.93826,0.01934
1765.87772,0.01969
1763.81719,0.01977
1761.75666,0.01996
1759.69612,0.02050
1757.63559,0.02098
1755.57505,0.02139
1753.51452,0.02176
1751.45399,0.02226
1749.39345,0.02288
1747.33292,0.02347
1745.27238,0.02408
1743.21185,0.02465
1741.15131,0.02513
1739.09078,0.02574
1737.03025,0.02651
1734.96971,0.02731
1732.90918,0.02833
1730.84864,0.02928
1728.78811,0.03024
1726.72758,0.03137
1724.66704,0.03274
1722.60651,0.03422
1720.54597,0.03563
1718.48544,0.03719
1716.42491,0.03912
1714.36437,0.04122
1712.30384,0.04335
1710.24330,0.04567
1708.18277,0.04811
1706.12224,0.05124
1704.06170,0.05476
1702.00117,0.05844
1699.94063,0.06397
1697.88010,0.07064
1695.81956,0.07826
1693.75903,0.08681
1691.69850,0.09487
1689.63796,0.10405
1687.57743,0.11376
1685.51689,0.12484
1683.45636,0.14035
1681.39583,0.15373
1679.33529,0.16422
1677.27476,0.17518
1675.21422,0.18898
1673.15369,0.20402
1671.09316,0.21924
1669.03262,0.23873
1666.97209,0.25958
1664.91155,0.28072
1662.85102,0.30818
1660.79048,0.33971
1658.72995,0.36879
1656.66942,0.39451
1654.60888,0.41993
1652.54835,0.44925
1650.48781,0.46663
1648.42728,0.47373
1646.36675,0.47697
1644.30621,0.47663
1642.24568,0.47449
1640.18514,0.47149
1638.12461,0.46768
1636.06408,0.46122
1634.00354,0.45276
1631.94301,0.44560
1629.88247,0.43678
1627.82194,0.42384
1625.76141,0.40820
1623.70087,0.38943
1621.64034,0.36929
1619.57980,0.35231
1617.51927,0.33371
1615.45873,0.31196
1613.39820,0.29425
1611.33767,0.27844
1609.27713,0.26200
1607.21660,0.24688
1605.15606,0.23458
1603.09553,0.22422
1601.03500,0.21518
1598.97446,0.20779
1596.91393,0.20208
1594.85339,0.19725
1592.79286,0.19317
1590.73233,0.19051
1588.67179,0.18950
1586.61126,0.18992
1584.55072,0.19141
1582.49019,0.19373
1580.42966,0.19675
1578.36912,0.20049
1576.30859,0.20556
1574.24805,0.21147
1572.18752,0.21709
1570.12698,0.22409
1568.06645,0.23270
1566.00592,0.24172
1563.94538,0.25153
1561.88485,0.26157
1559.82431,0.27723
1557.76378,0.30307
1555.70325,0.32460
1553.64271,0.34532
1551.58218,0.36808
1549.52164,0.39126
1547.46111,0.41188
1545.40058,0.42863
1543.34004,0.44238
1541.27951,0.45091
1539.21897,0.45074
1537.15844,0.44562
1535.09790,0.43785
1533.03737,0.42441
1530.97684,0.40961
1528.91630,0.39604
1526.85577,0.38096
1524.79523,0.36655
1522.73470,0.35428
1520.67417,0.34286
1518.61363,0.33443
1516.55310,0.32570
1514.49256,0.31399
1512.43203,0.30039
1510.37150,0.28619
1508.31096,0.27006
1506.25043,0.24782
1504.18989,0.23050
1502.12936,0.21969
1500.06883,0.20936
1498.00829,0.19768
1495.94776,0.18469
1493.88722,0.17354
1491.82669,0.16417
1489.76615,0.15394
1487.70562,0.14447
1485.64509,0.13797
1483.58455,0.13368
1481.52402,0.13097
1479.46348,0.12995
1477.40295,0.13093
1475.34242,0.13376
1473.28188,0.13824
1471.22135,0.14297
1469.16081,0.14577
1467.10028,0.14690
1465.03975,0.14773
1462.97921,0.14972
1460.91868,0.15287
1458.85814,0.15686
1456.79761,0.16140
1454.73707,0.16373
1452.67654,0.16366
1450.61601,0.16283
1448.55547,0.16185
1446.49494,0.16064
1444.43440,0.15931
1442.37387,0.15770
1440.31334,0.15555
1438.25280,0.15246
1436.19227,0.14778
1434.13173,0.14321
1432.07120,0.13993
1430.01067,0.13812
1427.95013,0.13869
1425.88960,0.14147
1423.82906,0.14565
1421.76853,0.15007
1419.70800,0.15417
1417.64746,0.15770
1415.58693,0.16050
1413.52639,0.16359
1411.46586,0.16784
1409.40532,0.17343
1407.34479,0.18008
1405.28426,0.18758
1403.22372,0.19479
1401.16319,0.20017
1399.10265,0.20339
1397.04212,0.20440
1394.98159,0.20311
1392.92105,0.19974
1390.86052,0.19517
1388.79998,0.18927
1386.73945,0.18156
1384.67892,0.17304
1382.61838,0.16412
1380.55785,0.15474
1378.49731,0.14622
1376.43678,0.13963
1374.37624,0.13487
1372.31571,0.13223
1370.25518,0.13139
1368.19464,0.13064
1366.13411,0.12892
1364.07357,0.12660
1362.01304,0.12435
1359.95251,0.12262
1357.89197,0.12132
1355.83144,0.12031
1353.77090,0.11967
1351.71037,0.11947
1349.64984,0.11971
1347.58930,0.12009
1345.52877,0.12035
1343.46823,0.12072
1341.40770,0.12129
1339.34717,0.12183
1337.28663,0.12237
1335.22610,0.12330
1333.16556,0.12478
1331.10503,0.12670
1329.04449,0.12917
1326.98396,0.13227
1324.92343,0.13574
1322.86289,0.13929
1320.80236,0.14280
1318.74182,0.14616
1316.68129,0.14915
1314.62076,0.15152
1312.56022,0.15323
1310.49969,0.15442
1308.43915,0.15530
1306.37862,0.15622
1304.31809,0.15738
1302.25755,0.15844
1300.19702,0.15901
1298.13648,0.15914
1296.07595,0.15899
1294.01542,0.15855
1291.95488,0.15782
1289.89435,0.15681
1287.83381,0.15549
1285.77328,0.15410
1283.71274,0.15274
1281.65221,0.15127
1279.59168,0.14976
1277.53114,0.14828
1275.47061,0.14694
1273.41007,0.14585
1271.34954,0.14499
1269.28901,0.14421
1267.22847,0.14339
1265.16794,0.14256
1263.10740,0.14178
1261.04687,0.14122
1258.98634,0.14086
1256.92580,0.14076
1254.86527,0.14111
1252.80473,0.14181
1250.74420,0.14257
1248.68366,0.14326
1246.62313,0.14386
1244.56260,0.14425
1242.50206,0.14391
1240.44153,0.14246
1238.38099,0.14003
1236.32046,0.13682
1234.25993,0.13283
1232.19939,0.12852
1230.13886,0.12443
1228.07832,0.12069
1226.01779,0.11728
1223.95726,0.11420
1221.89672,0.11159
1219.83619,0.10944
1217.77565,0.10754
1215.71512,0.10582
1213.65459,0.10438
1211.59405,0.10332
1209.53352,0.10263
1207.47298,0.10213
1205.41245,0.10158
1203.35191,0.10059
1201.29138,0.09936
1199.23085,0.09854
1197.17031,0.09817
1195.10978,0.09792
1193.04924,0.09771
1190.98871,0.09761
1188.92818,0.09763
1186.86764,0.09778
1184.80711,0.09818
1182.74657,0.09935
1180.68604,0.10152
1178.62551,0.10428
1176.56497,0.10722
1174.50444,0.10973
1172.44390,0.11089
1170.38337,0.11040
1168.32283,0.10904
1166.26230,0.10749
1164.20177,0.10578
1162.14123,0.10412
1160.08070,0.10260
1158.02016,0.10103
1155.95963,0.09956
1153.89910,0.09831
1151.83856,0.09706
1149.77803,0.09559
1147.71749,0.09394
1145.65696,0.09232
1143.59643,0.09116
1141.53589,0.09079
1139.47536,0.09131
1137.41482,0.09264
1135.35429,0.09459
1133.29376,0.09697
1131.23322,0.09941
1129.17269,0.10133
1127.11215,0.10265
1125.05162,0.10367
1122.99108,0.10434
1120.93055,0.10471
1118.87002,0.10498
1116.80948,0.10478
1114.74895,0.10407
1112.68841,0.10348
1110.62788,0.10317
1108.56735,0.10287
1106.50681,0.10247
1104.44628,0.10192
1102.38574,0.10109
1100.32521,0.10005
1098.26468,0.09918
1096.20414,0.09844
1094.14361,0.09786
1092.08307,0.09782
1090.02254,0.09812
1087.96201,0.09844
1085.90147,0.09880
1083.84094,0.09905
1081.78040,0.09902
1079.71987,0.09853
1077.65933,0.09752
1075.59880,0.09620
1073.53827,0.09467
1071.47773,0.09283
1069.41720,0.09101
1067.35666,0.08969
1065.29613,0.08880
1063.23560,0.08818
1061.17506,0.08807
1059.11453,0.08842
1057.05399,0.08870
1054.99346,0.08869
1052.93293,0.08844
1050.87239,0.08793
1048.81186,0.08709
1046.75132,0.08590
1044.69079,0.08472
1042.63025,0.08369
1040.56972,0.08269
1038.50919,0.08168
1036.44865,0.08067
1034.38812,0.07979
1032.32758,0.07912
1030.26705,0.07850
1028.20652,0.07777
1026.14598,0.07687
1024.08545,0.07604
1022.02491,0.07550
1019.96438,0.07521
1017.90385,0.07499
1015.84331,0.07454
1013.78278,0.07361
1011.72224,0.07246
1009.66171,0.07157
1007.60118,0.07093
1005.54064,0.07053
1003.48011,0.07033
1001.41957,0.07033
999.35904,0.07057
997.29850,0.07089
995.23797,0.07142
993.17744,0.07212
991.11690,0.07245
989.05637,0.07249
986.99583,0.07256
984.93530,0.07260
982.87477,0.07255
980.81423,0.07241
978.75370,0.07227
976.69316,0.07225
974.63263,0.07233
972.57210,0.07247
970.51156,0.07274
968.45103,0.07307
966.39049,0.07343
964.32996,0.07375
962.26942,0.07409
960.20889,0.07463
958.14836,0.07533
956.08782,0.07604
954.02729,0.07672
951.96675,0.07746
949.90622,0.07825
947.84569,0.07911
945.78515,0.08016
943.72462,0.08144
941.66408,0.08298
939.60355,0.08482
937.54302,0.08663
935.48248,0.08793
933.42195,0.08855
931.36141,0.08886
929.30088,0.08926
927.24035,0.08983
925.17981,0.09053
923.11928,0.09105
921.05874,0.09128
918.99821,0.09147
916.93767,0.09163
914.87714,0.09180
912.81661,0.09240
910.75607,0.09325
908.69554,0.09401
906.63500,0.09503
904.57447,0.09665
902.51394,0.09835
900.45340,0.09976
898.39287,0.10129
896.33233,0.10306
894.27180,0.10460
892.21127,0.10577
890.15073,0.10699
888.09020,0.10847
886.02966,0.10996
883.96913,0.11137
881.90859,0.11265
879.84806,0.11391
877.78753,0.11540
875.72699,0.11701
873.66646,0.11855
871.60592,0.11990
869.54539,0.12122
867.48486,0.12288
865.42432,0.12482
863.36379,0.12667
861.30325,0.12868
859.24272,0.13115
857.18219,0.13380
855.12165,0.13663
853.06112,0.13972
851.00058,0.14269
848.94005,0.14528
846.87952,0.14757
844.81898,0.14956
842.75845,0.15139
840.69791,0.15331
838.63738,0.15551
836.57684,0.15789
834.51631,0.16038
832.45578,0.16309
830.39524,0.16559
828.33471,0.16748
826.27417,0.16902
824.21364,0.17051
822.15311,0.17204
820.09257,0.17373
818.03204,0.17555
815.97150,0.17732
813.91097,0.17913
811.85044,0.18144
809.78990,0.18394
807.72937,0.18607
805.66883,0.18814
803.60830,0.19043
801.54777,0.19284
799.48723,0.19522
797.42670,0.19754
795.36616,0.20012
793.30563,0.20295
791.24509,0.20543
789.18456,0.20759
787.12403,0.20991
785.06349,0.21249
783.00296,0.21499
780.94242,0.21728
778.88189,0.21993
776.82136,0.22292
774.76082,0.22572
772.70029,0.22825
770.63975,0.23069
768.57922,0.23316
766.51869,0.23574
764.45815,0.23843
762.39762,0.24076
760.33708,0.24264
758.27655,0.24505
756.21601,0.24853
754.15548,0.25207
752.09495,0.25483
750.03441,0.25778
747.97388,0.26166
745.91334,0.26511
743.85281,0.26731
741.79228,0.26912
739.73174,0.27091
737.67121,0.27262
735.61067,0.27459
733.55014,0.27678
731.48961,0.27868
729.42907,0.28051
727.36854,0.28290
725.30800,0.28541
723.24747,0.28775
721.18694,0.29066
719.12640,0.29407
717.06587,0.29748
715.00533,0.30076
712.94480,0.30367
710.88426,0.30667
708.82373,0.31024
706.76320,0.31436
704.70266,0.31927
702.64213,0.32485
700.58159,0.32989
698.52106,0.33331
696.46053,0.33515
694.39999,0.33594
692.33946,0.33644
690.27892,0.33720
688.21839,0.33828
686.15786,0.34027
684.09732,0.34351
682.03679,0.34705
679.97625,0.34945
677.91572,0.35095
675.85518,0.35344
673.79465,0.35708
671.73412,0.35994
669.67358,0.36246
667.61305,0.36701
665.55251,0.37100
663.49198,0.37381
661.43145,0.37670
659.37091,0.37888
657.31038,0.38065
655.24984,0.38280
653.18931,0.38518
651.12878,0.38718
649.06824,0.38858
647.00771,0.38978
644.94717,0.39049
642.88664,0.39120
640.82611,0.39328
638.76557,0.39598
636.70504,0.39822
634.64450,0.40099
632.58397,0.40491
630.52343,0.40889
628.46290,0.41205
626.40237,0.41511
624.34183,0.41892
622.28130,0.42228
620.22076,0.42419
618.16023,0.42554
616.09970,0.42684
614.03916,0.42866
611.97863,0.43155
609.91809,0.43410
607.85756,0.43596
605.79703,0.43745
603.73649,0.43733
601.67596,0.43659
599.61542,0.43757
597.55489,0.44012
595.49436,0.44289
593.43382,0.44483
591.37329,0.44613
589.31275,0.44819
587.25222,0.45019
585.19168,0.45004
583.13115,0.44883
581.07062,0.44908
579.01008,0.45076
576.94955,0.45136
574.88901,0.45114
572.82848,0.45225
570.76795,0.45388
568.70741,0.45600
566.64688,0.45939
564.58634,0.46215
562.52581,0.46325
560.46528,0.46431
558.40474,0.46625
556.34421,0.46828
554.28367,0.47002
552.22314,0.47142
550.16260,0.47249
548.10207,0.47445
546.04154,0.47623
543.98100,0.47648
541.92047,0.47696
539.85993,0.47736
537.79940,0.47751
535.73887,0.47933
533.67833,0.48265
531.61780,0.48461
529.55726,0.48402
527.49673,0.48235
525.43620,0.48175
523.37566,0.48495
521.31513,0.48984
519.25459,0.49167
517.19406,0.49065
515.13353,0.49051
513.07299,0.49128
511.01246,0.49013
508.95192,0.48788
506.89139,0.48748
504.83085,0.48868
502.77032,0.48965
500.70979,0.48994
498.64925,0.48966
496.58872,0.49085
494.52818,0.49492
492.46765,0.49818
490.40712,0.49576
488.34658,0.49112
486.28605,0.49117
484.22551,0.49457
482.16498,0.49637
480.10445,0.49590
478.04391,0.49597
475.98338,0.49621
473.92284,0.49683
471.86231,0.50176
469.80177,0.50561
467.74124,0.50438
465.68071,0.50346
463.62017,0.50246
461.55964,0.49981
459.49910,0.49820
457.43857,0.49671
455.37804,0.49586
453.31750,0.49799
451.25697,0.50109
449.19643,0.50186
447.13590,0.49799
445.07537,0.49174
443.01483,0.48858
440.95430,0.48778
438.89376,0.48519
436.83323,0.48287
434.77270,0.48359
432.71216,0.48630
430.65163,0.49040
428.59109,0.49467
426.53056,0.49833
424.47002,0.50225
422.40949,0.50199
420.34896,0.49565
418.28842,0.49003
416.22789,0.49089
414.16735,0.49872
412.10682,0.50689
410.04629,0.50762
407.98575,0.50623
405.92522,0.50954
403.86468,0.51066
401.80415,0.50357
399.74362,0.49676
