4996.79519,0.02116
4994.73466,0.02191
4992.67413,0.02224
4990.61359,0.02231
4988.55306,0.02269
4986.49252,0.02267
4984.43199,0.02222
4982.37145,0.02184
4980.31092,0.02106
4978.25039,0.02005
4976.18985,0.01994
4974.12932,0.02066
4972.06878,0.02147
4970.00825,0.02214
4967.94772,0.02232
4965.88718,0.02247
4963.82665,0.02303
4961.76611,0.02297
4959.70558,0.02211
4957.64505,0.02167
4955.58451,0.02149
4953.52398,0.02117
4951.46344,0.02142
4949.40291,0.02197
4947.34238,0.02205
4945.28184,0.02220
4943.22131,0.02284
4941.16077,0.02291
4939.10024,0.02225
4937.03970,0.02187
4934.97917,0.02163
4932.91864,0.02156
4930.85810,0.02191
4928.79757,0.02214
4926.73703,0.02210
4924.67650,0.02188
4922.61597,0.02134
4920.55543,0.02081
4918.49490,0.02079
4916.43436,0.02107
4914.37383,0.02137
4912.31330,0.02182
4910.25276,0.02200
4908.19223,0.02148
4906.13169,0.02112
4904.07116,0.02159
4902.01062,0.02230
4899.95009,0.02289
4897.88956,0.02337
4895.82902,0.02325
4893.76849,0.02243
4891.70795,0.02179
4889.64742,0.02162
4887.58689,0.02167
4885.52635,0.02179
4883.46582,0.02213
4881.40528,0.02235
4879.34475,0.02171
4877.28422,0.02111
4875.22368,0.02147
4873.16315,0.02197
4871.10261,0.02195
4869.04208,0.02190
4866.98155,0.02200
4864.92101,0.02192
4862.86048,0.02176
4860.79994,0.02165
4858.73941,0.02173
4856.67887,0.02222
4854.61834,0.02270
4852.55781,0.02265
4850.49727,0.02233
4848.43674,0.02216
4846.37620,0.02230
4844.31567,0.02257
4842.25514,0.02245
4840.19460,0.02186
4838.13407,0.02159
4836.07353,0.02200
4834.01300,0.02223
4831.95247,0.02169
4829.89193,0.02121
4827.83140,0.02179
4825.77086,0.02245
4823.71033,0.02211
4821.64979,0.02175
4819.58926,0.02200
4817.52873,0.02222
4815.46819,0.02209
4813.40766,0.02181
4811.34712,0.02185
4809.28659,0.02226
4807.22606,0.02268
4805.16552,0.02282
4803.10499,0.02249
4801.04445,0.02203
4798.98392,0.02168
4796.92339,0.02135
4794.86285,0.02108
4792.80232,0.02102
4790.74178,0.02146
4788.68125,0.02205
4786.62072,0.02221
4784.56018,0.02203
4782.49965,0.02210
4780.43911,0.02254
4778.37858,0.02266
4776.31804,0.02243
4774.25751,0.02236
4772.19698,0.02253
4770.13644,0.02272
4768.07591,0.02269
4766.01537,0.02265
4763.95484,0.02277
4761.89431,0.02279
4759.83377,0.02251
4757.77324,0.02223
4755.71270,0.02243
4753.65217,0.02308
4751.59164,0.02353
4749.53110,0.02322
4747.47057,0.02244
4745.41003,0.02189
4743.34950,0.02165
4741.28897,0.02151
4739.22843,0.02174
4737.16790,0.02219
4735.10736,0.02242
4733.04683,0.02235
4730.98629,0.02212
4728.92576,0.02201
4726.86523,0.02197
4724.80469,0.02196
4722.74416,0.02201
4720.68362,0.02186
4718.62309,0.02149
4716.56256,0.02105
4714.50202,0.02078
4712.44149,0.02096
4710.38095,0.02144
4708.32042,0.02171
4706.25989,0.02158
4704.19935,0.02150
4702.13882,0.02192
4700.07828,0.02255
4698.01775,0.02273
4695.95721,0.02252
4693.89668,0.02217
4691.83615,0.02161
4689.77561,0.02102
4687.71508,0.02100
4685.65454,0.02170
4683.59401,0.02240
4681.53348,0.02245
4679.47294,0.02234
4677.41241,0.02264
4675.35187,0.02280
4673.29134,0.02233
4671.23081,0.02170
4669.17027,0.02165
4667.10974,0.02217
4665.04920,0.02254
4662.98867,0.02235
4660.92814,0.02223
4658.86760,0.02235
4656.80707,0.02209
4654.74653,0.02191
4652.68600,0.02209
4650.62546,0.02224
4648.56493,0.02240
4646.50440,0.02242
4644.44386,0.02195
4642.38333,0.02156
4640.32279,0.02171
4638.26226,0.02175
4636.20173,0.02157
4634.14119,0.02166
4632.08066,0.02227
4630.02012,0.02324
4627.95959,0.02359
4625.89906,0.02298
4623.83852,0.02243
4621.77799,0.02219
4619.71745,0.02224
4617.65692,0.02270
4615.59638,0.02293
4613.53585,0.02268
4611.47532,0.02250
4609.41478,0.02262
4607.35425,0.02270
4605.29371,0.02248
4603.23318,0.02212
4601.17265,0.02182
4599.11211,0.02174
4597.05158,0.02195
4594.99104,0.02203
4592.93051,0.02186
4590.86998,0.02169
4588.80944,0.02148
4586.74891,0.02143
4584.68837,0.02166
4582.62784,0.02211
4580.56731,0.02262
4578.50677,0.02258
4576.44624,0.02208
4574.38570,0.02191
4572.32517,0.02219
4570.26463,0.02218
4568.20410,0.02175
4566.14357,0.02169
4564.08303,0.02193
4562.02250,0.02197
4559.96196,0.02222
4557.90143,0.02270
4555.84090,0.02266
4553.78036,0.02213
4551.71983,0.02182
4549.65929,0.02185
4547.59876,0.02203
4545.53823,0.02223
4543.47769,0.02227
4541.41716,0.02244
4539.35662,0.02278
4537.29609,0.02286
4535.23556,0.02274
4533.17502,0.02267
4531.11449,0.02266
4529.05395,0.02270
4526.99342,0.02258
4524.93288,0.02224
4522.87235,0.02207
4520.81182,0.02205
4518.75128,0.02193
4516.69075,0.02182
4514.63021,0.02198
4512.56968,0.02214
4510.50915,0.02189
4508.44861,0.02156
4506.38808,0.02193
4504.32754,0.02294
4502.26701,0.02356
4500.20648,0.02314
4498.14594,0.02234
4496.08541,0.02191
4494.02487,0.02187
4491.96434,0.02188
4489.90380,0.02175
4487.84327,0.02160
4485.78274,0.02168
4483.72220,0.02183
4481.66167,0.02178
4479.60113,0.02163
4477.54060,0.02167
4475.48007,0.02196
4473.41953,0.02213
4471.35900,0.02209
4469.29846,0.02220
4467.23793,0.02203
4465.17740,0.02130
4463.11686,0.02088
4461.05633,0.02127
4458.99579,0.02183
4456.93526,0.02211
4454.87473,0.02244
4452.81419,0.02301
4450.75366,0.02350
4448.69312,0.02339
4446.63259,0.02273
4444.57205,0.02213
4442.51152,0.02175
4440.45099,0.02159
4438.39045,0.02195
4436.32992,0.02261
4434.26938,0.02267
4432.20885,0.02213
4430.14832,0.02196
4428.08778,0.02238
4426.02725,0.02275
4423.96671,0.02286
4421.90618,0.02289
4419.84565,0.02280
4417.78511,0.02229
4415.72458,0.02164
4413.66404,0.02150
4411.60351,0.02164
4409.54297,0.02164
4407.48244,0.02196
4405.42191,0.02248
4403.36137,0.02263
4401.30084,0.02280
4399.24030,0.02302
4397.17977,0.02294
4395.11924,0.02281
4393.05870,0.02279
4390.99817,0.02277
4388.93763,0.02287
4386.87710,0.02304
4384.81657,0.02313
4382.75603,0.02294
4380.69550,0.02249
4378.63496,0.02222
4376.57443,0.02206
4374.51390,0.02195
4372.45336,0.02198
4370.39283,0.02201
4368.33229,0.02215
4366.27176,0.02240
4364.21122,0.02265
4362.15069,0.02271
4360.09016,0.02244
4358.02962,0.02218
4355.96909,0.02226
4353.90855,0.02252
4351.84802,0.02286
4349.78749,0.02283
4347.72695,0.02217
4345.66642,0.02175
4343.60588,0.02199
4341.54535,0.02213
4339.48482,0.02200
4337.42428,0.02219
4335.36375,0.02252
4333.30321,0.02260
4331.24268,0.02241
4329.18214,0.02189
4327.12161,0.02151
4325.06108,0.02188
4323.00054,0.02280
4320.94001,0.02337
4318.87947,0.02298
4316.81894,0.02227
4314.75841,0.02225
4312.69787,0.02262
4310.63734,0.02263
4308.57680,0.02238
4306.51627,0.02231
4304.45574,0.02231
4302.39520,0.02218
4300.33467,0.02200
4298.27413,0.02205
4296.21360,0.02251
4294.15307,0.02299
4292.09253,0.02316
4290.03200,0.02320
4287.97146,0.02287
4285.91093,0.02224
4283.85039,0.02199
4281.78986,0.02207
4279.72933,0.02201
4277.66879,0.02170
4275.60826,0.02143
4273.54772,0.02158
4271.48719,0.02182
4269.42666,0.02182
4267.36612,0.02162
4265.30559,0.02144
4263.24505,0.02169
4261.18452,0.02219
4259.12399,0.02243
4257.06345,0.02261
4255.00292,0.02273
4252.94238,0.02256
4250.88185,0.02249
4248.82132,0.02257
4246.76078,0.02259
4244.70025,0.02265
4242.63971,0.02262
4240.57918,0.02237
4238.51864,0.02206
4236.45811,0.02195
4234.39758,0.02203
4232.33704,0.02217
4230.27651,0.02228
4228.21597,0.02216
4226.15544,0.02188
4224.09491,0.02171
4222.03437,0.02190
4219.97384,0.02218
4217.91330,0.02215
4215.85277,0.02192
4213.79224,0.02179
4211.73170,0.02187
4209.67117,0.02194
4207.61063,0.02196
4205.55010,0.02208
4203.48956,0.02202
4201.42903,0.02171
4199.36850,0.02168
4197.30796,0.02191
4195.24743,0.02201
4193.18689,0.02197
4191.12636,0.02178
4189.06583,0.02155
4187.00529,0.02173
4184.94476,0.02213
4182.88422,0.02228
4180.82369,0.02235
4178.76316,0.02254
4176.70262,0.02241
4174.64209,0.02200
4172.58155,0.02175
4170.52102,0.02170
4168.46049,0.02185
4166.39995,0.02205
4164.33942,0.02219
4162.27888,0.02227
4160.21835,0.02210
4158.15781,0.02209
4156.09728,0.02246
4154.03675,0.02258
4151.97621,0.02213
4149.91568,0.02175
4147.85514,0.02165
4145.79461,0.02154
4143.73408,0.02169
4141.67354,0.02183
4139.61301,0.02182
4137.55247,0.02198
4135.49194,0.02207
4133.43141,0.02218
4131.37087,0.02258
4129.31034,0.02271
4127.24980,0.02226
4125.18927,0.02179
4123.12873,0.02171
4121.06820,0.02200
4119.00767,0.02240
4116.94713,0.02257
4114.88660,0.02241
4112.82606,0.02222
4110.76553,0.02236
4108.70500,0.02274
4106.64446,0.02286
4104.58393,0.02235
4102.52339,0.02170
4100.46286,0.02148
4098.40233,0.02169
4096.34179,0.02211
4094.28126,0.02236
4092.22072,0.02222
4090.16019,0.02201
4088.09966,0.02216
4086.03912,0.02242
4083.97859,0.02246
4081.91805,0.02249
4079.85752,0.02254
4077.79698,0.02233
4075.73645,0.02192
4073.67592,0.02180
4071.61538,0.02189
4069.55485,0.02173
4067.49431,0.02161
4065.43378,0.02157
4063.37325,0.02136
4061.31271,0.02148
4059.25218,0.02188
4057.19164,0.02188
4055.13111,0.02183
4053.07058,0.02214
4051.01004,0.02230
4048.94951,0.02201
4046.88897,0.02173
4044.82844,0.02175
4042.76791,0.02191
4040.70737,0.02201
4038.64684,0.02206
4036.58630,0.02216
4034.52577,0.02215
4032.46523,0.02190
4030.40470,0.02163
4028.34417,0.02159
4026.28363,0.02177
4024.22310,0.02183
4022.16256,0.02179
4020.10203,0.02195
4018.04150,0.02218
4015.98096,0.02216
4013.92043,0.02200
4011.85989,0.02184
4009.79936,0.02167
4007.73883,0.02153
4005.67829,0.02148
4003.61776,0.02142
4001.55722,0.02152
3999.49669,0.02193
3997.43615,0.02236
3995.37562,0.02228
3993.31509,0.02183
3991.25455,0.02170
3989.19402,0.02195
3987.13348,0.02202
3985.07295,0.02183
3983.01242,0.02185
3980.95188,0.02213
3978.89135,0.02231
3976.83081,0.02221
3974.77028,0.02182
3972.70975,0.02144
3970.64921,0.02153
3968.58868,0.02186
3966.52814,0.02208
3964.46761,0.02211
3962.40708,0.02199
3960.34654,0.02194
3958.28601,0.02187
3956.22547,0.02174
3954.16494,0.02170
3952.10440,0.02171
3950.04387,0.02179
3947.98334,0.02190
3945.92280,0.02175
3943.86227,0.02157
3941.80173,0.02161
3939.74120,0.02158
3937.68067,0.02167
3935.62013,0.02210
3933.55960,0.02240
3931.49906,0.02241
3929.43853,0.02236
3927.37800,0.02219
3925.31746,0.02188
3923.25693,0.02174
3921.19639,0.02183
3919.13586,0.02185
3917.07532,0.02169
3915.01479,0.02158
3912.95426,0.02156
3910.89372,0.02141
3908.83319,0.02120
3906.77265,0.02121
3904.71212,0.02140
3902.65159,0.02150
3900.59105,0.02137
3898.53052,0.02131
3896.46998,0.02135
3894.40945,0.02129
3892.34892,0.02130
3890.28838,0.02157
3888.22785,0.02159
3886.16731,0.02115
3884.10678,0.02098
3882.04625,0.02134
3879.98571,0.02170
3877.92518,0.02174
3875.86464,0.02166
3873.80411,0.02177
3871.74357,0.02188
3869.68304,0.02177
3867.62251,0.02169
3865.56197,0.02172
3863.50144,0.02169
3861.44090,0.02147
3859.38037,0.02118
3857.31984,0.02108
3855.25930,0.02115
3853.19877,0.02141
3851.13823,0.02173
3849.07770,0.02155
3847.01717,0.02142
3844.95663,0.02182
3842.89610,0.02212
3840.83556,0.02170
3838.77503,0.02092
3836.71449,0.02051
3834.65396,0.02075
3832.59343,0.02111
3830.53289,0.02113
3828.47236,0.02109
3826.41182,0.02132
3824.35129,0.02165
3822.29076,0.02165
3820.23022,0.02110
3818.16969,0.02060
3816.10915,0.02055
3814.04862,0.02076
3811.98809,0.02095
3809.92755,0.02099
3807.86702,0.02078
3805.80648,0.02070
3803.74595,0.02114
3801.68542,0.02160
3799.62488,0.02147
3797.56435,0.02112
3795.50381,0.02089
3793.44328,0.02092
3791.38274,0.02102
3789.32221,0.02107
3787.26168,0.02121
3785.20114,0.02117
3783.14061,0.02096
3781.08007,0.02093
3779.01954,0.02110
3776.95901,0.02120
3774.89847,0.02087
3772.83794,0.02028
3770.77740,0.02009
3768.71687,0.02047
3766.65634,0.02066
3764.59580,0.02050
3762.53527,0.02058
3760.47473,0.02070
3758.41420,0.02041
3756.35367,0.02014
3754.29313,0.02025
3752.23260,0.02057
3750.17206,0.02089
3748.11153,0.02103
3746.05099,0.02084
3743.99046,0.02037
3741.92993,0.02015
3739.86939,0.02027
3737.80886,0.02048
3735.74832,0.02073
3733.68779,0.02084
3731.62726,0.02062
3729.56672,0.02060
3727.50619,0.02078
3725.44565,0.02082
3723.38512,0.02066
3721.32459,0.02031
3719.26405,0.02002
3717.20352,0.01995
3715.14298,0.01998
3713.08245,0.02000
3711.02191,0.01984
3708.96138,0.01969
3706.90085,0.01994
3704.84031,0.02057
3702.77978,0.02096
3700.71924,0.02055
3698.65871,0.01984
3696.59818,0.01957
3694.53764,0.01984
3692.47711,0.02039
3690.41657,0.02098
3688.35604,0.02129
3686.29551,0.02112
3684.23497,0.02075
3682.17444,0.02052
3680.11390,0.02044
3678.05337,0.02053
3675.99284,0.02088
3673.93230,0.02097
3671.87177,0.02085
3669.81123,0.02090
3667.75070,0.02112
3665.69016,0.02127
3663.62963,0.02112
3661.56910,0.02082
3659.50856,0.02074
3657.44803,0.02078
3655.38749,0.02077
3653.32696,0.02077
3651.26643,0.02076
3649.20589,0.02100
3647.14536,0.02130
3645.08482,0.02125
3643.02429,0.02125
3640.96376,0.02150
3638.90322,0.02182
3636.84269,0.02209
3634.78215,0.02239
3632.72162,0.02277
3630.66108,0.02304
3628.60055,0.02306
3626.54002,0.02305
3624.47948,0.02311
3622.41895,0.02304
3620.35841,0.02281
3618.29788,0.02283
3616.23735,0.02323
3614.17681,0.02328
3612.11628,0.02300
3610.05574,0.02309
3607.99521,0.02343
3605.93468,0.02387
3603.87414,0.02435
3601.81361,0.02463
3599.75307,0.02478
3597.69254,0.02506
3595.63201,0.02544
3593.57147,0.02564
3591.51094,0.02564
3589.45040,0.02559
3587.38987,0.02560
3585.32933,0.02584
3583.26880,0.02623
3581.20827,0.02655
3579.14773,0.02672
3577.08720,0.02684
3575.02666,0.02695
3572.96613,0.02698
3570.90560,0.02712
3568.84506,0.02773
3566.78453,0.02850
3564.72399,0.02880
3562.66346,0.02875
3560.60293,0.02855
3558.54239,0.02837
3556.48186,0.02848
3554.42132,0.02890
3552.36079,0.02943
3550.30026,0.02976
3548.23972,0.02987
3546.17919,0.03001
3544.11865,0.03030
3542.05812,0.03085
3539.99758,0.03134
3537.93705,0.03131
3535.87652,0.03135
3533.81598,0.03186
3531.75545,0.03203
3529.69491,0.03175
3527.63438,0.03183
3525.57385,0.03248
3523.51331,0.03308
3521.45278,0.03321
3519.39224,0.03323
3517.33171,0.03358
3515.27118,0.03417
3513.21064,0.03466
3511.15011,0.03483
3509.08957,0.03480
3507.02904,0.03476
3504.96850,0.03481
3502.90797,0.03497
3500.84744,0.03518
3498.78690,0.03551
3496.72637,0.03597
3494.66583,0.03614
3492.60530,0.03596
3490.54477,0.03593
3488.48423,0.03636
3486.42370,0.03694
3484.36316,0.03724
3482.30263,0.03732
3480.24210,0.03740
3478.18156,0.03752
3476.12103,0.03769
3474.06049,0.03790
3471.99996,0.03802
3469.93943,0.03803
3467.87889,0.03819
3465.81836,0.03854
3463.75782,0.03878
3461.69729,0.03875
3459.63675,0.03878
3457.57622,0.03904
3455.51569,0.03932
3453.45515,0.03960
3451.39462,0.03990
3449.33408,0.04020
3447.27355,0.04031
3445.21302,0.04042
3443.15248,0.04085
3441.09195,0.04130
3439.03141,0.04140
3436.97088,0.04120
3434.91035,0.04099
3432.84981,0.04117
3430.78928,0.04177
3428.72874,0.04230
3426.66821,0.04247
3424.60767,0.04246
3422.54714,0.04245
3420.48661,0.04256
3418.42607,0.04309
3416.36554,0.04398
3414.30500,0.04466
3412.24447,0.04481
3410.18394,0.04476
3408.12340,0.04476
3406.06287,0.04473
3404.00233,0.04494
3401.94180,0.04544
3399.88127,0.04588
3397.82073,0.04614
3395.76020,0.04639
3393.69966,0.04681
3391.63913,0.04745
3389.57860,0.04794
3387.51806,0.04802
3385.45753,0.04808
3383.39699,0.04844
3381.33646,0.04894
3379.27592,0.04932
3377.21539,0.04965
3375.15486,0.05001
3373.09432,0.05028
3371.03379,0.05052
3368.97325,0.05093
3366.91272,0.05138
3364.85219,0.05174
3362.79165,0.05227
3360.73112,0.05289
3358.67058,0.05328
3356.61005,0.05359
3354.54952,0.05405
3352.48898,0.05459
3350.42845,0.05514
3348.36791,0.05578
3346.30738,0.05649
3344.24684,0.05701
3342.18631,0.05740
3340.12578,0.05786
3338.06524,0.05844
3336.00471,0.05885
3333.94417,0.05886
3331.88364,0.05888
3329.82311,0.05946
3327.76257,0.06036
3325.70204,0.06091
3323.64150,0.06127
3321.58097,0.06194
3319.52044,0.06258
3317.45990,0.06287
3315.39937,0.06305
3313.33883,0.06353
3311.27830,0.06451
3309.21777,0.06544
3307.15723,0.06581
3305.09670,0.06596
3303.03616,0.06610
3300.97563,0.06647
3298.91509,0.06729
3296.85456,0.06801
3294.79403,0.06841
3292.73349,0.06864
3290.67296,0.06854
3288.61242,0.06843
3286.55189,0.06867
3284.49136,0.06880
3282.43082,0.06869
3280.37029,0.06857
3278.30975,0.06857
3276.24922,0.06898
3274.18869,0.06937
3272.12815,0.06929
3270.06762,0.06906
3268.00708,0.06883
3265.94655,0.06855
3263.88602,0.06825
3261.82548,0.06786
3259.76495,0.06744
3257.70441,0.06714
3255.64388,0.06695
3253.58334,0.06679
3251.52281,0.06648
3249.46228,0.06592
3247.40174,0.06530
3245.34121,0.06494
3243.28067,0.06483
3241.22014,0.06459
3239.15961,0.06411
3237.09907,0.06358
3235.03854,0.06328
3232.97800,0.06313
3230.91747,0.06288
3228.85694,0.06270
3226.79640,0.06253
3224.73587,0.06200
3222.67533,0.06147
3220.61480,0.06145
3218.55426,0.06159
3216.49373,0.06161
3214.43320,0.06166
3212.37266,0.06154
3210.31213,0.06116
3208.25159,0.06093
3206.19106,0.06090
3204.13053,0.06092
3202.06999,0.06093
3200.00946,0.06075
3197.94892,0.06063
3195.88839,0.06061
3193.82786,0.06032
3191.76732,0.06008
3189.70679,0.06025
3187.64625,0.06031
3185.58572,0.05989
3183.52519,0.05942
3181.46465,0.05930
3179.40412,0.05942
3177.34358,0.05935
3175.28305,0.05891
3173.22251,0.05851
3171.16198,0.05854
3169.10145,0.05866
3167.04091,0.05838
3164.98038,0.05794
3162.91984,0.05768
3160.85931,0.05749
3158.79878,0.05717
3156.73824,0.05686
3154.67771,0.05673
3152.61717,0.05667
3150.55664,0.05656
3148.49611,0.05633
3146.43557,0.05590
3144.37504,0.05532
3142.31450,0.05484
3140.25397,0.05448
3138.19343,0.05423
3136.13290,0.05420
3134.07237,0.05432
3132.01183,0.05427
3129.95130,0.05400
3127.89076,0.05387
3125.83023,0.05387
3123.76970,0.05376
3121.70916,0.05380
3119.64863,0.05404
3117.58809,0.05401
3115.52756,0.05349
3113.46703,0.05290
3111.40649,0.05295
3109.34596,0.05343
3107.28542,0.05338
3105.22489,0.05297
3103.16436,0.05290
3101.10382,0.05296
3099.04329,0.05276
3096.98275,0.05242
3094.92222,0.05223
3092.86168,0.05227
3090.80115,0.05229
3088.74062,0.05231
3086.68008,0.05249
3084.61955,0.05264
3082.55901,0.05276
3080.49848,0.05305
3078.43795,0.05328
3076.37741,0.05316
3074.31688,0.05292
3072.25634,0.05296
3070.19581,0.05324
3068.13528,0.05353
3066.07474,0.05372
3064.01421,0.05373
3061.95367,0.05359
3059.89314,0.05356
3057.83261,0.05369
3055.77207,0.05369
3053.71154,0.05353
3051.65100,0.05340
3049.59047,0.05332
3047.52993,0.05333
3045.46940,0.05351
3043.40887,0.05368
3041.34833,0.05347
3039.28780,0.05291
3037.22726,0.05260
3035.16673,0.05275
3033.10620,0.05295
3031.04566,0.05300
3028.98513,0.05293
3026.92459,0.05271
3024.86406,0.05245
3022.80353,0.05213
3020.74299,0.05184
3018.68246,0.05171
3016.62192,0.05170
3014.56139,0.05169
3012.50085,0.05149
3010.44032,0.05101
3008.37979,0.05064
3006.31925,0.05060
3004.25872,0.05058
3002.19818,0.05028
3000.13765,0.04993
2998.07712,0.04995
2996.01658,0.05036
2993.95605,0.05076
2991.89551,0.05084
2989.83498,0.05085
2987.77445,0.05106
2985.71391,0.05141
2983.65338,0.05187
2981.59284,0.05240
2979.53231,0.05307
2977.47178,0.05371
2975.41124,0.05427
2973.35071,0.05499
2971.29017,0.05578
2969.22964,0.05663
2967.16910,0.05755
2965.10857,0.05831
2963.04804,0.05898
2960.98750,0.05965
2958.92697,0.06022
2956.86643,0.06049
2954.80590,0.06063
2952.74537,0.06069
2950.68483,0.06036
2948.62430,0.05999
2946.56376,0.06007
2944.50323,0.06022
2942.44270,0.06020
2940.38216,0.06040
2938.32163,0.06077
2936.26109,0.06110
2934.20056,0.06141
2932.14002,0.06173
2930.07949,0.06195
2928.01896,0.06189
2925.95842,0.06154
2923.89789,0.06111
2921.83735,0.06078
2919.77682,0.06063
2917.71629,0.06054
2915.65575,0.06026
2913.59522,0.05971
2911.53468,0.05907
2909.47415,0.05837
2907.41362,0.05766
2905.35308,0.05708
2903.29255,0.05665
2901.23201,0.05631
2899.17148,0.05590
2897.11095,0.05548
2895.05041,0.05512
2892.98988,0.05463
2890.92934,0.05404
2888.86881,0.05375
2886.80827,0.05379
2884.74774,0.05369
2882.68721,0.05347
2880.62667,0.05363
2878.56614,0.05411
2876.50560,0.05454
2874.44507,0.05492
2872.38454,0.05522
2870.32400,0.05528
2868.26347,0.05513
2866.20293,0.05480
2864.14240,0.05439
2862.08187,0.05403
2860.02133,0.05372
2857.96080,0.05344
2855.90026,0.05315
2853.83973,0.05275
2851.77919,0.05218
2849.71866,0.05156
2847.65813,0.05099
2845.59759,0.05028
2843.53706,0.04954
2841.47652,0.04916
2839.41599,0.04913
2837.35546,0.04907
2835.29492,0.04867
2833.23439,0.04802
2831.17385,0.04753
2829.11332,0.04735
2827.05279,0.04729
2824.99225,0.04724
2822.93172,0.04713
2820.87118,0.04699
2818.81065,0.04691
2816.75012,0.04683
2814.68958,0.04677
2812.62905,0.04673
2810.56851,0.04652
2808.50798,0.04616
2806.44744,0.04600
2804.38691,0.04595
2802.32638,0.04567
2800.26584,0.04538
2798.20531,0.04515
2796.14477,0.04475
2794.08424,0.04440
2792.02371,0.04434
2789.96317,0.04435
2787.90264,0.04427
2785.84210,0.04414
2783.78157,0.04394
2781.72104,0.04383
2779.66050,0.04402
2777.59997,0.04423
2775.53943,0.04425
2773.47890,0.04422
2771.41837,0.04407
2769.35783,0.04372
2767.29730,0.04341
2765.23676,0.04330
2763.17623,0.04328
2761.11569,0.04314
2759.05516,0.04295
2756.99463,0.04277
2754.93409,0.04253
2752.87356,0.04236
2750.81302,0.04235
2748.75249,0.04229
2746.69196,0.04210
2744.63142,0.04194
2742.57089,0.04196
2740.51035,0.04197
2738.44982,0.04179
2736.38929,0.04164
2734.32875,0.04164
2732.26822,0.04156
2730.20768,0.04133
2728.14715,0.04125
2726.08661,0.04126
2724.02608,0.04097
2721.96555,0.04059
2719.90501,0.04043
2717.84448,0.04053
2715.78394,0.04069
2713.72341,0.04060
2711.66288,0.04032
2709.60234,0.04019
2707.54181,0.04021
2705.48127,0.04013
2703.42074,0.03989
2701.36021,0.03965
2699.29967,0.03944
2697.23914,0.03931
2695.17860,0.03928
2693.11807,0.03930
2691.05754,0.03926
2688.99700,0.03912
2686.93647,0.03912
2684.87593,0.03933
2682.81540,0.03941
2680.75486,0.03927
2678.69433,0.03907
2676.63380,0.03897
2674.57326,0.03899
2672.51273,0.03897
2670.45219,0.03893
2668.39166,0.03901
2666.33113,0.03908
2664.27059,0.03893
2662.21006,0.03876
2660.14952,0.03863
2658.08899,0.03842
2656.02846,0.03827
2653.96792,0.03827
2651.90739,0.03846
2649.84685,0.03860
2647.78632,0.03836
2645.72578,0.03787
2643.66525,0.03748
2641.60472,0.03740
2639.54418,0.03750
2637.48365,0.03764
2635.42311,0.03770
2633.36258,0.03757
2631.30205,0.03739
2629.24151,0.03743
2627.18098,0.03748
2625.12044,0.03734
2623.05991,0.03731
2620.99938,0.03737
2618.93884,0.03725
2616.87831,0.03699
2614.81777,0.03676
2612.75724,0.03668
2610.69671,0.03674
2608.63617,0.03664
2606.57564,0.03643
2604.51510,0.03634
2602.45457,0.03622
2600.39403,0.03602
2598.33350,0.03595
2596.27297,0.03598
2594.21243,0.03565
2592.15190,0.03529
2590.09136,0.03544
2588.03083,0.03566
2585.97030,0.03569
2583.90976,0.03582
2581.84923,0.03583
2579.78869,0.03562
2577.72816,0.03550
2575.66763,0.03534
2573.60709,0.03516
2571.54656,0.03524
2569.48602,0.03530
2567.42549,0.03508
2565.36496,0.03479
2563.30442,0.03468
2561.24389,0.03487
2559.18335,0.03515
2557.12282,0.03517
2555.06228,0.03501
2553.00175,0.03482
2550.94122,0.03451
2548.88068,0.03443
2546.82015,0.03453
2544.75961,0.03454
2542.69908,0.03462
2540.63855,0.03479
2538.57801,0.03483
2536.51748,0.03443
2534.45694,0.03388
2532.39641,0.03382
2530.33588,0.03407
2528.27534,0.03414
2526.21481,0.03424
2524.15427,0.03432
2522.09374,0.03400
2520.03320,0.03354
2517.97267,0.03345
2515.91214,0.03364
2513.85160,0.03373
2511.79107,0.03364
2509.73053,0.03358
2507.67000,0.03368
2505.60947,0.03375
2503.54893,0.03368
2501.48840,0.03363
2499.42786,0.03352
2497.36733,0.03336
2495.30680,0.03306
2493.24626,0.03272
2491.18573,0.03284
2489.12519,0.03319
2487.06466,0.03342
2485.00413,0.03367
2482.94359,0.03378
2480.88306,0.03369
2478.82252,0.03360
2476.76199,0.03338
2474.70145,0.03325
2472.64092,0.03342
2470.58039,0.03360
2468.51985,0.03355
2466.45932,0.03311
2464.39878,0.03243
2462.33825,0.03184
2460.27772,0.03170
2458.21718,0.03187
2456.15665,0.03196
2454.09611,0.03206
2452.03558,0.03221
2449.97505,0.03215
2447.91451,0.03183
2445.85398,0.03155
2443.79344,0.03184
2441.73291,0.03233
2439.67237,0.03213
2437.61184,0.03155
2435.55131,0.03140
2433.49077,0.03163
2431.43024,0.03190
2429.36970,0.03198
2427.30917,0.03174
2425.24864,0.03148
2423.18810,0.03152
2421.12757,0.03164
2419.06703,0.03155
2417.00650,0.03143
2414.94597,0.03149
2412.88543,0.03140
2410.82490,0.03122
2408.76436,0.03132
2406.70383,0.03142
2404.64330,0.03131
2402.58276,0.03133
2400.52223,0.03155
2398.46169,0.03152
2396.40116,0.03100
2394.34062,0.03038
2392.28009,0.03014
2390.21956,0.03046
2388.15902,0.03091
2386.09849,0.03088
2384.03795,0.03043
2381.97742,0.03037
2379.91689,0.03082
2377.85635,0.03098
2375.79582,0.03081
2373.73528,0.03081
2371.67475,0.03097
2369.61422,0.03116
2367.55368,0.03114
2365.49315,0.03095
2363.43261,0.03098
2361.37208,0.03105
2359.31154,0.03049
2357.25101,0.02976
2355.19048,0.02991
2353.12994,0.03008
2351.06941,0.02966
2349.00887,0.02940
2346.94834,0.02933
2344.88781,0.02942
2342.82727,0.02992
2340.76674,0.03018
2338.70620,0.02986
2336.64567,0.02981
2334.58514,0.03002
2332.52460,0.02978
2330.46407,0.02945
2328.40353,0.02979
2326.34300,0.03061
2324.28247,0.03094
2322.22193,0.03041
2320.16140,0.02987
2318.10086,0.02984
2316.04033,0.03000
2313.97979,0.03010
2311.91926,0.03005
2309.85873,0.02994
2307.79819,0.02998
2305.73766,0.03010
2303.67712,0.03008
2301.61659,0.02993
2299.55606,0.02980
2297.49552,0.02982
2295.43499,0.02995
2293.37445,0.03024
2291.31392,0.03040
2289.25339,0.03022
2287.19285,0.03008
2285.13232,0.02999
2283.07178,0.02995
2281.01125,0.03009
2278.95072,0.03005
2276.89018,0.02972
2274.82965,0.02940
2272.76911,0.02909
2270.70858,0.02898
2268.64804,0.02888
2266.58751,0.02860
2264.52698,0.02898
2262.46644,0.02971
2260.40591,0.02964
2258.34537,0.02908
2256.28484,0.02871
2254.22431,0.02862
2252.16377,0.02867
2250.10324,0.02850
2248.04270,0.02794
2245.98217,0.02761
2243.92164,0.02802
2241.86110,0.02855
2239.80057,0.02884
2237.74003,0.02911
2235.67950,0.02906
2233.61896,0.02829
2231.55843,0.02737
2229.49790,0.02711
2227.43736,0.02758
2225.37683,0.02829
2223.31629,0.02836
2221.25576,0.02777
2219.19523,0.02765
2217.13469,0.02849
2215.07416,0.02952
2213.01362,0.02995
2210.95309,0.02986
2208.89256,0.02939
2206.83202,0.02900
2204.77149,0.02913
2202.71095,0.02910
2200.65042,0.02885
2198.58989,0.02863
2196.52935,0.02793
2194.46882,0.02732
2192.40828,0.02742
2190.34775,0.02749
2188.28721,0.02710
2186.22668,0.02661
2184.16615,0.02623
2182.10561,0.02649
2180.04508,0.02708
2177.98454,0.02732
2175.92401,0.02702
2173.86348,0.02593
2171.80294,0.02550
2169.74241,0.02675
2167.68187,0.02811
2165.62134,0.02850
2163.56081,0.02866
2161.50027,0.02815
2159.43974,0.02568
2157.37920,0.02338
2155.31867,0.02252
2153.25813,0.02264
2151.19760,0.02451
2149.13707,0.02647
2147.07653,0.02699
2145.01600,0.02693
2142.95546,0.02668
2140.89493,0.02621
2138.83440,0.02516
2136.77386,0.02456
2134.71333,0.02546
2132.65279,0.02635
2130.59226,0.02666
2128.53173,0.02690
2126.47119,0.02728
2124.41066,0.02787
2122.35012,0.02821
2120.28959,0.02789
2118.22906,0.02732
2116.16852,0.02712
2114.10799,0.02708
2112.04745,0.02693
2109.98692,0.02670
2107.92638,0.02657
2105.86585,0.02667
2103.80532,0.02667
2101.74478,0.02667
2099.68425,0.02704
2097.62371,0.02727
2095.56318,0.02728
2093.50265,0.02754
2091.44211,0.02749
2089.38158,0.02699
2087.32104,0.02683
2085.26051,0.02699
2083.19998,0.02693
2081.13944,0.02665
2079.07891,0.02684
2077.01837,0.02741
2074.95784,0.02763
2072.89731,0.02761
2070.83677,0.02745
2068.77624,0.02706
2066.71570,0.02657
2064.65517,0.02588
2062.59463,0.02516
2060.53410,0.02505
2058.47357,0.02564
2056.41303,0.02631
2054.35250,0.02660
2052.29196,0.02650
2050.23143,0.02574
2048.17090,0.02469
2046.11036,0.02400
2044.04983,0.02416
2041.98929,0.02542
2039.92876,0.02662
2037.86823,0.02721
2035.80769,0.02753
2033.74716,0.02719
2031.68662,0.02672
2029.62609,0.02674
2027.56555,0.02599
2025.50502,0.02429
2023.44449,0.02330
2021.38395,0.02261
2019.32342,0.02192
2017.26288,0.02226
2015.20235,0.02245
2013.14182,0.02160
2011.08128,0.02109
2009.02075,0.02173
2006.96021,0.02272
2004.89968,0.02340
2002.83915,0.02408
2000.77861,0.02466
1998.71808,0.02429
1996.65754,0.02326
1994.59701,0.02282
1992.53648,0.02311
1990.47594,0.02359
1988.41541,0.02354
1986.35487,0.02336
1984.29434,0.02373
1982.23380,0.02394
1980.17327,0.02416
1978.11274,0.02485
1976.05220,0.02490
1973.99167,0.02364
1971.93113,0.02214
1969.87060,0.02203
1967.81007,0.02317
1965.74953,0.02373
1963.68900,0.02339
1961.62846,0.02343
1959.56793,0.02369
1957.50740,0.02337
1955.44686,0.02330
1953.38633,0.02376
1951.32579,0.02415
1949.26526,0.02464
1947.20472,0.02466
1945.14419,0.02357
1943.08366,0.02246
1941.02312,0.02196
1938.96259,0.02188
1936.90205,0.02229
1934.84152,0.02247
1932.78099,0.02188
1930.72045,0.02188
1928.65992,0.02286
1926.59938,0.02334
1924.53885,0.02319
1922.47832,0.02318
1920.41778,0.02334
1918.35725,0.02315
1916.29671,0.02267
1914.23618,0.02246
1912.17565,0.02227
1910.11511,0.02179
1908.05458,0.02152
1905.99404,0.02166
1903.93351,0.02171
1901.87297,0.02142
1899.81244,0.02127
1897.75191,0.02150
1895.69137,0.02176
1893.63084,0.02205
1891.57030,0.02227
1889.50977,0.02201
1887.44924,0.02179
1885.38870,0.02198
1883.32817,0.02209
1881.26763,0.02194
1879.20710,0.02161
1877.14657,0.02159
1875.08603,0.02193
1873.02550,0.02201
1870.96496,0.02196
1868.90443,0.02196
1866.84389,0.02181
1864.78336,0.02165
1862.72283,0.02176
1860.66229,0.02204
1858.60176,0.02208
1856.54122,0.02165
1854.48069,0.02112
1852.42016,0.02091
1850.35962,0.02089
1848.29909,0.02077
1846.23855,0.02051
1844.17802,0.02030
1842.11749,0.02027
1840.05695,0.02037
1837.99642,0.02055
1835.93588,0.02053
1833.87535,0.02034
1831.81482,0.02027
1829.75428,0.02013
1827.69375,0.01987
1825.63321,0.01978
1823.57268,0.01990
1821.51214,0.01991
1819.45161,0.01964
1817.39108,0.01938
1815.33054,0.01927
1813.27001,0.01933
1811.20947,0.01958
1809.14894,0.01985
1807.08841,0.01991
1805.02787,0.01987
1802.96734,0.01979
1800.90680,0.01971
1798.84627,0.01964
1796.78574,0.01950
1794.72520,0.01933
1792.66467,0.01913
1790.60413,0.01893
1788.54360,0.01902
1786.48307,0.01936
1784.42253,0.01945
1782.36200,0.01913
1780.30146,0.01871
1778.24093,0.01849
1776.18039,0.01851
1774.11986,0.01860
1772.05933,0.01849
1769.99879,0.01829
1767.93826,0.01823
1765.87772,0.01832
1763.81719,0.01841
1761.75666,0.01833
1759.69612,0.01812
1757.63559,0.01785
1755.57505,0.01772
1753.51452,0.01773
1751.45399,0.01779
1749.39345,0.01782
1747.33292,0.01774
1745.27238,0.01778
1743.21185,0.01783
1741.15131,0.01773
1739.09078,0.01773
1737.03025,0.01790
1734.96971,0.01796
1732.90918,0.01792
1730.84864,0.01799
1728.78811,0.01819
1726.72758,0.01846
1724.66704,0.01878
1722.60651,0.01903
1720.54597,0.01917
1718.48544,0.01930
1716.42491,0.01951
1714.36437,0.02011
1712.30384,0.02110
1710.24330,0.02224
1708.18277,0.02335
1706.12224,0.02482
1704.06170,0.02677
1702.00117,0.02916
1699.94063,0.03272
1697.88010,0.03665
1695.81956,0.04055
1693.75903,0.04451
1691.69850,0.04816
1689.63796,0.05223
1687.57743,0.05626
1685.51689,0.06067
1683.45636,0.06674
1681.39583,0.07175
1679.33529,0.07554
1677.27476,0.07943
1675.21422,0.08421
1673.15369,0.08939
1671.09316,0.09444
1669.03262,0.10042
1666.97209,0.10635
1664.91155,0.11181
1662.85102,0.11826
1660.79048,0.12513
1658.72995,0.13108
1656.66942,0.13604
1654.60888,0.14075
1652.54835,0.14667
1650.48781,0.15101
1648.42728,0.15324
1646.36675,0.15472
1644.30621,0.15558
1642.24568,0.15589
1640.18514,0.15571
1638.12461,0.15497
1636.06408,0.15327
1634.00354,0.15097
1631.94301,0.14894
1629.88247,0.14625
1627.82194,0.14255
1625.76141,0.13859
1623.70087,0.13429
1621.64034,0.13001
1619.57980,0.12651
1617.51927,0.12238
1615.45873,0.11728
1613.39820,0.11320
1611.33767,0.10970
1609.27713,0.10604
1607.21660,0.10250
1605.15606,0.09957
1603.09553,0.09720
1601.03500,0.09504
1598.97446,0.09324
1596.91393,0.09212
1594.85339,0.09145
1592.79286,0.09096
1590.73233,0.09065
1588.67179,0.09057
1586.61126,0.09078
1584.55072,0.09128
1582.49019,0.09186
1580.42966,0.09242
1578.36912,0.09309
1576.30859,0.09391
1574.24805,0.09498
1572.18752,0.09608
1570.12698,0.09726
1568.06645,0.09854
1566.00592,0.09985
1563.94538,0.10135
1561.88485,0.10308
1559.82431,0.10584
1557.76378,0.11014
1555.70325,0.11395
1553.64271,0.11780
1551.58218,0.12205
1549.52164,0.12664
1547.46111,0.13133
1545.40058,0.13599
1543.34004,0.14064
1541.27951,0.14498
1539.21897,0.14899
1537.15844,0.15172
1535.09790,0.15356
1533.03737,0.15522
1530.97684,0.15669
1528.91630,0.15769
1526.85577,0.15820
1524.79523,0.15859
1522.73470,0.15889
1520.67417,0.15890
1518.61363,0.15943
1516.55310,0.16022
1514.49256,0.16026
1512.43203,0.15945
1510.37150,0.15809
1508.31096,0.15583
1506.25043,0.15224
1504.18989,0.14961
1502.12936,0.14788
1500.06883,0.14583
1498.00829,0.14273
1495.94776,0.13837
1493.88722,0.13419
1491.82669,0.13016
1489.76615,0.12495
1487.70562,0.11954
1485.64509,0.11505
1483.58455,0.11104
1481.52402,0.10729
1479.46348,0.10423
1477.40295,0.10215
1475.34242,0.10088
1473.28188,0.10035
1471.22135,0.10045
1469.16081,0.10079
1467.10028,0.10071
1465.03975,0.10018
1462.97921,0.09997
1460.91868,0.10024
1458.85814,0.10083
1456.79761,0.10222
1454.73707,0.10383
1452.67654,0.10453
1450.61601,0.10460
1448.55547,0.10455
1446.49494,0.10452
1444.43440,0.10430
1442.37387,0.10385
1440.31334,0.10334
1438.25280,0.10269
1436.19227,0.10141
1434.13173,0.09977
1432.07120,0.09793
1430.01067,0.09579
1427.95013,0.09405
1425.88960,0.09324
1423.82906,0.09317
1421.76853,0.09341
1419.70800,0.09358
1417.64746,0.09372
1415.58693,0.09417
1413.52639,0.09507
1411.46586,0.09637
1409.40532,0.09802
1407.34479,0.10007
1405.28426,0.10243
1403.22372,0.10482
1401.16319,0.10718
1399.10265,0.10947
1397.04212,0.11125
1394.98159,0.11260
1392.92105,0.11394
1390.86052,0.11499
1388.79998,0.11519
1386.73945,0.11442
1384.67892,0.11311
1382.61838,0.11133
1380.55785,0.10918
1378.49731,0.10698
1376.43678,0.10473
1374.37624,0.10237
1372.31571,0.10047
1370.25518,0.09922
1368.19464,0.09804
1366.13411,0.09664
1364.07357,0.09499
1362.01304,0.09318
1359.95251,0.09171
1357.89197,0.09080
1355.83144,0.09015
1353.77090,0.08950
1351.71037,0.08888
1349.64984,0.08863
1347.58930,0.08866
1345.52877,0.08852
1343.46823,0.08834
1341.40770,0.08830
1339.34717,0.08812
1337.28663,0.08777
1335.22610,0.08754
1333.16556,0.08753
1331.10503,0.08759
1329.04449,0.08771
1326.98396,0.08798
1324.92343,0.08850
1322.86289,0.08926
1320.80236,0.09012
1318.74182,0.09112
1316.68129,0.09213
1314.62076,0.09298
1312.56022,0.09378
1310.49969,0.09443
1308.43915,0.09490
1306.37862,0.09539
1304.31809,0.09583
1302.25755,0.09603
1300.19702,0.09600
1298.13648,0.09590
1296.07595,0.09598
1294.01542,0.09607
1291.95488,0.09593
1289.89435,0.09583
1287.83381,0.09586
1285.77328,0.09584
1283.71274,0.09584
1281.65221,0.09590
1279.59168,0.09595
1277.53114,0.09606
1275.47061,0.09633
1273.41007,0.09662
1271.34954,0.09682
1269.28901,0.09687
1267.22847,0.09687
1265.16794,0.09696
1263.10740,0.09718
1261.04687,0.09755
1258.98634,0.09786
1256.92580,0.09811
1254.86527,0.09843
1252.80473,0.09868
1250.74420,0.09891
1248.68366,0.09928
1246.62313,0.09973
1244.56260,0.10002
1242.50206,0.10013
1240.44153,0.10037
1238.38099,0.10065
1236.32046,0.10054
1234.25993,0.09990
1232.19939,0.09913
1230.13886,0.09840
1228.07832,0.09744
1226.01779,0.09619
1223.95726,0.09501
1221.89672,0.09409
1219.83619,0.09320
1217.77565,0.09214
1215.71512,0.09098
1213.65459,0.08988
1211.59405,0.08890
1209.53352,0.08806
1207.47298,0.08730
1205.41245,0.08643
1203.35191,0.08550
1201.29138,0.08467
1199.23085,0.08391
1197.17031,0.08325
1195.10978,0.08265
1193.04924,0.08203
1190.98871,0.08160
1188.92818,0.08140
1186.86764,0.08116
1184.80711,0.08090
1182.74657,0.08080
1180.68604,0.08095
1178.62551,0.08147
1176.56497,0.08236
1174.50444,0.08342
1172.44390,0.08425
1170.38337,0.08455
1168.32283,0.08449
1166.26230,0.08436
1164.20177,0.08421
1162.14123,0.08405
1160.08070,0.08380
1158.02016,0.08330
1155.95963,0.08251
1153.89910,0.08174
1151.83856,0.08121
1149.77803,0.08062
1147.71749,0.07973
1145.65696,0.07870
1143.59643,0.07778
1141.53589,0.07718
1139.47536,0.07686
1137.41482,0.07677
1135.35429,0.07696
1133.29376,0.07745
1131.23322,0.07814
1129.17269,0.07885
1127.11215,0.07950
1125.05162,0.07997
1122.99108,0.08014
1120.93055,0.08025
1118.87002,0.08043
1116.80948,0.08052
1114.74895,0.08052
1112.68841,0.08050
1110.62788,0.08050
1108.56735,0.08074
1106.50681,0.08118
1104.44628,0.08149
1102.38574,0.08138
1100.32521,0.08086
1098.26468,0.08034
1096.20414,0.07985
1094.14361,0.07952
1092.08307,0.07974
1090.02254,0.08011
1087.96201,0.08028
1085.90147,0.08049
1083.84094,0.08069
1081.78040,0.08078
1079.71987,0.08076
1077.65933,0.08046
1075.59880,0.08002
1073.53827,0.07961
1071.47773,0.07914
1069.41720,0.07860
1067.35666,0.07801
1065.29613,0.07735
1063.23560,0.07687
1061.17506,0.07681
1059.11453,0.07679
1057.05399,0.07635
1054.99346,0.07586
1052.93293,0.07572
1050.87239,0.07537
1048.81186,0.07457
1046.75132,0.07391
1044.69079,0.07346
1042.63025,0.07299
1040.56972,0.07259
1038.50919,0.07216
1036.44865,0.07174
1034.38812,0.07146
1032.32758,0.07107
1030.26705,0.07055
1028.20652,0.06992
1026.14598,0.06908
1024.08545,0.06824
1022.02491,0.06774
1019.96438,0.06746
1017.90385,0.06708
1015.84331,0.06655
1013.78278,0.06600
1011.72224,0.06550
1009.66171,0.06490
1007.60118,0.06415
1005.54064,0.06353
1003.48011,0.06308
1001.41957,0.06269
999.35904,0.06250
997.29850,0.06238
995.23797,0.06222
993.17744,0.06214
991.11690,0.06193
989.05637,0.06161
986.99583,0.06156
984.93530,0.06151
982.87477,0.06120
980.81423,0.06085
978.75370,0.06053
976.69316,0.06014
974.63263,0.05961
972.57210,0.05914
970.51156,0.05901
968.45103,0.05896
966.39049,0.05868
964.32996,0.05841
962.26942,0.05829
960.20889,0.05819
958.14836,0.05807
956.08782,0.05806
954.02729,0.05812
951.96675,0.05817
949.90622,0.05823
947.84569,0.05822
945.78515,0.05828
943.72462,0.05857
941.66408,0.05894
939.60355,0.05936
937.54302,0.05979
935.48248,0.06006
933.42195,0.06012
931.36141,0.06015
929.30088,0.06010
927.24035,0.05969
925.17981,0.05940
923.11928,0.05961
921.05874,0.05974
918.99821,0.05948
916.93767,0.05897
914.87714,0.05839
912.81661,0.05805
910.75607,0.05797
908.69554,0.05782
906.63500,0.05761
904.57447,0.05770
902.51394,0.05783
900.45340,0.05764
898.39287,0.05753
896.33233,0.05784
894.27180,0.05834
892.21127,0.05862
890.15073,0.05858
888.09020,0.05841
886.02966,0.05830
883.96913,0.05841
881.90859,0.05851
879.84806,0.05836
877.78753,0.05805
875.72699,0.05785
873.66646,0.05792
871.60592,0.05794
869.54539,0.05785
867.48486,0.05796
865.42432,0.05805
863.36379,0.05788
861.30325,0.05792
859.24272,0.05840
857.18219,0.05893
855.12165,0.05941
853.06112,0.06012
851.00058,0.06106
848.94005,0.06179
846.87952,0.06217
844.81898,0.06242
842.75845,0.06262
840.69791,0.06286
838.63738,0.06307
836.57684,0.06319
834.51631,0.06347
832.45578,0.06403
830.39524,0.06457
828.33471,0.06479
826.27417,0.06480
824.21364,0.06482
822.15311,0.06497
820.09257,0.06523
818.03204,0.06542
815.97150,0.06534
813.91097,0.06523
811.85044,0.06551
809.78990,0.06576
807.72937,0.06588
805.66883,0.06638
803.60830,0.06678
801.54777,0.06684
799.48723,0.06681
797.42670,0.06677
795.36616,0.06698
793.30563,0.06744
791.24509,0.06795
789.18456,0.06853
787.12403,0.06898
785.06349,0.06922
783.00296,0.06956
780.94242,0.07011
778.88189,0.07053
776.82136,0.07054
774.76082,0.07081
772.70029,0.07178
770.63975,0.07267
768.57922,0.07314
766.51869,0.07377
764.45815,0.07467
762.39762,0.07514
760.33708,0.07530
758.27655,0.07609
756.21601,0.07741
754.15548,0.07859
752.09495,0.07939
750.03441,0.08026
747.97388,0.08153
745.91334,0.08256
743.85281,0.08325
741.79228,0.08393
739.73174,0.08423
737.67121,0.08434
735.61067,0.08462
733.55014,0.08478
731.48961,0.08475
729.42907,0.08480
727.36854,0.08517
725.30800,0.08581
723.24747,0.08659
721.18694,0.08750
719.12640,0.08851
717.06587,0.08967
715.00533,0.09060
712.94480,0.09128
710.88426,0.09251
708.82373,0.09426
706.76320,0.09608
704.70266,0.09832
702.64213,0.10071
700.58159,0.10224
698.52106,0.10286
696.46053,0.10285
694.39999,0.10223
692.33946,0.10176
690.27892,0.10208
688.21839,0.10266
686.15786,0.10292
684.09732,0.10346
682.03679,0.10454
679.97625,0.10545
677.91572,0.10618
675.85518,0.10711
673.79465,0.10797
671.73412,0.10852
669.67358,0.10949
667.61305,0.11131
665.55251,0.11239
663.49198,0.11307
661.43145,0.11396
659.37091,0.11429
657.31038,0.11426
655.24984,0.11501
653.18931,0.11611
651.12878,0.11699
649.06824,0.11794
647.00771,0.11875
644.94717,0.11898
642.88664,0.11921
640.82611,0.11983
638.76557,0.12008
636.70504,0.12016
634.64450,0.12062
632.58397,0.12101
630.52343,0.12136
628.46290,0.12233
626.40237,0.12405
624.34183,0.12600
622.28130,0.12752
620.22076,0.12798
618.16023,0.12788
616.09970,0.12814
614.03916,0.12856
611.97863,0.12918
609.91809,0.13020
607.85756,0.13148
605.79703,0.13274
603.73649,0.13298
601.67596,0.13192
599.61542,0.13125
597.55489,0.13209
595.49436,0.13308
593.43382,0.13328
591.37329,0.13365
589.31275,0.13427
587.25222,0.13428
585.19168,0.13389
583.13115,0.13414
581.07062,0.13503
579.01008,0.13546
576.94955,0.13502
574.88901,0.13447
572.82848,0.13451
570.76795,0.13516
568.70741,0.13609
566.64688,0.13718
564.58634,0.13839
562.52581,0.13918
560.46528,0.13914
558.40474,0.13910
556.34421,0.13970
554.28367,0.14026
552.22314,0.14057
550.16260,0.14097
548.10207,0.14119
546.04154,0.14112
543.98100,0.14146
541.92047,0.14258
539.85993,0.14376
537.79940,0.14415
535.73887,0.14469
533.67833,0.14634
531.61780,0.14810
529.55726,0.14824
527.49673,0.14688
525.43620,0.14709
523.37566,0.14930
521.31513,0.15067
519.25459,0.15091
517.19406,0.15088
515.13353,0.15024
513.07299,0.14946
511.01246,0.14898
508.95192,0.14811
506.89139,0.14761
504.83085,0.14819
502.77032,0.14890
500.70979,0.14999
498.64925,0.15200
496.58872,0.15297
494.52818,0.15174
492.46765,0.14945
490.40712,0.14740
488.34658,0.14744
486.28605,0.14859
484.22551,0.14849
482.16498,0.14836
480.10445,0.14897
478.04391,0.14909
475.98338,0.14854
473.92284,0.14855
471.86231,0.15042
469.80177,0.15132
467.74124,0.14908
465.68071,0.14840
463.62017,0.15066
461.55964,0.15124
459.49910,0.14989
457.43857,0.14992
455.37804,0.15044
453.31750,0.14877
451.25697,0.14681
449.19643,0.14596
447.13590,0.14415
445.07537,0.14232
443.01483,0.14204
440.95430,0.14137
438.89376,0.13893
436.83323,0.13731
434.77270,0.13921
432.71216,0.14234
430.65163,0.14500
428.59109,0.14699
426.53056,0.14682
424.47002,0.14455
422.40949,0.14222
420.34896,0.14093
418.28842,0.14038
416.22789,0.14133
414.16735,0.14311
412.10682,0.14313
410.04629,0.14170
407.98575,0.14310
405.92522,0.14531
403.86468,0.14360
401.80415,0.14146
399.74362,0.14264
