4996.79519,0.00357
4994.73466,0.00430
4992.67413,0.00413
4990.61359,0.00393
4988.55306,0.00438
4986.49252,0.00418
4984.43199,0.00329
4982.37145,0.00278
4980.31092,0.00247
4978.25039,0.00231
4976.18985,0.00298
4974.12932,0.00403
4972.06878,0.00443
4970.00825,0.00445
4967.94772,0.00433
4965.88718,0.00435
4963.82665,0.00497
4961.76611,0.00505
4959.70558,0.00425
4957.64505,0.00390
4955.58451,0.00369
4953.52398,0.00317
4951.46344,0.00322
4949.40291,0.00371
4947.34238,0.00411
4945.28184,0.00419
4943.22131,0.00394
4941.16077,0.00356
4939.10024,0.00338
4937.03970,0.00363
4934.97917,0.00356
4932.91864,0.00307
4930.85810,0.00289
4928.79757,0.00292
4926.73703,0.00271
4924.67650,0.00230
4922.61597,0.00203
4920.55543,0.00235
4918.49490,0.00322
4916.43436,0.00396
4914.37383,0.00399
4912.31330,0.00340
4910.25276,0.00258
4908.19223,0.00185
4906.13169,0.00169
4904.07116,0.00224
4902.01062,0.00346
4899.95009,0.00480
4897.88956,0.00492
4895.82902,0.00399
4893.76849,0.00378
4891.70795,0.00419
4889.64742,0.00377
4887.58689,0.00309
4885.52635,0.00294
4883.46582,0.00318
4881.40528,0.00334
4879.34475,0.00307
4877.28422,0.00289
4875.22368,0.00307
4873.16315,0.00314
4871.10261,0.00256
4869.04208,0.00211
4866.98155,0.00267
4864.92101,0.00294
4862.86048,0.00246
4860.79994,0.00221
4858.73941,0.00243
4856.67887,0.00309
4854.61834,0.00383
4852.55781,0.00425
4850.49727,0.00424
4848.43674,0.00398
4846.37620,0.00383
4844.31567,0.00379
4842.25514,0.00401
4840.19460,0.00402
4838.13407,0.00332
4836.07353,0.00278
4834.01300,0.00295
4831.95247,0.00315
4829.89193,0.00285
4827.83140,0.00272
4825.77086,0.00316
4823.71033,0.00343
4821.64979,0.00326
4819.58926,0.00306
4817.52873,0.00291
4815.46819,0.00250
4813.40766,0.00209
4811.34712,0.00245
4809.28659,0.00313
4807.22606,0.00337
4805.16552,0.00339
4803.10499,0.00331
4801.04445,0.00279
4798.98392,0.00231
4796.92339,0.00234
4794.86285,0.00234
4792.80232,0.00212
4790.74178,0.00216
4788.68125,0.00259
4786.62072,0.00284
4784.56018,0.00274
4782.49965,0.00288
4780.43911,0.00312
4778.37858,0.00300
4776.31804,0.00265
4774.25751,0.00241
4772.19698,0.00235
4770.13644,0.00217
4768.07591,0.00193
4766.01537,0.00210
4763.95484,0.00259
4761.89431,0.00265
4759.83377,0.00208
4757.77324,0.00158
4755.71270,0.00162
4753.65217,0.00215
4751.59164,0.00278
4749.53110,0.00311
4747.47057,0.00322
4745.41003,0.00319
4743.34950,0.00300
4741.28897,0.00304
4739.22843,0.00351
4737.16790,0.00377
4735.10736,0.00342
4733.04683,0.00291
4730.98629,0.00261
4728.92576,0.00226
4726.86523,0.00200
4724.80469,0.00236
4722.74416,0.00285
4720.68362,0.00283
4718.62309,0.00241
4716.56256,0.00196
4714.50202,0.00192
4712.44149,0.00198
4710.38095,0.00172
4708.32042,0.00139
4706.25989,0.00119
4704.19935,0.00161
4702.13882,0.00278
4700.07828,0.00374
4698.01775,0.00366
4695.95721,0.00314
4693.89668,0.00295
4691.83615,0.00291
4689.77561,0.00286
4687.71508,0.00283
4685.65454,0.00283
4683.59401,0.00292
4681.53348,0.00281
4679.47294,0.00241
4677.41241,0.00255
4675.35187,0.00317
4673.29134,0.00320
4671.23081,0.00276
4669.17027,0.00272
4667.10974,0.00292
4665.04920,0.00292
4662.98867,0.00272
4660.92814,0.00254
4658.86760,0.00256
4656.80707,0.00230
4654.74653,0.00200
4652.68600,0.00233
4650.62546,0.00277
4648.56493,0.00290
4646.50440,0.00290
4644.44386,0.00255
4642.38333,0.00210
4640.32279,0.00198
4638.26226,0.00195
4636.20173,0.00215
4634.14119,0.00264
4632.08066,0.00299
4630.02012,0.00323
4627.95959,0.00312
4625.89906,0.00280
4623.83852,0.00310
4621.77799,0.00350
4619.71745,0.00325
4617.65692,0.00308
4615.59638,0.00288
4613.53585,0.00226
4611.47532,0.00223
4609.41478,0.00299
4607.35425,0.00343
4605.29371,0.00330
4603.23318,0.00310
4601.17265,0.00284
4599.11211,0.00245
4597.05158,0.00228
4594.99104,0.00214
4592.93051,0.00197
4590.86998,0.00199
4588.80944,0.00188
4586.74891,0.00164
4584.68837,0.00172
4582.62784,0.00212
4580.56731,0.00246
4578.50677,0.00251
4576.44624,0.00244
4574.38570,0.00253
4572.32517,0.00264
4570.26463,0.00262
4568.20410,0.00248
4566.14357,0.00232
4564.08303,0.00227
4562.02250,0.00215
4559.96196,0.00211
4557.90143,0.00227
4555.84090,0.00217
4553.78036,0.00201
4551.71983,0.00218
4549.65929,0.00210
4547.59876,0.00174
4545.53823,0.00191
4543.47769,0.00255
4541.41716,0.00307
4539.35662,0.00321
4537.29609,0.00294
4535.23556,0.00281
4533.17502,0.00313
4531.11449,0.00328
4529.05395,0.00303
4526.99342,0.00263
4524.93288,0.00227
4522.87235,0.00231
4520.81182,0.00256
4518.75128,0.00258
4516.69075,0.00247
4514.63021,0.00237
4512.56968,0.00224
4510.50915,0.00219
4508.44861,0.00224
4506.38808,0.00242
4504.32754,0.00285
4502.26701,0.00354
4500.20648,0.00408
4498.14594,0.00402
4496.08541,0.00339
4494.02487,0.00267
4491.96434,0.00230
4489.90380,0.00215
4487.84327,0.00218
4485.78274,0.00243
4483.72220,0.00243
4481.66167,0.00205
4479.60113,0.00192
4477.54060,0.00231
4475.48007,0.00262
4473.41953,0.00259
4471.35900,0.00285
4469.29846,0.00337
4467.23793,0.00311
4465.17740,0.00235
4463.11686,0.00217
4461.05633,0.00250
4458.99579,0.00282
4456.93526,0.00292
4454.87473,0.00283
4452.81419,0.00285
4450.75366,0.00315
4448.69312,0.00323
4446.63259,0.00287
4444.57205,0.00264
4442.51152,0.00252
4440.45099,0.00234
4438.39045,0.00238
4436.32992,0.00264
4434.26938,0.00271
4432.20885,0.00239
4430.14832,0.00209
4428.08778,0.00223
4426.02725,0.00234
4423.96671,0.00231
4421.90618,0.00254
4419.84565,0.00277
4417.78511,0.00267
4415.72458,0.00243
4413.66404,0.00235
4411.60351,0.00235
4409.54297,0.00227
4407.48244,0.00231
4405.42191,0.00246
4403.36137,0.00254
4401.30084,0.00263
4399.24030,0.00280
4397.17977,0.00307
4395.11924,0.00313
4393.05870,0.00296
4390.99817,0.00312
4388.93763,0.00348
4386.87710,0.00345
4384.81657,0.00317
4382.75603,0.00312
4380.69550,0.00315
4378.63496,0.00292
4376.57443,0.00254
4374.51390,0.00244
4372.45336,0.00269
4370.39283,0.00279
4368.33229,0.00273
4366.27176,0.00269
4364.21122,0.00258
4362.15069,0.00263
4360.09016,0.00286
4358.02962,0.00278
4355.96909,0.00256
4353.90855,0.00275
4351.84802,0.00318
4349.78749,0.00327
4347.72695,0.00275
4345.66642,0.00211
4343.60588,0.00206
4341.54535,0.00235
4339.48482,0.00251
4337.42428,0.00282
4335.36375,0.00313
4333.30321,0.00330
4331.24268,0.00326
4329.18214,0.00292
4327.12161,0.00276
4325.06108,0.00284
4323.00054,0.00293
4320.94001,0.00322
4318.87947,0.00340
4316.81894,0.00313
4314.75841,0.00297
4312.69787,0.00332
4310.63734,0.00369
4308.57680,0.00356
4306.51627,0.00306
4304.45574,0.00269
4302.39520,0.00258
4300.33467,0.00262
4298.27413,0.00263
4296.21360,0.00274
4294.15307,0.00330
4292.09253,0.00395
4290.03200,0.00414
4287.97146,0.00362
4285.91093,0.00287
4283.85039,0.00266
4281.78986,0.00263
4279.72933,0.00245
4277.66879,0.00247
4275.60826,0.00263
4273.54772,0.00273
4271.48719,0.00278
4269.42666,0.00294
4267.36612,0.00336
4265.30559,0.00371
4263.24505,0.00373
4261.18452,0.00340
4259.12399,0.00305
4257.06345,0.00320
4255.00292,0.00345
4252.94238,0.00329
4250.88185,0.00302
4248.82132,0.00285
4246.76078,0.00288
4244.70025,0.00299
4242.63971,0.00320
4240.57918,0.00353
4238.51864,0.00356
4236.45811,0.00326
4234.39758,0.00308
4232.33704,0.00314
4230.27651,0.00303
4228.21597,0.00266
4226.15544,0.00245
4224.09491,0.00271
4222.03437,0.00323
4219.97384,0.00353
4217.91330,0.00359
4215.85277,0.00353
4213.79224,0.00317
4211.73170,0.00261
4209.67117,0.00235
4207.61063,0.00263
4205.55010,0.00306
4203.48956,0.00315
4201.42903,0.00302
4199.36850,0.00307
4197.30796,0.00305
4195.24743,0.00285
4193.18689,0.00295
4191.12636,0.00326
4189.06583,0.00307
4187.00529,0.00260
4184.94476,0.00269
4182.88422,0.00329
4180.82369,0.00395
4178.76316,0.00414
4176.70262,0.00371
4174.64209,0.00321
4172.58155,0.00290
4170.52102,0.00284
4168.46049,0.00323
4166.39995,0.00370
4164.33942,0.00379
4162.27888,0.00378
4160.21835,0.00384
4158.15781,0.00382
4156.09728,0.00361
4154.03675,0.00340
4151.97621,0.00352
4149.91568,0.00373
4147.85514,0.00350
4145.79461,0.00312
4143.73408,0.00323
4141.67354,0.00351
4139.61301,0.00352
4137.55247,0.00355
4135.49194,0.00361
4133.43141,0.00355
4131.37087,0.00349
4129.31034,0.00346
4127.24980,0.00346
4125.18927,0.00356
4123.12873,0.00360
4121.06820,0.00367
4119.00767,0.00389
4116.94713,0.00408
4114.88660,0.00414
4112.82606,0.00400
4110.76553,0.00369
4108.70500,0.00365
4106.64446,0.00392
4104.58393,0.00387
4102.52339,0.00349
4100.46286,0.00327
4098.40233,0.00339
4096.34179,0.00371
4094.28126,0.00393
4092.22072,0.00401
4090.16019,0.00414
4088.09966,0.00444
4086.03912,0.00460
4083.97859,0.00428
4081.91805,0.00377
4079.85752,0.00364
4077.79698,0.00372
4075.73645,0.00344
4073.67592,0.00324
4071.61538,0.00341
4069.55485,0.00344
4067.49431,0.00344
4065.43378,0.00355
4063.37325,0.00347
4061.31271,0.00365
4059.25218,0.00409
4057.19164,0.00424
4055.13111,0.00426
4053.07058,0.00431
4051.01004,0.00422
4048.94951,0.00420
4046.88897,0.00425
4044.82844,0.00409
4042.76791,0.00386
4040.70737,0.00393
4038.64684,0.00431
4036.58630,0.00460
4034.52577,0.00455
4032.46523,0.00428
4030.40470,0.00399
4028.34417,0.00391
4026.28363,0.00402
4024.22310,0.00393
4022.16256,0.00384
4020.10203,0.00417
4018.04150,0.00449
4015.98096,0.00444
4013.92043,0.00437
4011.85989,0.00455
4009.79936,0.00474
4007.73883,0.00467
4005.67829,0.00467
4003.61776,0.00488
4001.55722,0.00486
3999.49669,0.00458
3997.43615,0.00435
3995.37562,0.00417
3993.31509,0.00405
3991.25455,0.00416
3989.19402,0.00429
3987.13348,0.00416
3985.07295,0.00395
3983.01242,0.00415
3980.95188,0.00460
3978.89135,0.00484
3976.83081,0.00489
3974.77028,0.00474
3972.70975,0.00476
3970.64921,0.00520
3968.58868,0.00528
3966.52814,0.00492
3964.46761,0.00456
3962.40708,0.00431
3960.34654,0.00438
3958.28601,0.00459
3956.22547,0.00467
3954.16494,0.00474
3952.10440,0.00488
3950.04387,0.00497
3947.98334,0.00487
3945.92280,0.00468
3943.86227,0.00447
3941.80173,0.00432
3939.74120,0.00447
3937.68067,0.00480
3935.62013,0.00475
3933.55960,0.00428
3931.49906,0.00413
3929.43853,0.00474
3927.37800,0.00521
3925.31746,0.00508
3923.25693,0.00488
3921.19639,0.00487
3919.13586,0.00499
3917.07532,0.00508
3915.01479,0.00485
3912.95426,0.00457
3910.89372,0.00461
3908.83319,0.00473
3906.77265,0.00464
3904.71212,0.00436
3902.65159,0.00423
3900.59105,0.00435
3898.53052,0.00425
3896.46998,0.00402
3894.40945,0.00399
3892.34892,0.00424
3890.28838,0.00476
3888.22785,0.00501
3886.16731,0.00477
3884.10678,0.00450
3882.04625,0.00447
3879.98571,0.00455
3877.92518,0.00468
3875.86464,0.00477
3873.80411,0.00481
3871.74357,0.00485
3869.68304,0.00474
3867.62251,0.00444
3865.56197,0.00450
3863.50144,0.00479
3861.44090,0.00474
3859.38037,0.00460
3857.31984,0.00467
3855.25930,0.00493
3853.19877,0.00538
3851.13823,0.00557
3849.07770,0.00530
3847.01717,0.00514
3844.95663,0.00532
3842.89610,0.00538
3840.83556,0.00503
3838.77503,0.00454
3836.71449,0.00437
3834.65396,0.00472
3832.59343,0.00491
3830.53289,0.00480
3828.47236,0.00489
3826.41182,0.00530
3824.35129,0.00570
3822.29076,0.00556
3820.23022,0.00474
3818.16969,0.00411
3816.10915,0.00421
3814.04862,0.00483
3811.98809,0.00546
3809.92755,0.00586
3807.86702,0.00583
3805.80648,0.00551
3803.74595,0.00540
3801.68542,0.00562
3799.62488,0.00584
3797.56435,0.00587
3795.50381,0.00587
3793.44328,0.00593
3791.38274,0.00584
3789.32221,0.00577
3787.26168,0.00593
3785.20114,0.00595
3783.14061,0.00569
3781.08007,0.00570
3779.01954,0.00607
3776.95901,0.00638
3774.89847,0.00638
3772.83794,0.00620
3770.77740,0.00614
3768.71687,0.00631
3766.65634,0.00642
3764.59580,0.00626
3762.53527,0.00616
3760.47473,0.00636
3758.41420,0.00650
3756.35367,0.00649
3754.29313,0.00646
3752.23260,0.00636
3750.17206,0.00666
3748.11153,0.00732
3746.05099,0.00765
3743.99046,0.00749
3741.92993,0.00713
3739.86939,0.00705
3737.80886,0.00729
3735.74832,0.00784
3733.68779,0.00843
3731.62726,0.00852
3729.56672,0.00842
3727.50619,0.00867
3725.44565,0.00902
3723.38512,0.00892
3721.32459,0.00880
3719.26405,0.00905
3717.20352,0.00933
3715.14298,0.00966
3713.08245,0.01013
3711.02191,0.01044
3708.96138,0.01070
3706.90085,0.01142
3704.84031,0.01260
3702.77978,0.01375
3700.71924,0.01435
3698.65871,0.01443
3696.59818,0.01467
3694.53764,0.01556
3692.47711,0.01695
3690.41657,0.01863
3688.35604,0.01998
3686.29551,0.02066
3684.23497,0.02143
3682.17444,0.02250
3680.11390,0.02343
3678.05337,0.02442
3675.99284,0.02615
3673.93230,0.02818
3671.87177,0.02965
3669.81123,0.03122
3667.75070,0.03337
3665.69016,0.03546
3663.62963,0.03728
3661.56910,0.03897
3659.50856,0.04063
3657.44803,0.04248
3655.38749,0.04466
3653.32696,0.04647
3651.26643,0.04801
3649.20589,0.05012
3647.14536,0.05277
3645.08482,0.05514
3643.02429,0.05731
3640.96376,0.05979
3638.90322,0.06223
3636.84269,0.06396
3634.78215,0.06530
3632.72162,0.06698
3630.66108,0.06924
3628.60055,0.07149
3626.54002,0.07274
3624.47948,0.07399
3622.41895,0.07591
3620.35841,0.07787
3618.29788,0.07972
3616.23735,0.08186
3614.17681,0.08359
3612.11628,0.08460
3610.05574,0.08576
3607.99521,0.08752
3605.93468,0.08974
3603.87414,0.09180
3601.81361,0.09334
3599.75307,0.09486
3597.69254,0.09705
3595.63201,0.09936
3593.57147,0.10107
3591.51094,0.10279
3589.45040,0.10484
3587.38987,0.10668
3585.32933,0.10812
3583.26880,0.10978
3581.20827,0.11162
3579.14773,0.11333
3577.08720,0.11517
3575.02666,0.11745
3572.96613,0.12000
3570.90560,0.12227
3568.84506,0.12428
3566.78453,0.12649
3564.72399,0.12858
3562.66346,0.13049
3560.60293,0.13246
3558.54239,0.13452
3556.48186,0.13696
3554.42132,0.13947
3552.36079,0.14148
3550.30026,0.14334
3548.23972,0.14545
3546.17919,0.14735
3544.11865,0.14928
3542.05812,0.15198
3539.99758,0.15476
3537.93705,0.15693
3535.87652,0.15929
3533.81598,0.16214
3531.75545,0.16446
3529.69491,0.16640
3527.63438,0.16861
3525.57385,0.17085
3523.51331,0.17289
3521.45278,0.17482
3519.39224,0.17708
3517.33171,0.18002
3515.27118,0.18292
3513.21064,0.18529
3511.15011,0.18775
3509.08957,0.19033
3507.02904,0.19259
3504.96850,0.19471
3502.90797,0.19681
3500.84744,0.19894
3498.78690,0.20135
3496.72637,0.20416
3494.66583,0.20670
3492.60530,0.20877
3490.54477,0.21108
3488.48423,0.21359
3486.42370,0.21616
3484.36316,0.21878
3482.30263,0.22108
3480.24210,0.22361
3478.18156,0.22655
3476.12103,0.22916
3474.06049,0.23150
3471.99996,0.23410
3469.93943,0.23659
3467.87889,0.23859
3465.81836,0.24053
3463.75782,0.24307
3461.69729,0.24601
3459.63675,0.24880
3457.57622,0.25143
3455.51569,0.25395
3453.45515,0.25630
3451.39462,0.25876
3449.33408,0.26157
3447.27355,0.26460
3445.21302,0.26736
3443.15248,0.26960
3441.09195,0.27163
3439.03141,0.27382
3436.97088,0.27605
3434.91035,0.27811
3432.84981,0.28040
3430.78928,0.28303
3428.72874,0.28555
3426.66821,0.28773
3424.60767,0.28993
3422.54714,0.29220
3420.48661,0.29452
3418.42607,0.29733
3416.36554,0.30046
3414.30500,0.30321
3412.24447,0.30520
3410.18394,0.30663
3408.12340,0.30792
3406.06287,0.30945
3404.00233,0.31144
3401.94180,0.31357
3399.88127,0.31550
3397.82073,0.31753
3395.76020,0.31958
3393.69966,0.32136
3391.63913,0.32351
3389.57860,0.32601
3387.51806,0.32774
3385.45753,0.32882
3383.39699,0.33029
3381.33646,0.33187
3379.27592,0.33295
3377.21539,0.33372
3375.15486,0.33466
3373.09432,0.33567
3371.03379,0.33619
3368.97325,0.33679
3366.91272,0.33812
3364.85219,0.33974
3362.79165,0.34131
3360.73112,0.34230
3358.67058,0.34245
3356.61005,0.34277
3354.54952,0.34353
3352.48898,0.34408
3350.42845,0.34443
3348.36791,0.34514
3346.30738,0.34614
3344.24684,0.34692
3342.18631,0.34760
3340.12578,0.34827
3338.06524,0.34881
3336.00471,0.34914
3333.94417,0.34924
3331.88364,0.34945
3329.82311,0.34982
3327.76257,0.34993
3325.70204,0.34974
3323.64150,0.34967
3321.58097,0.35018
3319.52044,0.35122
3317.45990,0.35224
3315.39937,0.35269
3313.33883,0.35275
3311.27830,0.35321
3309.21777,0.35383
3307.15723,0.35398
3305.09670,0.35417
3303.03616,0.35505
3300.97563,0.35613
3298.91509,0.35702
3296.85456,0.35773
3294.79403,0.35818
3292.73349,0.35819
3290.67296,0.35767
3288.61242,0.35754
3286.55189,0.35832
3284.49136,0.35897
3282.43082,0.35902
3280.37029,0.35890
3278.30975,0.35855
3276.24922,0.35813
3274.18869,0.35793
3272.12815,0.35773
3270.06762,0.35752
3268.00708,0.35759
3265.94655,0.35763
3263.88602,0.35713
3261.82548,0.35630
3259.76495,0.35535
3257.70441,0.35448
3255.64388,0.35407
3253.58334,0.35369
3251.52281,0.35269
3249.46228,0.35138
3247.40174,0.35031
3245.34121,0.34952
3243.28067,0.34880
3241.22014,0.34813
3239.15961,0.34734
3237.09907,0.34610
3235.03854,0.34462
3232.97800,0.34327
3230.91747,0.34211
3228.85694,0.34123
3226.79640,0.34029
3224.73587,0.33879
3222.67533,0.33714
3220.61480,0.33583
3218.55426,0.33459
3216.49373,0.33295
3214.43320,0.33091
3212.37266,0.32894
3210.31213,0.32717
3208.25159,0.32512
3206.19106,0.32267
3204.13053,0.32029
3202.06999,0.31831
3200.00946,0.31644
3197.94892,0.31437
3195.88839,0.31190
3193.82786,0.30910
3191.76732,0.30644
3189.70679,0.30400
3187.64625,0.30135
3185.58572,0.29837
3183.52519,0.29540
3181.46465,0.29268
3179.40412,0.29012
3177.34358,0.28734
3175.28305,0.28426
3173.22251,0.28119
3171.16198,0.27830
3169.10145,0.27539
3167.04091,0.27240
3164.98038,0.26914
3162.91984,0.26565
3160.85931,0.26241
3158.79878,0.25917
3156.73824,0.25579
3154.67771,0.25264
3152.61717,0.24951
3150.55664,0.24603
3148.49611,0.24232
3146.43557,0.23881
3144.37504,0.23573
3142.31450,0.23268
3140.25397,0.22922
3138.19343,0.22592
3136.13290,0.22305
3134.07237,0.22001
3132.01183,0.21663
3129.95130,0.21326
3127.89076,0.21018
3125.83023,0.20721
3123.76970,0.20406
3121.70916,0.20090
3119.64863,0.19803
3117.58809,0.19520
3115.52756,0.19196
3113.46703,0.18857
3111.40649,0.18564
3109.34596,0.18310
3107.28542,0.18025
3105.22489,0.17707
3103.16436,0.17422
3101.10382,0.17165
3099.04329,0.16883
3096.98275,0.16593
3094.92222,0.16333
3092.86168,0.16080
3090.80115,0.15830
3088.74062,0.15590
3086.68008,0.15350
3084.61955,0.15115
3082.55901,0.14898
3080.49848,0.14683
3078.43795,0.14452
3076.37741,0.14200
3074.31688,0.13951
3072.25634,0.13731
3070.19581,0.13529
3068.13528,0.13322
3066.07474,0.13097
3064.01421,0.12863
3061.95367,0.12619
3059.89314,0.12385
3057.83261,0.12177
3055.77207,0.11974
3053.71154,0.11782
3051.65100,0.11612
3049.59047,0.11434
3047.52993,0.11239
3045.46940,0.11058
3043.40887,0.10874
3041.34833,0.10650
3039.28780,0.10419
3037.22726,0.10223
3035.16673,0.10042
3033.10620,0.09868
3031.04566,0.09723
3028.98513,0.09588
3026.92459,0.09432
3024.86406,0.09250
3022.80353,0.09032
3020.74299,0.08823
3018.68246,0.08667
3016.62192,0.08534
3014.56139,0.08390
3012.50085,0.08228
3010.44032,0.08060
3008.37979,0.07918
3006.31925,0.07807
3004.25872,0.07684
3002.19818,0.07538
3000.13765,0.07408
2998.07712,0.07306
2996.01658,0.07224
2993.95605,0.07144
2991.89551,0.07049
2989.83498,0.06949
2987.77445,0.06857
2985.71391,0.06775
2983.65338,0.06702
2981.59284,0.06624
2979.53231,0.06550
2977.47178,0.06494
2975.41124,0.06446
2973.35071,0.06390
2971.29017,0.06316
2969.22964,0.06248
2967.16910,0.06196
2965.10857,0.06146
2963.04804,0.06097
2960.98750,0.06034
2958.92697,0.05945
2956.86643,0.05838
2954.80590,0.05740
2952.74537,0.05650
2950.68483,0.05558
2948.62430,0.05479
2946.56376,0.05403
2944.50323,0.05305
2942.44270,0.05213
2940.38216,0.05161
2938.32163,0.05123
2936.26109,0.05064
2934.20056,0.04965
2932.14002,0.04850
2930.07949,0.04765
2928.01896,0.04687
2925.95842,0.04585
2923.89789,0.04465
2921.83735,0.04367
2919.77682,0.04306
2917.71629,0.04250
2915.65575,0.04177
2913.59522,0.04088
2911.53468,0.03997
2909.47415,0.03927
2907.41362,0.03859
2905.35308,0.03785
2903.29255,0.03713
2901.23201,0.03637
2899.17148,0.03564
2897.11095,0.03510
2895.05041,0.03463
2892.98988,0.03391
2890.92934,0.03308
2888.86881,0.03259
2886.80827,0.03233
2884.74774,0.03186
2882.68721,0.03130
2880.62667,0.03113
2878.56614,0.03126
2876.50560,0.03116
2874.44507,0.03081
2872.38454,0.03041
2870.32400,0.02994
2868.26347,0.02935
2866.20293,0.02864
2864.14240,0.02785
2862.08187,0.02719
2860.02133,0.02685
2857.96080,0.02655
2855.90026,0.02595
2853.83973,0.02532
2851.77919,0.02490
2849.71866,0.02466
2847.65813,0.02439
2845.59759,0.02382
2843.53706,0.02301
2841.47652,0.02246
2839.41599,0.02224
2837.35546,0.02203
2835.29492,0.02160
2833.23439,0.02095
2831.17385,0.02051
2829.11332,0.02050
2827.05279,0.02048
2824.99225,0.02024
2822.93172,0.01992
2820.87118,0.01964
2818.81065,0.01939
2816.75012,0.01920
2814.68958,0.01924
2812.62905,0.01933
2810.56851,0.01909
2808.50798,0.01859
2806.44744,0.01812
2804.38691,0.01784
2802.32638,0.01768
2800.26584,0.01757
2798.20531,0.01743
2796.14477,0.01724
2794.08424,0.01702
2792.02371,0.01673
2789.96317,0.01639
2787.90264,0.01619
2785.84210,0.01607
2783.78157,0.01587
2781.72104,0.01562
2779.66050,0.01545
2777.59997,0.01539
2775.53943,0.01531
2773.47890,0.01525
2771.41837,0.01517
2769.35783,0.01493
2767.29730,0.01471
2765.23676,0.01460
2763.17623,0.01452
2761.11569,0.01437
2759.05516,0.01407
2756.99463,0.01374
2754.93409,0.01359
2752.87356,0.01355
2750.81302,0.01345
2748.75249,0.01318
2746.69196,0.01284
2744.63142,0.01259
2742.57089,0.01257
2740.51035,0.01269
2738.44982,0.01260
2736.38929,0.01229
2734.32875,0.01211
2732.26822,0.01209
2730.20768,0.01201
2728.14715,0.01195
2726.08661,0.01191
2724.02608,0.01184
2721.96555,0.01184
2719.90501,0.01184
2717.84448,0.01180
2715.78394,0.01167
2713.72341,0.01137
2711.66288,0.01117
2709.60234,0.01124
2707.54181,0.01129
2705.48127,0.01105
2703.42074,0.01080
2701.36021,0.01070
2699.29967,0.01058
2697.23914,0.01051
2695.17860,0.01057
2693.11807,0.01061
2691.05754,0.01057
2688.99700,0.01048
2686.93647,0.01038
2684.87593,0.01033
2682.81540,0.01037
2680.75486,0.01042
2678.69433,0.01036
2676.63380,0.01039
2674.57326,0.01050
2672.51273,0.01042
2670.45219,0.01028
2668.39166,0.01033
2666.33113,0.01033
2664.27059,0.01011
2662.21006,0.00998
2660.14952,0.00996
2658.08899,0.00981
2656.02846,0.00961
2653.96792,0.00952
2651.90739,0.00955
2649.84685,0.00957
2647.78632,0.00953
2645.72578,0.00940
2643.66525,0.00917
2641.60472,0.00914
2639.54418,0.00933
2637.48365,0.00940
2635.42311,0.00929
2633.36258,0.00907
2631.30205,0.00884
2629.24151,0.00882
2627.18098,0.00885
2625.12044,0.00867
2623.05991,0.00855
2620.99938,0.00855
2618.93884,0.00856
2616.87831,0.00851
2614.81777,0.00853
2612.75724,0.00883
2610.69671,0.00929
2608.63617,0.00945
2606.57564,0.00916
2604.51510,0.00876
2602.45457,0.00847
2600.39403,0.00834
2598.33350,0.00845
2596.27297,0.00864
2594.21243,0.00858
2592.15190,0.00834
2590.09136,0.00825
2588.03083,0.00838
2585.97030,0.00858
2583.90976,0.00867
2581.84923,0.00856
2579.78869,0.00836
2577.72816,0.00828
2575.66763,0.00833
2573.60709,0.00851
2571.54656,0.00865
2569.48602,0.00852
2567.42549,0.00832
2565.36496,0.00821
2563.30442,0.00821
2561.24389,0.00836
2559.18335,0.00862
2557.12282,0.00880
2555.06228,0.00893
2553.00175,0.00913
2550.94122,0.00914
2548.88068,0.00878
2546.82015,0.00855
2544.75961,0.00873
2542.69908,0.00879
2540.63855,0.00867
2538.57801,0.00869
2536.51748,0.00864
2534.45694,0.00850
2532.39641,0.00863
2530.33588,0.00890
2528.27534,0.00892
2526.21481,0.00878
2524.15427,0.00869
2522.09374,0.00852
2520.03320,0.00838
2517.97267,0.00847
2515.91214,0.00858
2513.85160,0.00856
2511.79107,0.00859
2509.73053,0.00869
2507.67000,0.00870
2505.60947,0.00865
2503.54893,0.00866
2501.48840,0.00879
2499.42786,0.00893
2497.36733,0.00887
2495.30680,0.00874
2493.24626,0.00887
2491.18573,0.00908
2489.12519,0.00897
2487.06466,0.00890
2485.00413,0.00933
2482.94359,0.00977
2480.88306,0.00984
2478.82252,0.00979
2476.76199,0.00963
2474.70145,0.00956
2472.64092,0.00981
2470.58039,0.01001
2468.51985,0.00992
2466.45932,0.00968
2464.39878,0.00950
2462.33825,0.00948
2460.27772,0.00945
2458.21718,0.00936
2456.15665,0.00943
2454.09611,0.00972
2452.03558,0.00985
2449.97505,0.00975
2447.91451,0.00984
2445.85398,0.01006
2443.79344,0.01016
2441.73291,0.01021
2439.67237,0.01013
2437.61184,0.01002
2435.55131,0.01005
2433.49077,0.01016
2431.43024,0.01046
2429.36970,0.01103
2427.30917,0.01122
2425.24864,0.01079
2423.18810,0.01050
2421.12757,0.01041
2419.06703,0.01015
2417.00650,0.01009
2414.94597,0.01030
2412.88543,0.01039
2410.82490,0.01060
2408.76436,0.01105
2406.70383,0.01122
2404.64330,0.01112
2402.58276,0.01124
2400.52223,0.01166
2398.46169,0.01188
2396.40116,0.01160
2394.34062,0.01125
2392.28009,0.01123
2390.21956,0.01132
2388.15902,0.01136
2386.09849,0.01127
2384.03795,0.01107
2381.97742,0.01127
2379.91689,0.01172
2377.85635,0.01176
2375.79582,0.01173
2373.73528,0.01204
2371.67475,0.01213
2369.61422,0.01212
2367.55368,0.01250
2365.49315,0.01311
2363.43261,0.01367
2361.37208,0.01363
2359.31154,0.01298
2357.25101,0.01246
2355.19048,0.01246
2353.12994,0.01255
2351.06941,0.01252
2349.00887,0.01253
2346.94834,0.01254
2344.88781,0.01278
2342.82727,0.01329
2340.76674,0.01352
2338.70620,0.01371
2336.64567,0.01435
2334.58514,0.01501
2332.52460,0.01508
2330.46407,0.01463
2328.40353,0.01436
2326.34300,0.01463
2324.28247,0.01461
2322.22193,0.01390
2320.16140,0.01350
2318.10086,0.01379
2316.04033,0.01425
2313.97979,0.01450
2311.91926,0.01457
2309.85873,0.01483
2307.79819,0.01521
2305.73766,0.01540
2303.67712,0.01515
2301.61659,0.01466
2299.55606,0.01461
2297.49552,0.01505
2295.43499,0.01540
2293.37445,0.01567
2291.31392,0.01594
2289.25339,0.01579
2287.19285,0.01552
2285.13232,0.01550
2283.07178,0.01550
2281.01125,0.01547
2278.95072,0.01548
2276.89018,0.01555
2274.82965,0.01576
2272.76911,0.01582
2270.70858,0.01567
2268.64804,0.01558
2266.58751,0.01555
2264.52698,0.01586
2262.46644,0.01629
2260.40591,0.01625
2258.34537,0.01603
2256.28484,0.01621
2254.22431,0.01660
2252.16377,0.01674
2250.10324,0.01688
2248.04270,0.01701
2245.98217,0.01705
2243.92164,0.01761
2241.86110,0.01830
2239.80057,0.01848
2237.74003,0.01843
2235.67950,0.01830
2233.61896,0.01810
2231.55843,0.01788
2229.49790,0.01764
2227.43736,0.01791
2225.37683,0.01886
2223.31629,0.01953
2221.25576,0.01950
2219.19523,0.01912
2217.13469,0.01883
2215.07416,0.01905
2213.01362,0.01945
2210.95309,0.01920
2208.89256,0.01874
2206.83202,0.01898
2204.77149,0.01950
2202.71095,0.01964
2200.65042,0.01958
2198.58989,0.01973
2196.52935,0.02018
2194.46882,0.02045
2192.40828,0.02022
2190.34775,0.01988
2188.28721,0.02002
2186.22668,0.02005
2184.16615,0.01968
2182.10561,0.01979
2180.04508,0.02029
2177.98454,0.02052
2175.92401,0.02025
2173.86348,0.01966
2171.80294,0.01944
2169.74241,0.01991
2167.68187,0.02037
2165.62134,0.02031
2163.56081,0.02139
2161.50027,0.02372
2159.43974,0.02421
2157.37920,0.02277
2155.31867,0.02143
2153.25813,0.02118
2151.19760,0.02167
2149.13707,0.02147
2147.07653,0.02128
2145.01600,0.02157
2142.95546,0.02143
2140.89493,0.02123
2138.83440,0.02107
2136.77386,0.02102
2134.71333,0.02138
2132.65279,0.02181
2130.59226,0.02240
2128.53173,0.02279
2126.47119,0.02272
2124.41066,0.02295
2122.35012,0.02350
2120.28959,0.02354
2118.22906,0.02308
2116.16852,0.02278
2114.10799,0.02281
2112.04745,0.02296
2109.98692,0.02274
2107.92638,0.02242
2105.86585,0.02270
2103.80532,0.02302
2101.74478,0.02292
2099.68425,0.02289
2097.62371,0.02316
2095.56318,0.02327
2093.50265,0.02319
2091.44211,0.02307
2089.38158,0.02264
2087.32104,0.02212
2085.26051,0.02174
2083.19998,0.02120
2081.13944,0.02122
2079.07891,0.02204
2077.01837,0.02234
2074.95784,0.02196
2072.89731,0.02174
2070.83677,0.02165
2068.77624,0.02159
2066.71570,0.02159
2064.65517,0.02133
2062.59463,0.02077
2060.53410,0.02047
2058.47357,0.02078
2056.41303,0.02118
2054.35250,0.02136
2052.29196,0.02088
2050.23143,0.01906
2048.17090,0.01780
2046.11036,0.01894
2044.04983,0.02041
2041.98929,0.01993
2039.92876,0.01873
2037.86823,0.01895
2035.80769,0.01986
2033.74716,0.02026
2031.68662,0.02071
2029.62609,0.02052
2027.56555,0.01833
2025.50502,0.01580
2023.44449,0.01490
2021.38395,0.01471
2019.32342,0.01496
2017.26288,0.01577
2015.20235,0.01573
2013.14182,0.01521
2011.08128,0.01541
2009.02075,0.01548
2006.96021,0.01506
2004.89968,0.01560
2002.83915,0.01678
2000.77861,0.01704
1998.71808,0.01683
1996.65754,0.01665
1994.59701,0.01588
1992.53648,0.01497
1990.47594,0.01453
1988.41541,0.01394
1986.35487,0.01376
1984.29434,0.01469
1982.23380,0.01572
1980.17327,0.01598
1978.11274,0.01537
1976.05220,0.01470
1973.99167,0.01407
1971.93113,0.01310
1969.87060,0.01315
1967.81007,0.01461
1965.74953,0.01574
1963.68900,0.01567
1961.62846,0.01554
1959.56793,0.01603
1957.50740,0.01627
1955.44686,0.01612
1953.38633,0.01574
1951.32579,0.01509
1949.26526,0.01501
1947.20472,0.01514
1945.14419,0.01434
1943.08366,0.01336
1941.02312,0.01308
1938.96259,0.01322
1936.90205,0.01367
1934.84152,0.01382
1932.78099,0.01324
1930.72045,0.01307
1928.65992,0.01383
1926.59938,0.01440
1924.53885,0.01447
1922.47832,0.01483
1920.41778,0.01507
1918.35725,0.01436
1916.29671,0.01374
1914.23618,0.01393
1912.17565,0.01401
1910.11511,0.01367
1908.05458,0.01350
1905.99404,0.01344
1903.93351,0.01338
1901.87297,0.01355
1899.81244,0.01371
1897.75191,0.01373
1895.69137,0.01384
1893.63084,0.01421
1891.57030,0.01452
1889.50977,0.01432
1887.44924,0.01391
1885.38870,0.01370
1883.32817,0.01351
1881.26763,0.01347
1879.20710,0.01383
1877.14657,0.01440
1875.08603,0.01457
1873.02550,0.01422
1870.96496,0.01398
1868.90443,0.01381
1866.84389,0.01363
1864.78336,0.01385
1862.72283,0.01428
1860.66229,0.01469
1858.60176,0.01496
1856.54122,0.01497
1854.48069,0.01482
1852.42016,0.01461
1850.35962,0.01458
1848.29909,0.01482
1846.23855,0.01502
1844.17802,0.01500
1842.11749,0.01493
1840.05695,0.01504
1837.99642,0.01517
1835.93588,0.01508
1833.87535,0.01492
1831.81482,0.01505
1829.75428,0.01531
1827.69375,0.01524
1825.63321,0.01503
1823.57268,0.01516
1821.51214,0.01538
1819.45161,0.01547
1817.39108,0.01569
1815.33054,0.01601
1813.27001,0.01632
1811.20947,0.01660
1809.14894,0.01686
1807.08841,0.01699
1805.02787,0.01693
1802.96734,0.01696
1800.90680,0.01713
1798.84627,0.01730
1796.78574,0.01756
1794.72520,0.01794
1792.66467,0.01825
1790.60413,0.01840
1788.54360,0.01875
1786.48307,0.01931
1784.42253,0.01967
1782.36200,0.01970
1780.30146,0.01961
1778.24093,0.01982
1776.18039,0.02039
1774.11986,0.02099
1772.05933,0.02144
1769.99879,0.02180
1767.93826,0.02214
1765.87772,0.02245
1763.81719,0.02261
1761.75666,0.02280
1759.69612,0.02336
1757.63559,0.02405
1755.57505,0.02453
1753.51452,0.02476
1751.45399,0.02529
1749.39345,0.02624
1747.33292,0.02708
1745.27238,0.02785
1743.21185,0.02867
1741.15131,0.02957
1739.09078,0.03054
1737.03025,0.03140
1734.96971,0.03215
1732.90918,0.03322
1730.84864,0.03441
1728.78811,0.03568
1726.72758,0.03711
1724.66704,0.03868
1722.60651,0.04026
1720.54597,0.04157
1718.48544,0.04290
1716.42491,0.04475
1714.36437,0.04696
1712.30384,0.04914
1710.24330,0.05135
1708.18277,0.05354
1706.12224,0.05606
1704.06170,0.05891
1702.00117,0.06195
1699.94063,0.06597
1697.88010,0.07025
1695.81956,0.07453
1693.75903,0.07900
1691.69850,0.08322
1689.63796,0.08814
1687.57743,0.09341
1685.51689,0.09942
1683.45636,0.10752
1681.39583,0.11453
1679.33529,0.12022
1677.27476,0.12596
1675.21422,0.13286
1673.15369,0.14053
1671.09316,0.14849
1669.03262,0.15819
1666.97209,0.16786
1664.91155,0.17714
1662.85102,0.18864
1660.79048,0.20094
1658.72995,0.21130
1656.66942,0.21969
1654.60888,0.22709
1652.54835,0.23436
1650.48781,0.23820
1648.42728,0.23966
1646.36675,0.24029
1644.30621,0.24033
1642.24568,0.24018
1640.18514,0.24011
1638.12461,0.23985
1636.06408,0.23807
1634.00354,0.23479
1631.94301,0.23186
1629.88247,0.22834
1627.82194,0.22331
1625.76141,0.21741
1623.70087,0.21023
1621.64034,0.20235
1619.57980,0.19558
1617.51927,0.18799
1615.45873,0.17899
1613.39820,0.17155
1611.33767,0.16480
1609.27713,0.15770
1607.21660,0.15095
1605.15606,0.14507
1603.09553,0.13968
1601.03500,0.13461
1598.97446,0.13010
1596.91393,0.12610
1594.85339,0.12229
1592.79286,0.11879
1590.73233,0.11581
1588.67179,0.11346
1586.61126,0.11179
1584.55072,0.11049
1582.49019,0.10943
1580.42966,0.10886
1578.36912,0.10868
1576.30859,0.10857
1574.24805,0.10869
1572.18752,0.10924
1570.12698,0.11021
1568.06645,0.11156
1566.00592,0.11338
1563.94538,0.11576
1561.88485,0.11831
1559.82431,0.12199
1557.76378,0.12770
1555.70325,0.13244
1553.64271,0.13666
1551.58218,0.14040
1549.52164,0.14322
1547.46111,0.14496
1545.40058,0.14549
1543.34004,0.14471
1541.27951,0.14192
1539.21897,0.13630
1537.15844,0.13120
1535.09790,0.12687
1533.03737,0.12159
1530.97684,0.11684
1528.91630,0.11314
1526.85577,0.10942
1524.79523,0.10608
1522.73470,0.10307
1520.67417,0.09990
1518.61363,0.09750
1516.55310,0.09523
1514.49256,0.09245
1512.43203,0.08962
1510.37150,0.08677
1508.31096,0.08350
1506.25043,0.07950
1504.18989,0.07698
1502.12936,0.07568
1500.06883,0.07435
1498.00829,0.07271
1495.94776,0.07063
1493.88722,0.06874
1491.82669,0.06726
1489.76615,0.06582
1487.70562,0.06474
1485.64509,0.06409
1483.58455,0.06353
1481.52402,0.06306
1479.46348,0.06293
1477.40295,0.06315
1475.34242,0.06358
1473.28188,0.06424
1471.22135,0.06516
1469.16081,0.06577
1467.10028,0.06584
1465.03975,0.06579
1462.97921,0.06624
1460.91868,0.06697
1458.85814,0.06761
1456.79761,0.06826
1454.73707,0.06865
1452.67654,0.06849
1450.61601,0.06811
1448.55547,0.06780
1446.49494,0.06749
1444.43440,0.06717
1442.37387,0.06681
1440.31334,0.06633
1438.25280,0.06565
1436.19227,0.06467
1434.13173,0.06385
1432.07120,0.06349
1430.01067,0.06346
1427.95013,0.06377
1425.88960,0.06439
1423.82906,0.06527
1421.76853,0.06622
1419.70800,0.06698
1417.64746,0.06748
1415.58693,0.06792
1413.52639,0.06855
1411.46586,0.06936
1409.40532,0.07039
1407.34479,0.07169
1405.28426,0.07309
1403.22372,0.07415
1401.16319,0.07460
1399.10265,0.07446
1397.04212,0.07393
1394.98159,0.07324
1392.92105,0.07234
1390.86052,0.07125
1388.79998,0.06986
1386.73945,0.06825
1384.67892,0.06674
1382.61838,0.06524
1380.55785,0.06362
1378.49731,0.06221
1376.43678,0.06127
1374.37624,0.06075
1372.31571,0.06054
1370.25518,0.06048
1368.19464,0.06031
1366.13411,0.06000
1364.07357,0.05973
1362.01304,0.05951
1359.95251,0.05934
1357.89197,0.05920
1355.83144,0.05905
1353.77090,0.05897
1351.71037,0.05901
1349.64984,0.05924
1347.58930,0.05945
1345.52877,0.05941
1343.46823,0.05945
1341.40770,0.05967
1339.34717,0.05980
1337.28663,0.05987
1335.22610,0.06003
1333.16556,0.06029
1331.10503,0.06056
1329.04449,0.06097
1326.98396,0.06162
1324.92343,0.06231
1322.86289,0.06303
1320.80236,0.06375
1318.74182,0.06441
1316.68129,0.06500
1314.62076,0.06546
1312.56022,0.06575
1310.49969,0.06584
1308.43915,0.06578
1306.37862,0.06580
1304.31809,0.06593
1302.25755,0.06601
1300.19702,0.06600
1298.13648,0.06600
1296.07595,0.06598
1294.01542,0.06584
1291.95488,0.06559
1289.89435,0.06527
1287.83381,0.06496
1285.77328,0.06465
1283.71274,0.06439
1281.65221,0.06415
1279.59168,0.06377
1277.53114,0.06337
1275.47061,0.06320
1273.41007,0.06317
1271.34954,0.06319
1269.28901,0.06314
1267.22847,0.06293
1265.16794,0.06262
1263.10740,0.06236
1261.04687,0.06222
1258.98634,0.06224
1256.92580,0.06237
1254.86527,0.06244
1252.80473,0.06237
1250.74420,0.06228
1248.68366,0.06231
1246.62313,0.06251
1244.56260,0.06269
1242.50206,0.06253
1240.44153,0.06205
1238.38099,0.06148
1236.32046,0.06086
1234.25993,0.06021
1232.19939,0.05954
1230.13886,0.05890
1228.07832,0.05844
1226.01779,0.05804
1223.95726,0.05751
1221.89672,0.05712
1219.83619,0.05702
1217.77565,0.05696
1215.71512,0.05677
1213.65459,0.05660
1211.59405,0.05661
1209.53352,0.05648
1207.47298,0.05612
1205.41245,0.05592
1203.35191,0.05581
1201.29138,0.05555
1199.23085,0.05536
1197.17031,0.05540
1195.10978,0.05545
1193.04924,0.05532
1190.98871,0.05509
1188.92818,0.05505
1186.86764,0.05528
1184.80711,0.05556
1182.74657,0.05587
1180.68604,0.05628
1178.62551,0.05671
1176.56497,0.05714
1174.50444,0.05750
1172.44390,0.05764
1170.38337,0.05750
1168.32283,0.05720
1166.26230,0.05691
1164.20177,0.05678
1162.14123,0.05684
1160.08070,0.05680
1158.02016,0.05647
1155.95963,0.05606
1153.89910,0.05569
1151.83856,0.05538
1149.77803,0.05515
1147.71749,0.05491
1145.65696,0.05458
1143.59643,0.05431
1141.53589,0.05424
1139.47536,0.05441
1137.41482,0.05477
1135.35429,0.05527
1133.29376,0.05576
1131.23322,0.05607
1129.17269,0.05623
1127.11215,0.05652
1125.05162,0.05685
1122.99108,0.05693
1120.93055,0.05690
1118.87002,0.05700
1116.80948,0.05708
1114.74895,0.05710
1112.68841,0.05717
1110.62788,0.05725
1108.56735,0.05741
1106.50681,0.05765
1104.44628,0.05765
1102.38574,0.05734
1100.32521,0.05708
1098.26468,0.05718
1096.20414,0.05741
1094.14361,0.05762
1092.08307,0.05796
1090.02254,0.05824
1087.96201,0.05834
1085.90147,0.05861
1083.84094,0.05896
1081.78040,0.05919
1079.71987,0.05931
1077.65933,0.05917
1075.59880,0.05892
1073.53827,0.05871
1071.47773,0.05841
1069.41720,0.05806
1067.35666,0.05784
1065.29613,0.05761
1063.23560,0.05731
1061.17506,0.05720
1059.11453,0.05722
1057.05399,0.05718
1054.99346,0.05717
1052.93293,0.05714
1050.87239,0.05684
1048.81186,0.05641
1046.75132,0.05619
1044.69079,0.05620
1042.63025,0.05639
1040.56972,0.05661
1038.50919,0.05669
1036.44865,0.05661
1034.38812,0.05654
1032.32758,0.05655
1030.26705,0.05666
1028.20652,0.05678
1026.14598,0.05667
1024.08545,0.05642
1022.02491,0.05643
1019.96438,0.05682
1017.90385,0.05723
1015.84331,0.05735
1013.78278,0.05720
1011.72224,0.05718
1009.66171,0.05745
1007.60118,0.05776
1005.54064,0.05806
1003.48011,0.05843
1001.41957,0.05887
999.35904,0.05931
997.29850,0.05975
995.23797,0.06032
993.17744,0.06095
991.11690,0.06140
989.05637,0.06168
986.99583,0.06199
984.93530,0.06233
982.87477,0.06269
980.81423,0.06291
978.75370,0.06307
976.69316,0.06336
974.63263,0.06372
972.57210,0.06408
970.51156,0.06453
968.45103,0.06510
966.39049,0.06572
964.32996,0.06632
962.26942,0.06691
960.20889,0.06765
958.14836,0.06859
956.08782,0.06948
954.02729,0.07035
951.96675,0.07124
949.90622,0.07203
947.84569,0.07282
945.78515,0.07378
943.72462,0.07478
941.66408,0.07578
939.60355,0.07699
937.54302,0.07822
935.48248,0.07923
933.42195,0.08009
931.36141,0.08097
929.30088,0.08193
927.24035,0.08289
925.17981,0.08393
923.11928,0.08511
921.05874,0.08639
918.99821,0.08768
916.93767,0.08879
914.87714,0.08992
912.81661,0.09127
910.75607,0.09264
908.69554,0.09402
906.63500,0.09545
904.57447,0.09691
902.51394,0.09847
900.45340,0.10002
898.39287,0.10171
896.33233,0.10362
894.27180,0.10550
892.21127,0.10702
890.15073,0.10848
888.09020,0.11041
886.02966,0.11241
883.96913,0.11425
881.90859,0.11615
879.84806,0.11811
877.78753,0.12002
875.72699,0.12198
873.66646,0.12429
871.60592,0.12668
869.54539,0.12863
867.48486,0.13046
865.42432,0.13242
863.36379,0.13446
861.30325,0.13670
859.24272,0.13930
857.18219,0.14183
855.12165,0.14408
853.06112,0.14652
851.00058,0.14934
848.94005,0.15216
846.87952,0.15461
844.81898,0.15682
842.75845,0.15901
840.69791,0.16111
838.63738,0.16301
836.57684,0.16496
834.51631,0.16737
832.45578,0.17018
830.39524,0.17305
828.33471,0.17563
826.27417,0.17809
824.21364,0.18096
822.15311,0.18407
820.09257,0.18684
818.03204,0.18884
815.97150,0.19039
813.91097,0.19246
811.85044,0.19544
809.78990,0.19860
807.72937,0.20141
805.66883,0.20397
803.60830,0.20642
801.54777,0.20896
799.48723,0.21148
797.42670,0.21417
795.36616,0.21714
793.30563,0.21981
791.24509,0.22219
789.18456,0.22474
787.12403,0.22748
785.06349,0.23028
783.00296,0.23295
780.94242,0.23566
778.88189,0.23848
776.82136,0.24091
774.76082,0.24354
772.70029,0.24675
770.63975,0.24958
768.57922,0.25190
766.51869,0.25436
764.45815,0.25731
762.39762,0.26054
760.33708,0.26319
758.27655,0.26547
756.21601,0.26845
754.15548,0.27192
752.09495,0.27493
750.03441,0.27762
747.97388,0.28057
745.91334,0.28356
743.85281,0.28631
741.79228,0.28902
739.73174,0.29165
737.67121,0.29431
735.61067,0.29724
733.55014,0.29998
731.48961,0.30190
729.42907,0.30359
727.36854,0.30636
725.30800,0.30979
723.24747,0.31281
721.18694,0.31583
719.12640,0.31907
717.06587,0.32236
715.00533,0.32542
712.94480,0.32827
710.88426,0.33125
708.82373,0.33409
706.76320,0.33672
704.70266,0.33977
702.64213,0.34336
700.58159,0.34697
698.52106,0.35031
696.46053,0.35293
694.39999,0.35502
692.33946,0.35741
690.27892,0.36002
688.21839,0.36227
686.15786,0.36388
684.09732,0.36534
682.03679,0.36808
679.97625,0.37240
677.91572,0.37630
675.85518,0.37873
673.79465,0.38098
671.73412,0.38327
669.67358,0.38560
667.61305,0.38944
665.55251,0.39262
663.49198,0.39470
661.43145,0.39680
659.37091,0.39814
657.31038,0.39989
655.24984,0.40326
653.18931,0.40622
651.12878,0.40852
649.06824,0.41190
647.00771,0.41539
644.94717,0.41749
642.88664,0.41918
640.82611,0.42140
638.76557,0.42377
636.70504,0.42653
634.64450,0.42967
632.58397,0.43232
630.52343,0.43416
628.46290,0.43609
626.40237,0.43940
624.34183,0.44371
622.28130,0.44716
620.22076,0.44835
618.16023,0.44817
616.09970,0.44933
614.03916,0.45306
611.97863,0.45751
609.91809,0.46033
607.85756,0.46179
605.79703,0.46319
603.73649,0.46476
601.67596,0.46671
599.61542,0.46903
597.55489,0.47166
595.49436,0.47448
593.43382,0.47596
591.37329,0.47641
589.31275,0.47848
587.25222,0.48160
585.19168,0.48359
583.13115,0.48515
581.07062,0.48787
579.01008,0.49065
576.94955,0.49226
574.88901,0.49347
572.82848,0.49499
570.76795,0.49749
568.70741,0.50082
566.64688,0.50343
564.58634,0.50408
562.52581,0.50391
560.46528,0.50580
558.40474,0.50933
556.34421,0.51115
554.28367,0.51145
552.22314,0.51306
550.16260,0.51406
548.10207,0.51312
546.04154,0.51368
543.98100,0.51681
541.92047,0.52023
539.85993,0.52149
537.79940,0.52177
535.73887,0.52444
533.67833,0.52865
531.61780,0.53205
529.55726,0.53405
527.49673,0.53321
525.43620,0.53099
523.37566,0.53267
521.31513,0.53793
519.25459,0.54204
517.19406,0.54396
515.13353,0.54386
513.07299,0.54165
511.01246,0.54065
508.95192,0.54104
506.89139,0.54132
504.83085,0.54437
502.77032,0.54916
500.70979,0.55002
498.64925,0.54772
496.58872,0.54753
494.52818,0.54947
492.46765,0.55049
490.40712,0.55110
488.34658,0.55196
486.28605,0.55303
484.22551,0.55522
482.16498,0.55810
480.10445,0.55970
478.04391,0.56069
475.98338,0.56172
473.92284,0.56050
471.86231,0.55961
469.80177,0.56088
467.74124,0.56230
465.68071,0.56384
463.62017,0.56476
461.55964,0.56599
459.49910,0.56825
457.43857,0.56982
455.37804,0.56993
453.31750,0.56915
451.25697,0.56881
449.19643,0.56869
447.13590,0.56874
445.07537,0.56980
443.01483,0.57020
440.95430,0.56984
438.89376,0.56953
436.83323,0.57081
434.77270,0.57469
432.71216,0.57685
430.65163,0.57780
428.59109,0.58224
426.53056,0.58721
424.47002,0.58748
422.40949,0.58790
420.34896,0.58810
418.28842,0.58100
416.22789,0.57425
414.16735,0.57246
412.10682,0.57340
410.04629,0.57436
407.98575,0.57672
405.92522,0.58221
403.86468,0.58612
401.80415,0.58382
399.74362,0.58022
