4996.79519,0.00304
4994.73466,0.00350
4992.67413,0.00334
4990.61359,0.00392
4988.55306,0.00489
4986.49252,0.00483
4984.43199,0.00425
4982.37145,0.00364
4980.31092,0.00282
4978.25039,0.00207
4976.18985,0.00183
4974.12932,0.00230
4972.06878,0.00298
4970.00825,0.00340
4967.94772,0.00368
4965.88718,0.00408
4963.82665,0.00460
4961.76611,0.00447
4959.70558,0.00387
4957.64505,0.00374
4955.58451,0.00367
4953.52398,0.00331
4951.46344,0.00329
4949.40291,0.00352
4947.34238,0.00345
4945.28184,0.00339
4943.22131,0.00384
4941.16077,0.00404
4939.10024,0.00352
4937.03970,0.00318
4934.97917,0.00303
4932.91864,0.00280
4930.85810,0.00299
4928.79757,0.00334
4926.73703,0.00314
4924.67650,0.00249
4922.61597,0.00225
4920.55543,0.00263
4918.49490,0.00295
4916.43436,0.00327
4914.37383,0.00385
4912.31330,0.00407
4910.25276,0.00322
4908.19223,0.00186
4906.13169,0.00123
4904.07116,0.00175
4902.01062,0.00316
4899.95009,0.00435
4897.88956,0.00461
4895.82902,0.00444
4893.76849,0.00395
4891.70795,0.00290
4889.64742,0.00211
4887.58689,0.00224
4885.52635,0.00259
4883.46582,0.00312
4881.40528,0.00384
4879.34475,0.00395
4877.28422,0.00380
4875.22368,0.00391
4873.16315,0.00412
4871.10261,0.00387
4869.04208,0.00288
4866.98155,0.00208
4864.92101,0.00203
4862.86048,0.00232
4860.79994,0.00274
4858.73941,0.00302
4856.67887,0.00322
4854.61834,0.00353
4852.55781,0.00362
4850.49727,0.00349
4848.43674,0.00350
4846.37620,0.00393
4844.31567,0.00424
4842.25514,0.00404
4840.19460,0.00353
4838.13407,0.00285
4836.07353,0.00260
4834.01300,0.00297
4831.95247,0.00324
4829.89193,0.00313
4827.83140,0.00317
4825.77086,0.00342
4823.71033,0.00324
4821.64979,0.00277
4819.58926,0.00271
4817.52873,0.00294
4815.46819,0.00307
4813.40766,0.00315
4811.34712,0.00343
4809.28659,0.00356
4807.22606,0.00312
4805.16552,0.00276
4803.10499,0.00260
4801.04445,0.00225
4798.98392,0.00209
4796.92339,0.00213
4794.86285,0.00181
4792.80232,0.00138
4790.74178,0.00157
4788.68125,0.00189
4786.62072,0.00182
4784.56018,0.00186
4782.49965,0.00228
4780.43911,0.00270
4778.37858,0.00269
4776.31804,0.00245
4774.25751,0.00260
4772.19698,0.00314
4770.13644,0.00353
4768.07591,0.00352
4766.01537,0.00311
4763.95484,0.00268
4761.89431,0.00260
4759.83377,0.00252
4757.77324,0.00226
4755.71270,0.00233
4753.65217,0.00253
4751.59164,0.00250
4749.53110,0.00267
4747.47057,0.00309
4745.41003,0.00330
4743.34950,0.00313
4741.28897,0.00306
4739.22843,0.00324
4737.16790,0.00317
4735.10736,0.00300
4733.04683,0.00290
4730.98629,0.00281
4728.92576,0.00286
4726.86523,0.00309
4724.80469,0.00331
4722.74416,0.00318
4720.68362,0.00286
4718.62309,0.00270
4716.56256,0.00250
4714.50202,0.00222
4712.44149,0.00219
4710.38095,0.00227
4708.32042,0.00205
4706.25989,0.00150
4704.19935,0.00109
4702.13882,0.00126
4700.07828,0.00189
4698.01775,0.00238
4695.95721,0.00263
4693.89668,0.00298
4691.83615,0.00320
4689.77561,0.00298
4687.71508,0.00282
4685.65454,0.00321
4683.59401,0.00396
4681.53348,0.00397
4679.47294,0.00275
4677.41241,0.00185
4675.35187,0.00206
4673.29134,0.00231
4671.23081,0.00216
4669.17027,0.00211
4667.10974,0.00232
4665.04920,0.00246
4662.98867,0.00256
4660.92814,0.00293
4658.86760,0.00295
4656.80707,0.00222
4654.74653,0.00176
4652.68600,0.00199
4650.62546,0.00238
4648.56493,0.00280
4646.50440,0.00307
4644.44386,0.00301
4642.38333,0.00307
4640.32279,0.00327
4638.26226,0.00281
4636.20173,0.00216
4634.14119,0.00244
4632.08066,0.00321
4630.02012,0.00367
4627.95959,0.00354
4625.89906,0.00301
4623.83852,0.00271
4621.77799,0.00247
4619.71745,0.00232
4617.65692,0.00280
4615.59638,0.00315
4613.53585,0.00272
4611.47532,0.00252
4609.41478,0.00283
4607.35425,0.00272
4605.29371,0.00235
4603.23318,0.00228
4601.17265,0.00222
4599.11211,0.00199
4597.05158,0.00192
4594.99104,0.00182
4592.93051,0.00188
4590.86998,0.00221
4588.80944,0.00231
4586.74891,0.00243
4584.68837,0.00243
4582.62784,0.00215
4580.56731,0.00209
4578.50677,0.00214
4576.44624,0.00216
4574.38570,0.00228
4572.32517,0.00239
4570.26463,0.00232
4568.20410,0.00203
4566.14357,0.00148
4564.08303,0.00096
4562.02250,0.00077
4559.96196,0.00123
4557.90143,0.00232
4555.84090,0.00299
4553.78036,0.00292
4551.71983,0.00279
4549.65929,0.00276
4547.59876,0.00275
4545.53823,0.00290
4543.47769,0.00314
4541.41716,0.00324
4539.35662,0.00319
4537.29609,0.00305
4535.23556,0.00288
4533.17502,0.00280
4531.11449,0.00255
4529.05395,0.00205
4526.99342,0.00188
4524.93288,0.00215
4522.87235,0.00229
4520.81182,0.00219
4518.75128,0.00228
4516.69075,0.00237
4514.63021,0.00205
4512.56968,0.00162
4510.50915,0.00138
4508.44861,0.00142
4506.38808,0.00206
4504.32754,0.00310
4502.26701,0.00362
4500.20648,0.00333
4498.14594,0.00264
4496.08541,0.00210
4494.02487,0.00204
4491.96434,0.00235
4489.90380,0.00283
4487.84327,0.00319
4485.78274,0.00308
4483.72220,0.00256
4481.66167,0.00223
4479.60113,0.00238
4477.54060,0.00267
4475.48007,0.00267
4473.41953,0.00242
4471.35900,0.00237
4469.29846,0.00265
4467.23793,0.00283
4465.17740,0.00258
4463.11686,0.00234
4461.05633,0.00251
4458.99579,0.00284
4456.93526,0.00290
4454.87473,0.00264
4452.81419,0.00248
4450.75366,0.00268
4448.69312,0.00277
4446.63259,0.00241
4444.57205,0.00191
4442.51152,0.00164
4440.45099,0.00171
4438.39045,0.00191
4436.32992,0.00208
4434.26938,0.00230
4432.20885,0.00250
4430.14832,0.00256
4428.08778,0.00257
4426.02725,0.00272
4423.96671,0.00287
4421.90618,0.00298
4419.84565,0.00312
4417.78511,0.00305
4415.72458,0.00276
4413.66404,0.00253
4411.60351,0.00246
4409.54297,0.00255
4407.48244,0.00253
4405.42191,0.00204
4403.36137,0.00164
4401.30084,0.00203
4399.24030,0.00269
4397.17977,0.00293
4395.11924,0.00281
4393.05870,0.00258
4390.99817,0.00229
4388.93763,0.00226
4386.87710,0.00248
4384.81657,0.00264
4382.75603,0.00273
4380.69550,0.00265
4378.63496,0.00264
4376.57443,0.00287
4374.51390,0.00282
4372.45336,0.00246
4370.39283,0.00231
4368.33229,0.00269
4366.27176,0.00315
4364.21122,0.00318
4362.15069,0.00289
4360.09016,0.00254
4358.02962,0.00246
4355.96909,0.00259
4353.90855,0.00256
4351.84802,0.00259
4349.78749,0.00260
4347.72695,0.00233
4345.66642,0.00210
4343.60588,0.00209
4341.54535,0.00203
4339.48482,0.00211
4337.42428,0.00259
4335.36375,0.00299
4333.30321,0.00298
4331.24268,0.00278
4329.18214,0.00253
4327.12161,0.00229
4325.06108,0.00230
4323.00054,0.00288
4320.94001,0.00370
4318.87947,0.00355
4316.81894,0.00254
4314.75841,0.00230
4312.69787,0.00296
4310.63734,0.00324
4308.57680,0.00305
4306.51627,0.00278
4304.45574,0.00237
4302.39520,0.00227
4300.33467,0.00260
4298.27413,0.00254
4296.21360,0.00216
4294.15307,0.00242
4292.09253,0.00319
4290.03200,0.00362
4287.97146,0.00333
4285.91093,0.00274
4283.85039,0.00240
4281.78986,0.00235
4279.72933,0.00239
4277.66879,0.00230
4275.60826,0.00218
4273.54772,0.00225
4271.48719,0.00236
4269.42666,0.00265
4267.36612,0.00309
4265.30559,0.00311
4263.24505,0.00280
4261.18452,0.00251
4259.12399,0.00245
4257.06345,0.00294
4255.00292,0.00334
4252.94238,0.00308
4250.88185,0.00290
4248.82132,0.00304
4246.76078,0.00316
4244.70025,0.00320
4242.63971,0.00285
4240.57918,0.00245
4238.51864,0.00243
4236.45811,0.00233
4234.39758,0.00211
4232.33704,0.00232
4230.27651,0.00273
4228.21597,0.00276
4226.15544,0.00251
4224.09491,0.00241
4222.03437,0.00251
4219.97384,0.00263
4217.91330,0.00265
4215.85277,0.00270
4213.79224,0.00273
4211.73170,0.00252
4209.67117,0.00246
4207.61063,0.00301
4205.55010,0.00352
4203.48956,0.00315
4201.42903,0.00258
4199.36850,0.00272
4197.30796,0.00307
4195.24743,0.00318
4193.18689,0.00334
4191.12636,0.00338
4189.06583,0.00310
4187.00529,0.00284
4184.94476,0.00273
4182.88422,0.00288
4180.82369,0.00329
4178.76316,0.00341
4176.70262,0.00304
4174.64209,0.00272
4172.58155,0.00269
4170.52102,0.00270
4168.46049,0.00278
4166.39995,0.00313
4164.33942,0.00350
4162.27888,0.00372
4160.21835,0.00369
4158.15781,0.00352
4156.09728,0.00360
4154.03675,0.00380
4151.97621,0.00375
4149.91568,0.00340
4147.85514,0.00298
4145.79461,0.00282
4143.73408,0.00284
4141.67354,0.00279
4139.61301,0.00282
4137.55247,0.00295
4135.49194,0.00305
4133.43141,0.00318
4131.37087,0.00318
4129.31034,0.00305
4127.24980,0.00313
4125.18927,0.00322
4123.12873,0.00317
4121.06820,0.00337
4119.00767,0.00375
4116.94713,0.00392
4114.88660,0.00383
4112.82606,0.00366
4110.76553,0.00371
4108.70500,0.00393
4106.64446,0.00403
4104.58393,0.00393
4102.52339,0.00368
4100.46286,0.00332
4098.40233,0.00316
4096.34179,0.00336
4094.28126,0.00371
4092.22072,0.00389
4090.16019,0.00386
4088.09966,0.00392
4086.03912,0.00405
4083.97859,0.00398
4081.91805,0.00379
4079.85752,0.00373
4077.79698,0.00364
4075.73645,0.00341
4073.67592,0.00345
4071.61538,0.00356
4069.55485,0.00346
4067.49431,0.00368
4065.43378,0.00405
4063.37325,0.00394
4061.31271,0.00374
4059.25218,0.00373
4057.19164,0.00361
4055.13111,0.00370
4053.07058,0.00421
4051.01004,0.00445
4048.94951,0.00412
4046.88897,0.00364
4044.82844,0.00340
4042.76791,0.00331
4040.70737,0.00344
4038.64684,0.00395
4036.58630,0.00442
4034.52577,0.00443
4032.46523,0.00409
4030.40470,0.00394
4028.34417,0.00415
4026.28363,0.00440
4024.22310,0.00436
4022.16256,0.00412
4020.10203,0.00406
4018.04150,0.00399
4015.98096,0.00366
4013.92043,0.00350
4011.85989,0.00384
4009.79936,0.00439
4007.73883,0.00453
4005.67829,0.00427
4003.61776,0.00416
4001.55722,0.00415
3999.49669,0.00398
3997.43615,0.00404
3995.37562,0.00438
3993.31509,0.00435
3991.25455,0.00406
3989.19402,0.00404
3987.13348,0.00416
3985.07295,0.00422
3983.01242,0.00450
3980.95188,0.00486
3978.89135,0.00490
3976.83081,0.00480
3974.77028,0.00456
3972.70975,0.00419
3970.64921,0.00415
3968.58868,0.00431
3966.52814,0.00444
3964.46761,0.00459
3962.40708,0.00457
3960.34654,0.00451
3958.28601,0.00462
3956.22547,0.00480
3954.16494,0.00477
3952.10440,0.00449
3950.04387,0.00431
3947.98334,0.00429
3945.92280,0.00416
3943.86227,0.00406
3941.80173,0.00409
3939.74120,0.00422
3937.68067,0.00458
3935.62013,0.00491
3933.55960,0.00488
3931.49906,0.00481
3929.43853,0.00498
3927.37800,0.00492
3925.31746,0.00453
3923.25693,0.00437
3921.19639,0.00447
3919.13586,0.00448
3917.07532,0.00466
3915.01479,0.00491
3912.95426,0.00493
3910.89372,0.00483
3908.83319,0.00478
3906.77265,0.00472
3904.71212,0.00444
3902.65159,0.00411
3900.59105,0.00415
3898.53052,0.00424
3896.46998,0.00421
3894.40945,0.00425
3892.34892,0.00436
3890.28838,0.00452
3888.22785,0.00469
3886.16731,0.00460
3884.10678,0.00416
3882.04625,0.00392
3879.98571,0.00402
3877.92518,0.00418
3875.86464,0.00444
3873.80411,0.00481
3871.74357,0.00511
3869.68304,0.00523
3867.62251,0.00500
3865.56197,0.00469
3863.50144,0.00464
3861.44090,0.00463
3859.38037,0.00437
3857.31984,0.00421
3855.25930,0.00456
3853.19877,0.00527
3851.13823,0.00557
3849.07770,0.00549
3847.01717,0.00539
3844.95663,0.00539
3842.89610,0.00534
3840.83556,0.00510
3838.77503,0.00451
3836.71449,0.00388
3834.65396,0.00406
3832.59343,0.00459
3830.53289,0.00478
3828.47236,0.00485
3826.41182,0.00511
3824.35129,0.00537
3822.29076,0.00526
3820.23022,0.00478
3818.16969,0.00450
3816.10915,0.00471
3814.04862,0.00508
3811.98809,0.00511
3809.92755,0.00490
3807.86702,0.00468
3805.80648,0.00466
3803.74595,0.00511
3801.68542,0.00557
3799.62488,0.00539
3797.56435,0.00525
3795.50381,0.00558
3793.44328,0.00602
3791.38274,0.00615
3789.32221,0.00607
3787.26168,0.00611
3785.20114,0.00610
3783.14061,0.00587
3781.08007,0.00573
3779.01954,0.00584
3776.95901,0.00600
3774.89847,0.00597
3772.83794,0.00576
3770.77740,0.00568
3768.71687,0.00599
3766.65634,0.00630
3764.59580,0.00628
3762.53527,0.00630
3760.47473,0.00647
3758.41420,0.00646
3756.35367,0.00642
3754.29313,0.00655
3752.23260,0.00655
3750.17206,0.00658
3748.11153,0.00700
3746.05099,0.00734
3743.99046,0.00729
3741.92993,0.00727
3739.86939,0.00759
3737.80886,0.00804
3735.74832,0.00854
3733.68779,0.00887
3731.62726,0.00875
3729.56672,0.00861
3727.50619,0.00872
3725.44565,0.00885
3723.38512,0.00883
3721.32459,0.00898
3719.26405,0.00949
3717.20352,0.01005
3715.14298,0.01037
3713.08245,0.01055
3711.02191,0.01091
3708.96138,0.01137
3706.90085,0.01182
3704.84031,0.01269
3702.77978,0.01402
3700.71924,0.01499
3698.65871,0.01526
3696.59818,0.01563
3694.53764,0.01650
3692.47711,0.01755
3690.41657,0.01890
3688.35604,0.02052
3686.29551,0.02165
3684.23497,0.02251
3682.17444,0.02350
3680.11390,0.02446
3678.05337,0.02554
3675.99284,0.02744
3673.93230,0.02962
3671.87177,0.03079
3669.81123,0.03212
3667.75070,0.03438
3665.69016,0.03650
3663.62963,0.03843
3661.56910,0.04033
3659.50856,0.04194
3657.44803,0.04367
3655.38749,0.04586
3653.32696,0.04782
3651.26643,0.04949
3649.20589,0.05176
3647.14536,0.05440
3645.08482,0.05658
3643.02429,0.05857
3640.96376,0.06075
3638.90322,0.06310
3636.84269,0.06539
3634.78215,0.06731
3632.72162,0.06869
3630.66108,0.06997
3628.60055,0.07198
3626.54002,0.07399
3624.47948,0.07547
3622.41895,0.07706
3620.35841,0.07897
3618.29788,0.08091
3616.23735,0.08270
3614.17681,0.08442
3612.11628,0.08573
3610.05574,0.08675
3607.99521,0.08823
3605.93468,0.09048
3603.87414,0.09289
3601.81361,0.09492
3599.75307,0.09669
3597.69254,0.09858
3595.63201,0.10066
3593.57147,0.10271
3591.51094,0.10438
3589.45040,0.10573
3587.38987,0.10742
3585.32933,0.10972
3583.26880,0.11199
3581.20827,0.11371
3579.14773,0.11525
3577.08720,0.11715
3575.02666,0.11910
3572.96613,0.12072
3570.90560,0.12211
3568.84506,0.12376
3566.78453,0.12634
3564.72399,0.12934
3562.66346,0.13170
3560.60293,0.13359
3558.54239,0.13556
3556.48186,0.13782
3554.42132,0.14016
3552.36079,0.14247
3550.30026,0.14465
3548.23972,0.14665
3546.17919,0.14867
3544.11865,0.15117
3542.05812,0.15412
3539.99758,0.15667
3537.93705,0.15855
3535.87652,0.16065
3533.81598,0.16343
3531.75545,0.16597
3529.69491,0.16792
3527.63438,0.16994
3525.57385,0.17223
3523.51331,0.17444
3521.45278,0.17657
3519.39224,0.17899
3517.33171,0.18164
3515.27118,0.18423
3513.21064,0.18674
3511.15011,0.18915
3509.08957,0.19145
3507.02904,0.19368
3504.96850,0.19592
3502.90797,0.19827
3500.84744,0.20071
3498.78690,0.20330
3496.72637,0.20602
3494.66583,0.20854
3492.60530,0.21065
3490.54477,0.21294
3488.48423,0.21555
3486.42370,0.21816
3484.36316,0.22072
3482.30263,0.22309
3480.24210,0.22541
3478.18156,0.22802
3476.12103,0.23081
3474.06049,0.23360
3471.99996,0.23597
3469.93943,0.23788
3467.87889,0.24009
3465.81836,0.24279
3463.75782,0.24567
3461.69729,0.24811
3459.63675,0.25049
3457.57622,0.25372
3455.51569,0.25691
3453.45515,0.25918
3451.39462,0.26124
3449.33408,0.26391
3447.27355,0.26726
3445.21302,0.27042
3443.15248,0.27287
3441.09195,0.27519
3439.03141,0.27746
3436.97088,0.27945
3434.91035,0.28148
3432.84981,0.28403
3430.78928,0.28694
3428.72874,0.28984
3426.66821,0.29261
3424.60767,0.29516
3422.54714,0.29766
3420.48661,0.30026
3418.42607,0.30312
3416.36554,0.30578
3414.30500,0.30748
3412.24447,0.30872
3410.18394,0.31071
3408.12340,0.31363
3406.06287,0.31658
3404.00233,0.31889
3401.94180,0.32062
3399.88127,0.32234
3397.82073,0.32434
3395.76020,0.32634
3393.69966,0.32815
3391.63913,0.32990
3389.57860,0.33177
3387.51806,0.33376
3385.45753,0.33578
3383.39699,0.33766
3381.33646,0.33912
3379.27592,0.34010
3377.21539,0.34086
3375.15486,0.34199
3373.09432,0.34320
3371.03379,0.34388
3368.97325,0.34443
3366.91272,0.34529
3364.85219,0.34654
3362.79165,0.34818
3360.73112,0.34983
3358.67058,0.35098
3356.61005,0.35180
3354.54952,0.35246
3352.48898,0.35271
3350.42845,0.35299
3348.36791,0.35370
3346.30738,0.35464
3344.24684,0.35553
3342.18631,0.35610
3340.12578,0.35638
3338.06524,0.35658
3336.00471,0.35641
3333.94417,0.35622
3331.88364,0.35682
3329.82311,0.35763
3327.76257,0.35812
3325.70204,0.35836
3323.64150,0.35814
3321.58097,0.35789
3319.52044,0.35819
3317.45990,0.35878
3315.39937,0.35920
3313.33883,0.35952
3311.27830,0.35972
3309.21777,0.35949
3307.15723,0.35938
3305.09670,0.35987
3303.03616,0.36048
3300.97563,0.36108
3298.91509,0.36173
3296.85456,0.36217
3294.79403,0.36257
3292.73349,0.36262
3290.67296,0.36183
3288.61242,0.36117
3286.55189,0.36157
3284.49136,0.36239
3282.43082,0.36278
3280.37029,0.36269
3278.30975,0.36262
3276.24922,0.36253
3274.18869,0.36212
3272.12815,0.36181
3270.06762,0.36171
3268.00708,0.36140
3265.94655,0.36121
3263.88602,0.36136
3261.82548,0.36112
3259.76495,0.36028
3257.70441,0.35931
3255.64388,0.35865
3253.58334,0.35852
3251.52281,0.35828
3249.46228,0.35727
3247.40174,0.35623
3245.34121,0.35601
3243.28067,0.35580
3241.22014,0.35475
3239.15961,0.35362
3237.09907,0.35302
3235.03854,0.35242
3232.97800,0.35148
3230.91747,0.35029
3228.85694,0.34891
3226.79640,0.34737
3224.73587,0.34579
3222.67533,0.34457
3220.61480,0.34362
3218.55426,0.34228
3216.49373,0.34037
3214.43320,0.33830
3212.37266,0.33634
3210.31213,0.33445
3208.25159,0.33246
3206.19106,0.33022
3204.13053,0.32813
3202.06999,0.32622
3200.00946,0.32408
3197.94892,0.32190
3195.88839,0.31940
3193.82786,0.31621
3191.76732,0.31351
3189.70679,0.31163
3187.64625,0.30905
3185.58572,0.30572
3183.52519,0.30248
3181.46465,0.29951
3179.40412,0.29660
3177.34358,0.29351
3175.28305,0.29031
3173.22251,0.28693
3171.16198,0.28349
3169.10145,0.28035
3167.04091,0.27739
3164.98038,0.27428
3162.91984,0.27100
3160.85931,0.26762
3158.79878,0.26424
3156.73824,0.26098
3154.67771,0.25753
3152.61717,0.25383
3150.55664,0.25042
3148.49611,0.24720
3146.43557,0.24377
3144.37504,0.24040
3142.31450,0.23696
3140.25397,0.23313
3138.19343,0.22943
3136.13290,0.22627
3134.07237,0.22334
3132.01183,0.22002
3129.95130,0.21639
3127.89076,0.21311
3125.83023,0.21009
3123.76970,0.20681
3121.70916,0.20321
3119.64863,0.19967
3117.58809,0.19654
3115.52756,0.19349
3113.46703,0.19046
3111.40649,0.18777
3109.34596,0.18499
3107.28542,0.18184
3105.22489,0.17868
3103.16436,0.17573
3101.10382,0.17274
3099.04329,0.16949
3096.98275,0.16621
3094.92222,0.16342
3092.86168,0.16082
3090.80115,0.15792
3088.74062,0.15501
3086.68008,0.15219
3084.61955,0.14947
3082.55901,0.14717
3080.49848,0.14495
3078.43795,0.14240
3076.37741,0.13982
3074.31688,0.13739
3072.25634,0.13516
3070.19581,0.13300
3068.13528,0.13071
3066.07474,0.12837
3064.01421,0.12605
3061.95367,0.12362
3059.89314,0.12117
3057.83261,0.11904
3055.77207,0.11716
3053.71154,0.11517
3051.65100,0.11305
3049.59047,0.11086
3047.52993,0.10884
3045.46940,0.10696
3043.40887,0.10489
3041.34833,0.10263
3039.28780,0.10056
3037.22726,0.09873
3035.16673,0.09691
3033.10620,0.09513
3031.04566,0.09355
3028.98513,0.09200
3026.92459,0.09024
3024.86406,0.08851
3022.80353,0.08669
3020.74299,0.08467
3018.68246,0.08290
3016.62192,0.08150
3014.56139,0.08017
3012.50085,0.07880
3010.44032,0.07730
3008.37979,0.07574
3006.31925,0.07429
3004.25872,0.07290
3002.19818,0.07138
3000.13765,0.06987
2998.07712,0.06867
2996.01658,0.06781
2993.95605,0.06703
2991.89551,0.06605
2989.83498,0.06485
2987.77445,0.06368
2985.71391,0.06281
2983.65338,0.06201
2981.59284,0.06099
2979.53231,0.06000
2977.47178,0.05915
2975.41124,0.05822
2973.35071,0.05733
2971.29017,0.05656
2969.22964,0.05606
2967.16910,0.05561
2965.10857,0.05467
2963.04804,0.05347
2960.98750,0.05250
2958.92697,0.05180
2956.86643,0.05103
2954.80590,0.05010
2952.74537,0.04925
2950.68483,0.04847
2948.62430,0.04762
2946.56376,0.04673
2944.50323,0.04598
2942.44270,0.04541
2940.38216,0.04479
2938.32163,0.04401
2936.26109,0.04314
2934.20056,0.04230
2932.14002,0.04157
2930.07949,0.04088
2928.01896,0.04004
2925.95842,0.03904
2923.89789,0.03809
2921.83735,0.03728
2919.77682,0.03673
2917.71629,0.03628
2915.65575,0.03579
2913.59522,0.03528
2911.53468,0.03461
2909.47415,0.03369
2907.41362,0.03285
2905.35308,0.03221
2903.29255,0.03166
2901.23201,0.03118
2899.17148,0.03068
2897.11095,0.03019
2895.05041,0.02968
2892.98988,0.02906
2890.92934,0.02841
2888.86881,0.02792
2886.80827,0.02754
2884.74774,0.02717
2882.68721,0.02681
2880.62667,0.02661
2878.56614,0.02652
2876.50560,0.02625
2874.44507,0.02584
2872.38454,0.02545
2870.32400,0.02504
2868.26347,0.02456
2866.20293,0.02391
2864.14240,0.02313
2862.08187,0.02252
2860.02133,0.02237
2857.96080,0.02236
2855.90026,0.02202
2853.83973,0.02147
2851.77919,0.02108
2849.71866,0.02082
2847.65813,0.02052
2845.59759,0.01996
2843.53706,0.01933
2841.47652,0.01896
2839.41599,0.01884
2837.35546,0.01876
2835.29492,0.01845
2833.23439,0.01792
2831.17385,0.01756
2829.11332,0.01747
2827.05279,0.01735
2824.99225,0.01716
2822.93172,0.01687
2820.87118,0.01654
2818.81065,0.01634
2816.75012,0.01627
2814.68958,0.01633
2812.62905,0.01638
2810.56851,0.01611
2808.50798,0.01554
2806.44744,0.01516
2804.38691,0.01505
2802.32638,0.01495
2800.26584,0.01485
2798.20531,0.01477
2796.14477,0.01455
2794.08424,0.01421
2792.02371,0.01397
2789.96317,0.01385
2787.90264,0.01370
2785.84210,0.01347
2783.78157,0.01330
2781.72104,0.01325
2779.66050,0.01326
2777.59997,0.01316
2775.53943,0.01301
2773.47890,0.01295
2771.41837,0.01286
2769.35783,0.01259
2767.29730,0.01229
2765.23676,0.01221
2763.17623,0.01224
2761.11569,0.01220
2759.05516,0.01214
2756.99463,0.01200
2754.93409,0.01181
2752.87356,0.01165
2750.81302,0.01142
2748.75249,0.01105
2746.69196,0.01077
2744.63142,0.01072
2742.57089,0.01080
2740.51035,0.01082
2738.44982,0.01069
2736.38929,0.01048
2734.32875,0.01029
2732.26822,0.01015
2730.20768,0.01008
2728.14715,0.01003
2726.08661,0.00990
2724.02608,0.00980
2721.96555,0.00981
2719.90501,0.00976
2717.84448,0.00970
2715.78394,0.00972
2713.72341,0.00977
2711.66288,0.00978
2709.60234,0.00965
2707.54181,0.00945
2705.48127,0.00927
2703.42074,0.00919
2701.36021,0.00920
2699.29967,0.00927
2697.23914,0.00927
2695.17860,0.00908
2693.11807,0.00895
2691.05754,0.00900
2688.99700,0.00897
2686.93647,0.00887
2684.87593,0.00880
2682.81540,0.00874
2680.75486,0.00866
2678.69433,0.00869
2676.63380,0.00888
2674.57326,0.00906
2672.51273,0.00911
2670.45219,0.00904
2668.39166,0.00898
2666.33113,0.00890
2664.27059,0.00874
2662.21006,0.00868
2660.14952,0.00872
2658.08899,0.00869
2656.02846,0.00854
2653.96792,0.00841
2651.90739,0.00838
2649.84685,0.00839
2647.78632,0.00833
2645.72578,0.00806
2643.66525,0.00767
2641.60472,0.00764
2639.54418,0.00796
2637.48365,0.00816
2635.42311,0.00812
2633.36258,0.00784
2631.30205,0.00760
2629.24151,0.00786
2627.18098,0.00829
2625.12044,0.00824
2623.05991,0.00784
2620.99938,0.00760
2618.93884,0.00760
2616.87831,0.00764
2614.81777,0.00766
2612.75724,0.00772
2610.69671,0.00783
2608.63617,0.00783
2606.57564,0.00757
2604.51510,0.00735
2602.45457,0.00752
2600.39403,0.00775
2598.33350,0.00761
2596.27297,0.00725
2594.21243,0.00712
2592.15190,0.00740
2590.09136,0.00783
2588.03083,0.00806
2585.97030,0.00806
2583.90976,0.00778
2581.84923,0.00739
2579.78869,0.00730
2577.72816,0.00745
2575.66763,0.00759
2573.60709,0.00771
2571.54656,0.00788
2569.48602,0.00795
2567.42549,0.00784
2565.36496,0.00780
2563.30442,0.00771
2561.24389,0.00753
2559.18335,0.00770
2557.12282,0.00801
2555.06228,0.00801
2553.00175,0.00785
2550.94122,0.00773
2548.88068,0.00781
2546.82015,0.00797
2544.75961,0.00795
2542.69908,0.00792
2540.63855,0.00804
2538.57801,0.00824
2536.51748,0.00839
2534.45694,0.00841
2532.39641,0.00827
2530.33588,0.00811
2528.27534,0.00797
2526.21481,0.00805
2524.15427,0.00831
2522.09374,0.00810
2520.03320,0.00751
2517.97267,0.00743
2515.91214,0.00796
2513.85160,0.00823
2511.79107,0.00815
2509.73053,0.00824
2507.67000,0.00848
2505.60947,0.00871
2503.54893,0.00880
2501.48840,0.00867
2499.42786,0.00836
2497.36733,0.00810
2495.30680,0.00810
2493.24626,0.00832
2491.18573,0.00846
2489.12519,0.00848
2487.06466,0.00867
2485.00413,0.00894
2482.94359,0.00908
2480.88306,0.00907
2478.82252,0.00906
2476.76199,0.00904
2474.70145,0.00908
2472.64092,0.00937
2470.58039,0.00972
2468.51985,0.00973
2466.45932,0.00938
2464.39878,0.00913
2462.33825,0.00911
2460.27772,0.00919
2458.21718,0.00934
2456.15665,0.00931
2454.09611,0.00902
2452.03558,0.00876
2449.97505,0.00872
2447.91451,0.00896
2445.85398,0.00940
2443.79344,0.00983
2441.73291,0.00988
2439.67237,0.00942
2437.61184,0.00910
2435.55131,0.00942
2433.49077,0.01004
2431.43024,0.01051
2429.36970,0.01074
2427.30917,0.01077
2425.24864,0.01078
2423.18810,0.01077
2421.12757,0.01060
2419.06703,0.01052
2417.00650,0.01063
2414.94597,0.01073
2412.88543,0.01056
2410.82490,0.01040
2408.76436,0.01065
2406.70383,0.01089
2404.64330,0.01081
2402.58276,0.01082
2400.52223,0.01129
2398.46169,0.01175
2396.40116,0.01151
2394.34062,0.01100
2392.28009,0.01083
2390.21956,0.01099
2388.15902,0.01122
2386.09849,0.01122
2384.03795,0.01111
2381.97742,0.01134
2379.91689,0.01165
2377.85635,0.01186
2375.79582,0.01245
2373.73528,0.01323
2371.67475,0.01333
2369.61422,0.01294
2367.55368,0.01304
2365.49315,0.01368
2363.43261,0.01401
2361.37208,0.01379
2359.31154,0.01319
2357.25101,0.01260
2355.19048,0.01256
2353.12994,0.01245
2351.06941,0.01211
2349.00887,0.01210
2346.94834,0.01236
2344.88781,0.01295
2342.82727,0.01373
2340.76674,0.01379
2338.70620,0.01369
2336.64567,0.01438
2334.58514,0.01494
2332.52460,0.01476
2330.46407,0.01438
2328.40353,0.01427
2326.34300,0.01448
2324.28247,0.01457
2322.22193,0.01434
2320.16140,0.01405
2318.10086,0.01399
2316.04033,0.01422
2313.97979,0.01447
2311.91926,0.01463
2309.85873,0.01489
2307.79819,0.01510
2305.73766,0.01496
2303.67712,0.01452
2301.61659,0.01426
2299.55606,0.01432
2297.49552,0.01435
2295.43499,0.01440
2293.37445,0.01498
2291.31392,0.01580
2289.25339,0.01604
2287.19285,0.01586
2285.13232,0.01585
2283.07178,0.01593
2281.01125,0.01596
2278.95072,0.01602
2276.89018,0.01632
2274.82965,0.01672
2272.76911,0.01645
2270.70858,0.01574
2268.64804,0.01528
2266.58751,0.01525
2264.52698,0.01600
2262.46644,0.01688
2260.40591,0.01695
2258.34537,0.01689
2256.28484,0.01717
2254.22431,0.01712
2252.16377,0.01711
2250.10324,0.01756
2248.04270,0.01743
2245.98217,0.01681
2243.92164,0.01678
2241.86110,0.01727
2239.80057,0.01800
2237.74003,0.01864
2235.67950,0.01863
2233.61896,0.01844
2231.55843,0.01832
2229.49790,0.01791
2227.43736,0.01803
2225.37683,0.01867
2223.31629,0.01845
2221.25576,0.01780
2219.19523,0.01796
2217.13469,0.01824
2215.07416,0.01818
2213.01362,0.01841
2210.95309,0.01880
2208.89256,0.01896
2206.83202,0.01940
2204.77149,0.02053
2202.71095,0.02127
2200.65042,0.02078
2198.58989,0.02009
2196.52935,0.01982
2194.46882,0.01981
2192.40828,0.02020
2190.34775,0.02094
2188.28721,0.02144
2186.22668,0.02108
2184.16615,0.02069
2182.10561,0.02075
2180.04508,0.02047
2177.98454,0.02092
2175.92401,0.02220
2173.86348,0.02246
2171.80294,0.02185
2169.74241,0.02147
2167.68187,0.02161
2165.62134,0.02167
2163.56081,0.02159
2161.50027,0.02224
2159.43974,0.02256
2157.37920,0.02182
2155.31867,0.02147
2153.25813,0.02207
2151.19760,0.02293
2149.13707,0.02291
2147.07653,0.02229
2145.01600,0.02170
2142.95546,0.02147
2140.89493,0.02201
2138.83440,0.02251
2136.77386,0.02258
2134.71333,0.02243
2132.65279,0.02197
2130.59226,0.02191
2128.53173,0.02234
2126.47119,0.02281
2124.41066,0.02344
2122.35012,0.02358
2120.28959,0.02283
2118.22906,0.02228
2116.16852,0.02251
2114.10799,0.02310
2112.04745,0.02381
2109.98692,0.02424
2107.92638,0.02381
2105.86585,0.02321
2103.80532,0.02333
2101.74478,0.02369
2099.68425,0.02366
2097.62371,0.02323
2095.56318,0.02299
2093.50265,0.02340
2091.44211,0.02347
2089.38158,0.02273
2087.32104,0.02204
2085.26051,0.02184
2083.19998,0.02184
2081.13944,0.02208
2079.07891,0.02280
2077.01837,0.02338
2074.95784,0.02358
2072.89731,0.02386
2070.83677,0.02337
2068.77624,0.02204
2066.71570,0.02167
2064.65517,0.02249
2062.59463,0.02313
2060.53410,0.02283
2058.47357,0.02197
2056.41303,0.02164
2054.35250,0.02195
2052.29196,0.02171
2050.23143,0.02053
2048.17090,0.01987
2046.11036,0.02073
2044.04983,0.02145
2041.98929,0.02052
2039.92876,0.01868
2037.86823,0.01767
2035.80769,0.01867
2033.74716,0.01963
2031.68662,0.01903
2029.62609,0.01859
2027.56555,0.01796
2025.50502,0.01672
2023.44449,0.01659
2021.38395,0.01758
2019.32342,0.01824
2017.26288,0.01728
2015.20235,0.01524
2013.14182,0.01484
2011.08128,0.01647
2009.02075,0.01764
2006.96021,0.01745
2004.89968,0.01729
2002.83915,0.01752
2000.77861,0.01793
1998.71808,0.01813
1996.65754,0.01715
1994.59701,0.01598
1992.53648,0.01597
1990.47594,0.01635
1988.41541,0.01570
1986.35487,0.01491
1984.29434,0.01556
1982.23380,0.01618
1980.17327,0.01550
1978.11274,0.01540
1976.05220,0.01608
1973.99167,0.01506
1971.93113,0.01321
1969.87060,0.01357
1967.81007,0.01580
1965.74953,0.01700
1963.68900,0.01664
1961.62846,0.01660
1959.56793,0.01703
1957.50740,0.01625
1955.44686,0.01487
1953.38633,0.01468
1951.32579,0.01529
1949.26526,0.01596
1947.20472,0.01632
1945.14419,0.01555
1943.08366,0.01459
1941.02312,0.01444
1938.96259,0.01455
1936.90205,0.01487
1934.84152,0.01504
1932.78099,0.01459
1930.72045,0.01418
1928.65992,0.01435
1926.59938,0.01462
1924.53885,0.01470
1922.47832,0.01492
1920.41778,0.01499
1918.35725,0.01465
1916.29671,0.01439
1914.23618,0.01425
1912.17565,0.01384
1910.11511,0.01346
1908.05458,0.01333
1905.99404,0.01324
1903.93351,0.01331
1901.87297,0.01352
1899.81244,0.01377
1897.75191,0.01399
1895.69137,0.01403
1893.63084,0.01399
1891.57030,0.01412
1889.50977,0.01408
1887.44924,0.01368
1885.38870,0.01334
1883.32817,0.01349
1881.26763,0.01403
1879.20710,0.01448
1877.14657,0.01470
1875.08603,0.01480
1873.02550,0.01461
1870.96496,0.01422
1868.90443,0.01393
1866.84389,0.01386
1864.78336,0.01401
1862.72283,0.01426
1860.66229,0.01454
1858.60176,0.01485
1856.54122,0.01506
1854.48069,0.01498
1852.42016,0.01460
1850.35962,0.01454
1848.29909,0.01496
1846.23855,0.01530
1844.17802,0.01524
1842.11749,0.01502
1840.05695,0.01497
1837.99642,0.01498
1835.93588,0.01498
1833.87535,0.01516
1831.81482,0.01544
1829.75428,0.01556
1827.69375,0.01553
1825.63321,0.01549
1823.57268,0.01547
1821.51214,0.01554
1819.45161,0.01560
1817.39108,0.01573
1815.33054,0.01614
1813.27001,0.01667
1811.20947,0.01700
1809.14894,0.01712
1807.08841,0.01722
1805.02787,0.01739
1802.96734,0.01760
1800.90680,0.01789
1798.84627,0.01813
1796.78574,0.01819
1794.72520,0.01819
1792.66467,0.01812
1790.60413,0.01807
1788.54360,0.01833
1786.48307,0.01890
1784.42253,0.01941
1782.36200,0.01967
1780.30146,0.01979
1778.24093,0.02001
1776.18039,0.02033
1774.11986,0.02067
1772.05933,0.02112
1769.99879,0.02173
1767.93826,0.02242
1765.87772,0.02293
1763.81719,0.02309
1761.75666,0.02330
1759.69612,0.02369
1757.63559,0.02401
1755.57505,0.02446
1753.51452,0.02509
1751.45399,0.02577
1749.39345,0.02657
1747.33292,0.02748
1745.27238,0.02839
1743.21185,0.02926
1741.15131,0.03006
1739.09078,0.03082
1737.03025,0.03175
1734.96971,0.03292
1732.90918,0.03420
1730.84864,0.03520
1728.78811,0.03628
1726.72758,0.03762
1724.66704,0.03923
1722.60651,0.04098
1720.54597,0.04258
1718.48544,0.04416
1716.42491,0.04598
1714.36437,0.04796
1712.30384,0.05006
1710.24330,0.05227
1708.18277,0.05444
1706.12224,0.05691
1704.06170,0.05954
1702.00117,0.06224
1699.94063,0.06590
1697.88010,0.06980
1695.81956,0.07364
1693.75903,0.07770
1691.69850,0.08150
1689.63796,0.08573
1687.57743,0.08999
1685.51689,0.09462
1683.45636,0.10106
1681.39583,0.10676
1679.33529,0.11131
1677.27476,0.11599
1675.21422,0.12171
1673.15369,0.12791
1671.09316,0.13400
1669.03262,0.14127
1666.97209,0.14861
1664.91155,0.15552
1662.85102,0.16358
1660.79048,0.17191
1658.72995,0.17889
1656.66942,0.18456
1654.60888,0.18964
1652.54835,0.19557
1650.48781,0.19979
1648.42728,0.20195
1646.36675,0.20337
1644.30621,0.20435
1642.24568,0.20519
1640.18514,0.20598
1638.12461,0.20652
1636.06408,0.20611
1634.00354,0.20450
1631.94301,0.20259
1629.88247,0.19998
1627.82194,0.19631
1625.76141,0.19198
1623.70087,0.18662
1621.64034,0.18072
1619.57980,0.17557
1617.51927,0.16952
1615.45873,0.16209
1613.39820,0.15606
1611.33767,0.15067
1609.27713,0.14478
1607.21660,0.13884
1605.15606,0.13337
1603.09553,0.12833
1601.03500,0.12358
1598.97446,0.11922
1596.91393,0.11540
1594.85339,0.11187
1592.79286,0.10851
1590.73233,0.10549
1588.67179,0.10284
1586.61126,0.10052
1584.55072,0.09841
1582.49019,0.09667
1580.42966,0.09552
1578.36912,0.09466
1576.30859,0.09344
1574.24805,0.09239
1572.18752,0.09200
1570.12698,0.09185
1568.06645,0.09175
1566.00592,0.09189
1563.94538,0.09241
1561.88485,0.09323
1559.82431,0.09443
1557.76378,0.09648
1555.70325,0.09851
1553.64271,0.10017
1551.58218,0.10134
1549.52164,0.10191
1547.46111,0.10199
1545.40058,0.10165
1543.34004,0.10074
1541.27951,0.09867
1539.21897,0.09513
1537.15844,0.09228
1535.09790,0.08993
1533.03737,0.08715
1530.97684,0.08474
1528.91630,0.08276
1526.85577,0.08079
1524.79523,0.07921
1522.73470,0.07770
1520.67417,0.07577
1518.61363,0.07418
1516.55310,0.07290
1514.49256,0.07154
1512.43203,0.06998
1510.37150,0.06829
1508.31096,0.06658
1506.25043,0.06484
1504.18989,0.06376
1502.12936,0.06314
1500.06883,0.06254
1498.00829,0.06177
1495.94776,0.06064
1493.88722,0.05962
1491.82669,0.05880
1489.76615,0.05783
1487.70562,0.05700
1485.64509,0.05657
1483.58455,0.05631
1481.52402,0.05622
1479.46348,0.05639
1477.40295,0.05664
1475.34242,0.05662
1473.28188,0.05646
1471.22135,0.05662
1469.16081,0.05685
1467.10028,0.05685
1465.03975,0.05685
1462.97921,0.05703
1460.91868,0.05718
1458.85814,0.05733
1456.79761,0.05762
1454.73707,0.05778
1452.67654,0.05772
1450.61601,0.05760
1448.55547,0.05757
1446.49494,0.05746
1444.43440,0.05720
1442.37387,0.05691
1440.31334,0.05660
1438.25280,0.05620
1436.19227,0.05588
1434.13173,0.05577
1432.07120,0.05554
1430.01067,0.05518
1427.95013,0.05501
1425.88960,0.05531
1423.82906,0.05595
1421.76853,0.05641
1419.70800,0.05657
1417.64746,0.05677
1415.58693,0.05711
1413.52639,0.05752
1411.46586,0.05801
1409.40532,0.05854
1407.34479,0.05905
1405.28426,0.05941
1403.22372,0.05962
1401.16319,0.05980
1399.10265,0.05997
1397.04212,0.05994
1394.98159,0.05958
1392.92105,0.05903
1390.86052,0.05845
1388.79998,0.05767
1386.73945,0.05672
1384.67892,0.05593
1382.61838,0.05532
1380.55785,0.05467
1378.49731,0.05403
1376.43678,0.05351
1374.37624,0.05311
1372.31571,0.05292
1370.25518,0.05297
1368.19464,0.05307
1366.13411,0.05307
1364.07357,0.05298
1362.01304,0.05276
1359.95251,0.05256
1357.89197,0.05247
1355.83144,0.05238
1353.77090,0.05232
1351.71037,0.05241
1349.64984,0.05262
1347.58930,0.05273
1345.52877,0.05264
1343.46823,0.05256
1341.40770,0.05263
1339.34717,0.05270
1337.28663,0.05273
1335.22610,0.05288
1333.16556,0.05309
1331.10503,0.05323
1329.04449,0.05334
1326.98396,0.05356
1324.92343,0.05388
1322.86289,0.05430
1320.80236,0.05465
1318.74182,0.05489
1316.68129,0.05519
1314.62076,0.05547
1312.56022,0.05563
1310.49969,0.05569
1308.43915,0.05561
1306.37862,0.05548
1304.31809,0.05551
1302.25755,0.05562
1300.19702,0.05562
1298.13648,0.05557
1296.07595,0.05562
1294.01542,0.05563
1291.95488,0.05542
1289.89435,0.05519
1287.83381,0.05509
1285.77328,0.05506
1283.71274,0.05499
1281.65221,0.05480
1279.59168,0.05454
1277.53114,0.05444
1275.47061,0.05451
1273.41007,0.05448
1271.34954,0.05438
1269.28901,0.05434
1267.22847,0.05434
1265.16794,0.05429
1263.10740,0.05411
1261.04687,0.05398
1258.98634,0.05396
1256.92580,0.05402
1254.86527,0.05410
1252.80473,0.05399
1250.74420,0.05388
1248.68366,0.05393
1246.62313,0.05401
1244.56260,0.05404
1242.50206,0.05396
1240.44153,0.05386
1238.38099,0.05379
1236.32046,0.05359
1234.25993,0.05316
1232.19939,0.05275
1230.13886,0.05236
1228.07832,0.05192
1226.01779,0.05161
1223.95726,0.05143
1221.89672,0.05137
1219.83619,0.05153
1217.77565,0.05174
1215.71512,0.05167
1213.65459,0.05137
1211.59405,0.05111
1209.53352,0.05090
1207.47298,0.05075
1205.41245,0.05076
1203.35191,0.05080
1201.29138,0.05076
1199.23085,0.05075
1197.17031,0.05079
1195.10978,0.05074
1193.04924,0.05066
1190.98871,0.05059
1188.92818,0.05061
1186.86764,0.05079
1184.80711,0.05095
1182.74657,0.05096
1180.68604,0.05098
1178.62551,0.05121
1176.56497,0.05153
1174.50444,0.05166
1172.44390,0.05165
1170.38337,0.05165
1168.32283,0.05163
1166.26230,0.05153
1164.20177,0.05143
1162.14123,0.05141
1160.08070,0.05133
1158.02016,0.05112
1155.95963,0.05094
1153.89910,0.05076
1151.83856,0.05057
1149.77803,0.05048
1147.71749,0.05029
1145.65696,0.05000
1143.59643,0.04989
1141.53589,0.04998
1139.47536,0.05023
1137.41482,0.05056
1135.35429,0.05075
1133.29376,0.05086
1131.23322,0.05094
1129.17269,0.05090
1127.11215,0.05084
1125.05162,0.05099
1122.99108,0.05127
1120.93055,0.05143
1118.87002,0.05137
1116.80948,0.05105
1114.74895,0.05079
1112.68841,0.05101
1110.62788,0.05149
1108.56735,0.05177
1106.50681,0.05183
1104.44628,0.05188
1102.38574,0.05189
1100.32521,0.05185
1098.26468,0.05189
1096.20414,0.05188
1094.14361,0.05202
1092.08307,0.05240
1090.02254,0.05267
1087.96201,0.05285
1085.90147,0.05314
1083.84094,0.05329
1081.78040,0.05326
1079.71987,0.05333
1077.65933,0.05341
1075.59880,0.05334
1073.53827,0.05313
1071.47773,0.05294
1069.41720,0.05295
1067.35666,0.05290
1065.29613,0.05268
1063.23560,0.05251
1061.17506,0.05258
1059.11453,0.05280
1057.05399,0.05291
1054.99346,0.05283
1052.93293,0.05270
1050.87239,0.05259
1048.81186,0.05252
1046.75132,0.05253
1044.69079,0.05265
1042.63025,0.05283
1040.56972,0.05303
1038.50919,0.05314
1036.44865,0.05309
1034.38812,0.05311
1032.32758,0.05318
1030.26705,0.05319
1028.20652,0.05331
1026.14598,0.05363
1024.08545,0.05386
1022.02491,0.05391
1019.96438,0.05401
1017.90385,0.05418
1015.84331,0.05437
1013.78278,0.05458
1011.72224,0.05473
1009.66171,0.05479
1007.60118,0.05494
1005.54064,0.05542
1003.48011,0.05603
1001.41957,0.05648
999.35904,0.05689
997.29850,0.05741
995.23797,0.05802
993.17744,0.05866
991.11690,0.05910
989.05637,0.05936
986.99583,0.05971
984.93530,0.06018
982.87477,0.06062
980.81423,0.06088
978.75370,0.06106
976.69316,0.06133
974.63263,0.06163
972.57210,0.06209
970.51156,0.06279
968.45103,0.06346
966.39049,0.06405
964.32996,0.06473
962.26942,0.06547
960.20889,0.06618
958.14836,0.06688
956.08782,0.06761
954.02729,0.06842
951.96675,0.06914
949.90622,0.06970
947.84569,0.07046
945.78515,0.07161
943.72462,0.07277
941.66408,0.07369
939.60355,0.07469
937.54302,0.07583
935.48248,0.07699
933.42195,0.07807
931.36141,0.07902
929.30088,0.07989
927.24035,0.08073
925.17981,0.08185
923.11928,0.08325
921.05874,0.08456
918.99821,0.08582
916.93767,0.08715
914.87714,0.08836
912.81661,0.08943
910.75607,0.09062
908.69554,0.09220
906.63500,0.09407
904.57447,0.09596
902.51394,0.09748
900.45340,0.09855
898.39287,0.09981
896.33233,0.10160
894.27180,0.10370
892.21127,0.10568
890.15073,0.10746
888.09020,0.10924
886.02966,0.11100
883.96913,0.11276
881.90859,0.11462
879.84806,0.11660
877.78753,0.11863
875.72699,0.12064
873.66646,0.12271
871.60592,0.12456
869.54539,0.12615
867.48486,0.12806
865.42432,0.13023
863.36379,0.13236
861.30325,0.13465
859.24272,0.13718
857.18219,0.13967
855.12165,0.14193
853.06112,0.14408
851.00058,0.14649
848.94005,0.14917
846.87952,0.15172
844.81898,0.15408
842.75845,0.15638
840.69791,0.15858
838.63738,0.16076
836.57684,0.16301
834.51631,0.16552
832.45578,0.16833
830.39524,0.17096
828.33471,0.17335
826.27417,0.17580
824.21364,0.17842
822.15311,0.18097
820.09257,0.18303
818.03204,0.18506
815.97150,0.18751
813.91097,0.19010
811.85044,0.19297
809.78990,0.19605
807.72937,0.19902
805.66883,0.20219
803.60830,0.20510
801.54777,0.20743
799.48723,0.20976
797.42670,0.21227
795.36616,0.21501
793.30563,0.21788
791.24509,0.22070
789.18456,0.22335
787.12403,0.22582
785.06349,0.22852
783.00296,0.23151
780.94242,0.23424
778.88189,0.23665
776.82136,0.23899
774.76082,0.24142
772.70029,0.24428
770.63975,0.24765
768.57922,0.25102
766.51869,0.25373
764.45815,0.25578
762.39762,0.25791
760.33708,0.26041
758.27655,0.26311
756.21601,0.26600
754.15548,0.26891
752.09495,0.27144
750.03441,0.27395
747.97388,0.27708
745.91334,0.28039
743.85281,0.28334
741.79228,0.28617
739.73174,0.28885
737.67121,0.29141
735.61067,0.29441
733.55014,0.29753
731.48961,0.29986
729.42907,0.30201
727.36854,0.30495
725.30800,0.30806
723.24747,0.31090
721.18694,0.31397
719.12640,0.31726
717.06587,0.32063
715.00533,0.32389
712.94480,0.32694
710.88426,0.32978
708.82373,0.33202
706.76320,0.33423
704.70266,0.33694
702.64213,0.33993
700.58159,0.34336
698.52106,0.34679
696.46053,0.34948
694.39999,0.35195
692.33946,0.35499
690.27892,0.35760
688.21839,0.35947
686.15786,0.36213
684.09732,0.36577
682.03679,0.36938
679.97625,0.37199
677.91572,0.37423
675.85518,0.37678
673.79465,0.37865
671.73412,0.37957
669.67358,0.38120
667.61305,0.38564
665.55251,0.38982
663.49198,0.39209
661.43145,0.39408
659.37091,0.39651
657.31038,0.39897
655.24984,0.40089
653.18931,0.40264
651.12878,0.40564
649.06824,0.41071
647.00771,0.41544
644.94717,0.41726
642.88664,0.41804
640.82611,0.41964
638.76557,0.42132
636.70504,0.42338
634.64450,0.42680
632.58397,0.43020
630.52343,0.43201
628.46290,0.43362
626.40237,0.43613
624.34183,0.43898
622.28130,0.44136
620.22076,0.44322
618.16023,0.44575
616.09970,0.44885
614.03916,0.45169
611.97863,0.45446
609.91809,0.45676
607.85756,0.45819
605.79703,0.45982
603.73649,0.46206
601.67596,0.46477
599.61542,0.46803
597.55489,0.47082
595.49436,0.47277
593.43382,0.47459
591.37329,0.47649
589.31275,0.47793
587.25222,0.47886
585.19168,0.47950
583.13115,0.48038
581.07062,0.48206
579.01008,0.48390
576.94955,0.48595
574.88901,0.48819
572.82848,0.48983
570.76795,0.49199
568.70741,0.49493
566.64688,0.49755
564.58634,0.50018
562.52581,0.50244
560.46528,0.50407
558.40474,0.50632
556.34421,0.50951
554.28367,0.51248
552.22314,0.51479
550.16260,0.51716
548.10207,0.52053
546.04154,0.52341
543.98100,0.52296
541.92047,0.52068
539.85993,0.52086
537.79940,0.52354
535.73887,0.52547
533.67833,0.52731
531.61780,0.53081
529.55726,0.53410
527.49673,0.53442
525.43620,0.53286
523.37566,0.53329
521.31513,0.53567
519.25459,0.53699
517.19406,0.53633
515.13353,0.53685
513.07299,0.53987
511.01246,0.54195
508.95192,0.54134
506.89139,0.54151
504.83085,0.54375
502.77032,0.54492
500.70979,0.54716
498.64925,0.55281
496.58872,0.55583
494.52818,0.55394
492.46765,0.55263
490.40712,0.55466
488.34658,0.55911
486.28605,0.56269
484.22551,0.56281
482.16498,0.56146
480.10445,0.56067
478.04391,0.56011
475.98338,0.55821
473.92284,0.55803
471.86231,0.56381
469.80177,0.56822
467.74124,0.56791
465.68071,0.56827
463.62017,0.56873
461.55964,0.56745
459.49910,0.56612
457.43857,0.57013
455.37804,0.57716
453.31750,0.57887
451.25697,0.57507
449.19643,0.56810
447.13590,0.56330
445.07537,0.56340
443.01483,0.56635
440.95430,0.57216
438.89376,0.57739
436.83323,0.57693
434.77270,0.57228
432.71216,0.56861
430.65163,0.56782
428.59109,0.57183
426.53056,0.57691
424.47002,0.57725
422.40949,0.57427
420.34896,0.56975
418.28842,0.56820
416.22789,0.57429
414.16735,0.57795
412.10682,0.57337
410.04629,0.57474
407.98575,0.59443
405.92522,0.61040
403.86468,0.60082
401.80415,0.58448
399.74362,0.57989
