4998.85573,0.00216
4997.82546,0.00043
4996.79519,-0.00011
4995.76493,0.00154
4994.73466,0.00299
4993.70439,0.00271
4992.67413,0.00222
4991.64386,0.00189
4990.61359,0.00148
4989.58332,0.00124
4988.55306,0.00107
4987.52279,0.00183
4986.49252,0.00364
4985.46226,0.00430
4984.43199,0.00266
4983.40172,0.00036
4982.37145,-0.00031
4981.34119,0.00118
4980.31092,0.00267
4979.28065,0.00276
4978.25039,0.00197
4977.22012,0.00113
4976.18985,0.00149
4975.15959,0.00234
4974.12932,0.00235
4973.09905,0.00259
4972.06878,0.00257
4971.03852,0.00165
4970.00825,0.00132
4968.97798,0.00184
4967.94772,0.00256
4966.91745,0.00314
4965.88718,0.00317
4964.85691,0.00204
4963.82665,0.00052
4962.79638,0.00075
4961.76611,0.00231
4960.73585,0.00257
4959.70558,0.00106
4958.67531,-0.00035
4957.64505,-0.00029
4956.61478,0.00104
4955.58451,0.00216
4954.55424,0.00254
4953.52398,0.00285
4952.49371,0.00293
4951.46344,0.00281
4950.43318,0.00245
4949.40291,0.00140
4948.37264,0.00016
4947.34238,-0.00040
4946.31211,-0.00020
4945.28184,0.00001
4944.25157,-0.00017
4943.22131,-0.00033
4942.19104,0.00005
4941.16077,0.00098
4940.13051,0.00116
4939.10024,0.00036
4938.06997,0.00016
4937.03970,0.00080
4936.00944,0.00178
4934.97917,0.00281
4933.94890,0.00333
4932.91864,0.00346
4931.88837,0.00303
4930.85810,0.00185
4929.82784,0.00084
4928.79757,0.00046
4927.76730,0.00044
4926.73703,0.00058
4925.70677,0.00090
4924.67650,0.00124
4923.64623,0.00130
4922.61597,0.00121
4921.58570,0.00109
4920.55543,0.00103
4919.52516,0.00120
4918.49490,0.00153
4917.46463,0.00210
4916.43436,0.00254
4915.40410,0.00218
4914.37383,0.00131
4913.34356,0.00073
4912.31330,0.00112
4911.28303,0.00163
4910.25276,0.00096
4909.22249,0.00059
4908.19223,0.00150
4907.16196,0.00189
4906.13169,0.00125
4905.10143,0.00138
4904.07116,0.00271
4903.04089,0.00290
4902.01062,0.00199
4900.98036,0.00222
4899.95009,0.00260
4898.91982,0.00207
4897.88956,0.00215
4896.85929,0.00318
4895.82902,0.00381
4894.79876,0.00360
4893.76849,0.00304
4892.73822,0.00243
4891.70795,0.00197
4890.67769,0.00211
4889.64742,0.00247
4888.61715,0.00217
4887.58689,0.00216
4886.55662,0.00282
4885.52635,0.00250
4884.49609,0.00156
4883.46582,0.00121
4882.43555,0.00119
4881.40528,0.00102
4880.37502,0.00067
4879.34475,0.00048
4878.31448,0.00069
4877.28422,0.00130
4876.25395,0.00147
4875.22368,0.00142
4874.19341,0.00218
4873.16315,0.00261
4872.13288,0.00254
4871.10261,0.00295
4870.07235,0.00326
4869.04208,0.00341
4868.01181,0.00338
4866.98155,0.00287
4865.95128,0.00240
4864.92101,0.00178
4863.89074,0.00077
4862.86048,0.00013
4861.83021,0.00020
4860.79994,0.00056
4859.76968,0.00083
4858.73941,0.00157
4857.70914,0.00274
4856.67887,0.00275
4855.64861,0.00179
4854.61834,0.00142
4853.58807,0.00172
4852.55781,0.00204
4851.52754,0.00175
4850.49727,0.00118
4849.46701,0.00124
4848.43674,0.00167
4847.40647,0.00201
4846.37620,0.00238
4845.34594,0.00301
4844.31567,0.00306
4843.28540,0.00159
4842.25514,0.00026
4841.22487,0.00052
4840.19460,0.00133
4839.16433,0.00143
4838.13407,0.00089
4837.10380,0.00057
4836.07353,0.00079
4835.04327,0.00119
4834.01300,0.00173
4832.98273,0.00204
4831.95247,0.00164
4830.92220,0.00152
4829.89193,0.00197
4828.86166,0.00192
4827.83140,0.00115
4826.80113,0.00072
4825.77086,0.00133
4824.74060,0.00224
4823.71033,0.00263
4822.68006,0.00237
4821.64979,0.00252
4820.61953,0.00314
4819.58926,0.00273
4818.55899,0.00193
4817.52873,0.00227
4816.49846,0.00288
4815.46819,0.00281
4814.43793,0.00283
4813.40766,0.00294
4812.37739,0.00244
4811.34712,0.00201
4810.31686,0.00203
4809.28659,0.00146
4808.25632,0.00081
4807.22606,0.00116
4806.19579,0.00180
4805.16552,0.00228
4804.13526,0.00261
4803.10499,0.00249
4802.07472,0.00235
4801.04445,0.00226
4800.01419,0.00168
4798.98392,0.00133
4797.95365,0.00201
4796.92339,0.00266
4795.89312,0.00242
4794.86285,0.00205
4793.83258,0.00202
4792.80232,0.00194
4791.77205,0.00209
4790.74178,0.00257
4789.71152,0.00247
4788.68125,0.00162
4787.65098,0.00138
4786.62072,0.00213
4785.59045,0.00271
4784.56018,0.00263
4783.52991,0.00202
4782.49965,0.00131
4781.46938,0.00147
4780.43911,0.00197
4779.40885,0.00175
4778.37858,0.00145
4777.34831,0.00116
4776.31804,0.00098
4775.28778,0.00210
4774.25751,0.00332
4773.22724,0.00291
4772.19698,0.00180
4771.16671,0.00131
4770.13644,0.00161
4769.10618,0.00213
4768.07591,0.00222
4767.04564,0.00207
4766.01537,0.00215
4764.98511,0.00224
4763.95484,0.00191
4762.92457,0.00169
4761.89431,0.00193
4760.86404,0.00219
4759.83377,0.00220
4758.80350,0.00186
4757.77324,0.00152
4756.74297,0.00149
4755.71270,0.00211
4754.68244,0.00316
4753.65217,0.00352
4752.62190,0.00334
4751.59164,0.00345
4750.56137,0.00335
4749.53110,0.00240
4748.50083,0.00141
4747.47057,0.00122
4746.44030,0.00167
4745.41003,0.00254
4744.37977,0.00350
4743.34950,0.00380
4742.31923,0.00327
4741.28897,0.00287
4740.25870,0.00279
4739.22843,0.00235
4738.19816,0.00166
4737.16790,0.00161
4736.13763,0.00247
4735.10736,0.00300
4734.07710,0.00233
4733.04683,0.00141
4732.01656,0.00115
4730.98629,0.00151
4729.95603,0.00201
4728.92576,0.00219
4727.89549,0.00181
4726.86523,0.00155
4725.83496,0.00220
4724.80469,0.00249
4723.77443,0.00154
4722.74416,0.00056
4721.71389,0.00061
4720.68362,0.00154
4719.65336,0.00198
4718.62309,0.00095
4717.59282,-0.00013
4716.56256,0.00057
4715.53229,0.00167
4714.50202,0.00185
4713.47175,0.00220
4712.44149,0.00264
4711.41122,0.00241
4710.38095,0.00151
4709.35069,0.00067
4708.32042,0.00078
4707.29015,0.00097
4706.25989,0.00089
4705.22962,0.00132
4704.19935,0.00166
4703.16908,0.00132
4702.13882,0.00109
4701.10855,0.00147
4700.07828,0.00184
4699.04802,0.00188
4698.01775,0.00195
4696.98748,0.00209
4695.95721,0.00214
4694.92695,0.00204
4693.89668,0.00210
4692.86641,0.00230
4691.83615,0.00211
4690.80588,0.00190
4689.77561,0.00203
4688.74535,0.00211
4687.71508,0.00239
4686.68481,0.00276
4685.65454,0.00281
4684.62428,0.00286
4683.59401,0.00289
4682.56374,0.00272
4681.53348,0.00217
4680.50321,0.00105
4679.47294,-0.00009
4678.44267,-0.00032
4677.41241,-0.00019
4676.38214,-0.00042
4675.35187,-0.00009
4674.32161,0.00086
4673.29134,0.00155
4672.26107,0.00182
4671.23081,0.00185
4670.20054,0.00176
4669.17027,0.00166
4668.14000,0.00147
4667.10974,0.00130
4666.07947,0.00127
4665.04920,0.00155
4664.01894,0.00215
4662.98867,0.00242
4661.95840,0.00214
4660.92814,0.00196
4659.89787,0.00203
4658.86760,0.00182
4657.83733,0.00154
4656.80707,0.00144
4655.77680,0.00119
4654.74653,0.00115
4653.71627,0.00164
4652.68600,0.00220
4651.65573,0.00269
4650.62546,0.00286
4649.59520,0.00259
4648.56493,0.00255
4647.53466,0.00261
4646.50440,0.00227
4645.47413,0.00159
4644.44386,0.00141
4643.41360,0.00220
4642.38333,0.00245
4641.35306,0.00125
4640.32279,0.00003
4639.29253,0.00025
4638.26226,0.00177
4637.23199,0.00314
4636.20173,0.00286
4635.17146,0.00122
4634.14119,0.00011
4633.11092,0.00049
4632.08066,0.00179
4631.05039,0.00259
4630.02012,0.00243
4628.98986,0.00220
4627.95959,0.00205
4626.92932,0.00165
4625.89906,0.00138
4624.86879,0.00163
4623.83852,0.00165
4622.80825,0.00145
4621.77799,0.00195
4620.74772,0.00290
4619.71745,0.00356
4618.68719,0.00366
4617.65692,0.00341
4616.62665,0.00308
4615.59638,0.00252
4614.56612,0.00185
4613.53585,0.00188
4612.50558,0.00222
4611.47532,0.00192
4610.44505,0.00195
4609.41478,0.00294
4608.38452,0.00352
4607.35425,0.00311
4606.32398,0.00254
4605.29371,0.00240
4604.26345,0.00244
4603.23318,0.00218
4602.20291,0.00189
4601.17265,0.00189
4600.14238,0.00197
4599.11211,0.00162
4598.08185,0.00084
4597.05158,0.00096
4596.02131,0.00192
4594.99104,0.00203
4593.96078,0.00116
4592.93051,0.00084
4591.90024,0.00119
4590.86998,0.00145
4589.83971,0.00206
4588.80944,0.00275
4587.77917,0.00274
4586.74891,0.00220
4585.71864,0.00199
4584.68837,0.00225
4583.65811,0.00184
4582.62784,0.00075
4581.59757,0.00018
4580.56731,0.00062
4579.53704,0.00152
4578.50677,0.00200
4577.47650,0.00194
4576.44624,0.00172
4575.41597,0.00157
4574.38570,0.00128
4573.35544,0.00088
4572.32517,0.00088
4571.29490,0.00098
4570.26463,0.00072
4569.23437,0.00097
4568.20410,0.00223
4567.17383,0.00280
4566.14357,0.00177
4565.11330,0.00097
4564.08303,0.00138
4563.05277,0.00184
4562.02250,0.00181
4560.99223,0.00138
4559.96196,0.00099
4558.93170,0.00114
4557.90143,0.00147
4556.87116,0.00134
4555.84090,0.00083
4554.81063,0.00078
4553.78036,0.00114
4552.75009,0.00163
4551.71983,0.00226
4550.68956,0.00237
4549.65929,0.00195
4548.62903,0.00158
4547.59876,0.00107
4546.56849,0.00047
4545.53823,0.00034
4544.50796,0.00065
4543.47769,0.00114
4542.44742,0.00131
4541.41716,0.00099
4540.38689,0.00095
4539.35662,0.00143
4538.32636,0.00165
4537.29609,0.00172
4536.26582,0.00205
4535.23556,0.00209
4534.20529,0.00177
4533.17502,0.00158
4532.14475,0.00154
4531.11449,0.00150
4530.08422,0.00174
4529.05395,0.00220
4528.02369,0.00229
4526.99342,0.00208
4525.96315,0.00171
4524.93288,0.00128
4523.90262,0.00129
4522.87235,0.00168
4521.84208,0.00172
4520.81182,0.00135
4519.78155,0.00130
4518.75128,0.00186
4517.72102,0.00251
4516.69075,0.00288
4515.66048,0.00262
4514.63021,0.00195
4513.59995,0.00200
4512.56968,0.00296
4511.53941,0.00356
4510.50915,0.00290
4509.47888,0.00206
4508.44861,0.00214
4507.41834,0.00249
4506.38808,0.00273
4505.35781,0.00273
4504.32754,0.00238
4503.29728,0.00231
4502.26701,0.00273
4501.23674,0.00307
4500.20648,0.00271
4499.17621,0.00215
4498.14594,0.00220
4497.11567,0.00232
4496.08541,0.00181
4495.05514,0.00113
4494.02487,0.00091
4492.99461,0.00093
4491.96434,0.00118
4490.93407,0.00178
4489.90380,0.00223
4488.87354,0.00244
4487.84327,0.00283
4486.81300,0.00311
4485.78274,0.00281
4484.75247,0.00263
4483.72220,0.00294
4482.69194,0.00273
4481.66167,0.00221
4480.63140,0.00246
4479.60113,0.00287
4478.57087,0.00259
4477.54060,0.00218
4476.51033,0.00194
4475.48007,0.00177
4474.44980,0.00182
4473.41953,0.00193
4472.38926,0.00224
4471.35900,0.00259
4470.32873,0.00264
4469.29846,0.00252
4468.26820,0.00216
4467.23793,0.00148
4466.20766,0.00075
4465.17740,0.00089
4464.14713,0.00156
4463.11686,0.00176
4462.08659,0.00212
4461.05633,0.00261
4460.02606,0.00248
4458.99579,0.00223
4457.96553,0.00227
4456.93526,0.00246
4455.90499,0.00246
4454.87473,0.00213
4453.84446,0.00187
4452.81419,0.00194
4451.78392,0.00182
4450.75366,0.00138
4449.72339,0.00118
4448.69312,0.00146
4447.66286,0.00240
4446.63259,0.00313
4445.60232,0.00274
4444.57205,0.00205
4443.54179,0.00171
4442.51152,0.00175
4441.48125,0.00188
4440.45099,0.00188
4439.42072,0.00189
4438.39045,0.00192
4437.36019,0.00173
4436.32992,0.00123
4435.29965,0.00125
4434.26938,0.00177
4433.23912,0.00186
4432.20885,0.00193
4431.17858,0.00236
4430.14832,0.00264
4429.11805,0.00263
4428.08778,0.00245
4427.05751,0.00240
4426.02725,0.00229
4424.99698,0.00171
4423.96671,0.00146
4422.93645,0.00169
4421.90618,0.00169
4420.87591,0.00185
4419.84565,0.00248
4418.81538,0.00288
4417.78511,0.00270
4416.75484,0.00248
4415.72458,0.00262
4414.69431,0.00283
4413.66404,0.00276
4412.63378,0.00234
4411.60351,0.00138
4410.57324,0.00040
4409.54297,0.00046
4408.51271,0.00153
4407.48244,0.00250
4406.45217,0.00296
4405.42191,0.00314
4404.39164,0.00322
4403.36137,0.00345
4402.33111,0.00349
4401.30084,0.00307
4400.27057,0.00264
4399.24030,0.00220
4398.21004,0.00167
4397.17977,0.00166
4396.14950,0.00216
4395.11924,0.00280
4394.08897,0.00334
4393.05870,0.00336
4392.02844,0.00279
4390.99817,0.00207
4389.96790,0.00187
4388.93763,0.00231
4387.90737,0.00284
4386.87710,0.00286
4385.84683,0.00237
4384.81657,0.00227
4383.78630,0.00275
4382.75603,0.00302
4381.72576,0.00285
4380.69550,0.00256
4379.66523,0.00224
4378.63496,0.00207
4377.60470,0.00230
4376.57443,0.00287
4375.54416,0.00371
4374.51390,0.00428
4373.48363,0.00374
4372.45336,0.00280
4371.42309,0.00267
4370.39283,0.00296
4369.36256,0.00306
4368.33229,0.00315
4367.30203,0.00311
4366.27176,0.00287
4365.24149,0.00272
4364.21122,0.00217
4363.18096,0.00155
4362.15069,0.00187
4361.12042,0.00249
4360.09016,0.00245
4359.05989,0.00216
4358.02962,0.00222
4356.99936,0.00255
4355.96909,0.00288
4354.93882,0.00302
4353.90855,0.00316
4352.87829,0.00370
4351.84802,0.00403
4350.81775,0.00364
4349.78749,0.00307
4348.75722,0.00302
4347.72695,0.00343
4346.69668,0.00359
4345.66642,0.00320
4344.63615,0.00282
4343.60588,0.00293
4342.57562,0.00332
4341.54535,0.00353
4340.51508,0.00328
4339.48482,0.00277
4338.45455,0.00231
4337.42428,0.00213
4336.39401,0.00240
4335.36375,0.00270
4334.33348,0.00262
4333.30321,0.00270
4332.27295,0.00342
4331.24268,0.00381
4330.21241,0.00326
4329.18214,0.00246
4328.15188,0.00211
4327.12161,0.00228
4326.09134,0.00227
4325.06108,0.00193
4324.03081,0.00184
4323.00054,0.00199
4321.97028,0.00230
4320.94001,0.00252
4319.90974,0.00233
4318.87947,0.00213
4317.84921,0.00226
4316.81894,0.00245
4315.78867,0.00211
4314.75841,0.00154
4313.72814,0.00184
4312.69787,0.00294
4311.66761,0.00356
4310.63734,0.00321
4309.60707,0.00281
4308.57680,0.00304
4307.54654,0.00328
4306.51627,0.00278
4305.48600,0.00218
4304.45574,0.00234
4303.42547,0.00273
4302.39520,0.00249
4301.36493,0.00169
4300.33467,0.00150
4299.30440,0.00194
4298.27413,0.00201
4297.24387,0.00204
4296.21360,0.00255
4295.18333,0.00302
4294.15307,0.00294
4293.12280,0.00266
4292.09253,0.00256
4291.06226,0.00243
4290.03200,0.00230
4289.00173,0.00242
4287.97146,0.00254
4286.94120,0.00287
4285.91093,0.00336
4284.88066,0.00298
4283.85039,0.00185
4282.82013,0.00116
4281.78986,0.00127
4280.75959,0.00163
4279.72933,0.00213
4278.69906,0.00270
4277.66879,0.00301
4276.63853,0.00314
4275.60826,0.00301
4274.57799,0.00226
4273.54772,0.00142
4272.51746,0.00122
4271.48719,0.00173
4270.45692,0.00263
4269.42666,0.00331
4268.39639,0.00365
4267.36612,0.00390
4266.33585,0.00386
4265.30559,0.00320
4264.27532,0.00240
4263.24505,0.00247
4262.21479,0.00296
4261.18452,0.00273
4260.15425,0.00243
4259.12399,0.00265
4258.09372,0.00264
4257.06345,0.00236
4256.03318,0.00228
4255.00292,0.00201
4253.97265,0.00133
4252.94238,0.00113
4251.91212,0.00151
4250.88185,0.00190
4249.85158,0.00221
4248.82132,0.00264
4247.79105,0.00284
4246.76078,0.00254
4245.73051,0.00250
4244.70025,0.00265
4243.66998,0.00250
4242.63971,0.00240
4241.60945,0.00261
4240.57918,0.00310
4239.54891,0.00338
4238.51864,0.00305
4237.48838,0.00239
4236.45811,0.00219
4235.42784,0.00258
4234.39758,0.00285
4233.36731,0.00261
4232.33704,0.00198
4231.30678,0.00170
4230.27651,0.00211
4229.24624,0.00250
4228.21597,0.00245
4227.18571,0.00249
4226.15544,0.00270
4225.12517,0.00241
4224.09491,0.00177
4223.06464,0.00148
4222.03437,0.00160
4221.00410,0.00182
4219.97384,0.00193
4218.94357,0.00201
4217.91330,0.00234
4216.88304,0.00284
4215.85277,0.00331
4214.82250,0.00343
4213.79224,0.00288
4212.76197,0.00235
4211.73170,0.00239
4210.70143,0.00259
4209.67117,0.00263
4208.64090,0.00259
4207.61063,0.00259
4206.58037,0.00264
4205.55010,0.00250
4204.51983,0.00213
4203.48956,0.00215
4202.45930,0.00271
4201.42903,0.00313
4200.39876,0.00301
4199.36850,0.00296
4198.33823,0.00335
4197.30796,0.00330
4196.27770,0.00295
4195.24743,0.00301
4194.21716,0.00285
4193.18689,0.00233
4192.15663,0.00221
4191.12636,0.00221
4190.09609,0.00201
4189.06583,0.00198
4188.03556,0.00207
4187.00529,0.00246
4185.97502,0.00300
4184.94476,0.00292
4183.91449,0.00214
4182.88422,0.00151
4181.85396,0.00161
4180.82369,0.00221
4179.79342,0.00288
4178.76316,0.00324
4177.73289,0.00311
4176.70262,0.00280
4175.67235,0.00255
4174.64209,0.00229
4173.61182,0.00233
4172.58155,0.00264
4171.55129,0.00274
4170.52102,0.00266
4169.49075,0.00266
4168.46049,0.00310
4167.43022,0.00374
4166.39995,0.00364
4165.36968,0.00300
4164.33942,0.00278
4163.30915,0.00301
4162.27888,0.00303
4161.24862,0.00283
4160.21835,0.00258
4159.18808,0.00243
4158.15781,0.00250
4157.12755,0.00250
4156.09728,0.00231
4155.06701,0.00212
4154.03675,0.00198
4153.00648,0.00198
4151.97621,0.00241
4150.94595,0.00314
4149.91568,0.00360
4148.88541,0.00343
4147.85514,0.00290
4146.82488,0.00279
4145.79461,0.00287
4144.76434,0.00235
4143.73408,0.00204
4142.70381,0.00250
4141.67354,0.00273
4140.64327,0.00270
4139.61301,0.00270
4138.58274,0.00245
4137.55247,0.00227
4136.52221,0.00248
4135.49194,0.00274
4134.46167,0.00286
4133.43141,0.00308
4132.40114,0.00328
4131.37087,0.00323
4130.34060,0.00311
4129.31034,0.00292
4128.28007,0.00257
4127.24980,0.00234
4126.21954,0.00253
4125.18927,0.00284
4124.15900,0.00288
4123.12873,0.00299
4122.09847,0.00332
4121.06820,0.00330
4120.03793,0.00289
4119.00767,0.00283
4117.97740,0.00324
4116.94713,0.00336
4115.91687,0.00307
4114.88660,0.00299
4113.85633,0.00330
4112.82606,0.00366
4111.79580,0.00365
4110.76553,0.00331
4109.73526,0.00302
4108.70500,0.00291
4107.67473,0.00285
4106.64446,0.00247
4105.61420,0.00192
4104.58393,0.00205
4103.55366,0.00269
4102.52339,0.00286
4101.49313,0.00251
4100.46286,0.00221
4099.43259,0.00236
4098.40233,0.00278
4097.37206,0.00294
4096.34179,0.00280
4095.31152,0.00280
4094.28126,0.00291
4093.25099,0.00284
4092.22072,0.00273
4091.19046,0.00317
4090.16019,0.00422
4089.12992,0.00477
4088.09966,0.00431
4087.06939,0.00372
4086.03912,0.00355
4085.00885,0.00357
4083.97859,0.00376
4082.94832,0.00401
4081.91805,0.00388
4080.88779,0.00357
4079.85752,0.00343
4078.82725,0.00347
4077.79698,0.00387
4076.76672,0.00429
4075.73645,0.00398
4074.70618,0.00339
4073.67592,0.00340
4072.64565,0.00370
4071.61538,0.00394
4070.58512,0.00426
4069.55485,0.00435
4068.52458,0.00422
4067.49431,0.00419
4066.46405,0.00400
4065.43378,0.00348
4064.40351,0.00292
4063.37325,0.00285
4062.34298,0.00337
4061.31271,0.00369
4060.28244,0.00358
4059.25218,0.00345
4058.22191,0.00373
4057.19164,0.00412
4056.16138,0.00395
4055.13111,0.00376
4054.10084,0.00388
4053.07058,0.00370
4052.04031,0.00339
4051.01004,0.00366
4049.97977,0.00407
4048.94951,0.00395
4047.91924,0.00377
4046.88897,0.00412
4045.85871,0.00466
4044.82844,0.00466
4043.79817,0.00428
4042.76791,0.00403
4041.73764,0.00415
4040.70737,0.00450
4039.67710,0.00445
4038.64684,0.00422
4037.61657,0.00453
4036.58630,0.00480
4035.55604,0.00450
4034.52577,0.00405
4033.49550,0.00359
4032.46523,0.00342
4031.43497,0.00377
4030.40470,0.00424
4029.37443,0.00442
4028.34417,0.00435
4027.31390,0.00432
4026.28363,0.00434
4025.25337,0.00431
4024.22310,0.00417
4023.19283,0.00414
4022.16256,0.00438
4021.13230,0.00427
4020.10203,0.00396
4019.07176,0.00409
4018.04150,0.00430
4017.01123,0.00426
4015.98096,0.00430
4014.95069,0.00444
4013.92043,0.00439
4012.89016,0.00443
4011.85989,0.00444
4010.82963,0.00389
4009.79936,0.00321
4008.76909,0.00296
4007.73883,0.00330
4006.70856,0.00404
4005.67829,0.00444
4004.64802,0.00447
4003.61776,0.00473
4002.58749,0.00467
4001.55722,0.00421
4000.52696,0.00426
3999.49669,0.00447
3998.46642,0.00428
3997.43615,0.00396
3996.40589,0.00391
3995.37562,0.00399
3994.34535,0.00403
3993.31509,0.00405
3992.28482,0.00390
3991.25455,0.00363
3990.22429,0.00366
3989.19402,0.00413
3988.16375,0.00451
3987.13348,0.00429
3986.10322,0.00376
3985.07295,0.00330
3984.04268,0.00308
3983.01242,0.00349
3981.98215,0.00440
3980.95188,0.00503
3979.92161,0.00517
3978.89135,0.00501
3977.86108,0.00455
3976.83081,0.00406
3975.80055,0.00396
3974.77028,0.00396
3973.74001,0.00365
3972.70975,0.00321
3971.67948,0.00326
3970.64921,0.00381
3969.61894,0.00416
3968.58868,0.00407
3967.55841,0.00381
3966.52814,0.00373
3965.49788,0.00397
3964.46761,0.00415
3963.43734,0.00396
3962.40708,0.00353
3961.37681,0.00311
3960.34654,0.00309
3959.31627,0.00361
3958.28601,0.00415
3957.25574,0.00430
3956.22547,0.00398
3955.19521,0.00339
3954.16494,0.00322
3953.13467,0.00371
3952.10440,0.00416
3951.07414,0.00416
3950.04387,0.00403
3949.01360,0.00396
3947.98334,0.00376
3946.95307,0.00359
3945.92280,0.00359
3944.89254,0.00367
3943.86227,0.00403
3942.83200,0.00438
3941.80173,0.00420
3940.77147,0.00353
3939.74120,0.00303
3938.71093,0.00347
3937.68067,0.00402
3936.65040,0.00398
3935.62013,0.00399
3934.58986,0.00418
3933.55960,0.00419
3932.52933,0.00376
3931.49906,0.00327
3930.46880,0.00303
3929.43853,0.00293
3928.40826,0.00317
3927.37800,0.00350
3926.34773,0.00338
3925.31746,0.00287
3924.28719,0.00279
3923.25693,0.00325
3922.22666,0.00350
3921.19639,0.00330
3920.16613,0.00279
3919.13586,0.00266
3918.10559,0.00312
3917.07532,0.00342
3916.04506,0.00349
3915.01479,0.00345
3913.98452,0.00327
3912.95426,0.00356
3911.92399,0.00420
3910.89372,0.00426
3909.86346,0.00380
3908.83319,0.00357
3907.80292,0.00367
3906.77265,0.00406
3905.74239,0.00448
3904.71212,0.00414
3903.68185,0.00314
3902.65159,0.00289
3901.62132,0.00386
3900.59105,0.00452
3899.56079,0.00405
3898.53052,0.00345
3897.50025,0.00314
3896.46998,0.00275
3895.43972,0.00288
3894.40945,0.00353
3893.37918,0.00400
3892.34892,0.00408
3891.31865,0.00360
3890.28838,0.00313
3889.25811,0.00308
3888.22785,0.00297
3887.19758,0.00294
3886.16731,0.00319
3885.13705,0.00320
3884.10678,0.00302
3883.07651,0.00312
3882.04625,0.00362
3881.01598,0.00434
3879.98571,0.00456
3878.95544,0.00434
3877.92518,0.00426
3876.89491,0.00416
3875.86464,0.00389
3874.83438,0.00352
3873.80411,0.00329
3872.77384,0.00330
3871.74357,0.00337
3870.71331,0.00370
3869.68304,0.00393
3868.65277,0.00345
3867.62251,0.00282
3866.59224,0.00248
3865.56197,0.00277
3864.53171,0.00347
3863.50144,0.00354
3862.47117,0.00308
3861.44090,0.00275
3860.41064,0.00285
3859.38037,0.00322
3858.35010,0.00350
3857.31984,0.00378
3856.28957,0.00408
3855.25930,0.00385
3854.22903,0.00310
3853.19877,0.00314
3852.16850,0.00371
3851.13823,0.00353
3850.10797,0.00327
3849.07770,0.00319
3848.04743,0.00273
3847.01717,0.00237
3845.98690,0.00277
3844.95663,0.00318
3843.92636,0.00328
3842.89610,0.00345
3841.86583,0.00347
3840.83556,0.00355
3839.80530,0.00398
3838.77503,0.00434
3837.74476,0.00444
3836.71449,0.00420
3835.68423,0.00385
3834.65396,0.00379
3833.62369,0.00365
3832.59343,0.00307
3831.56316,0.00255
3830.53289,0.00233
3829.50263,0.00231
3828.47236,0.00261
3827.44209,0.00289
3826.41182,0.00271
3825.38156,0.00273
3824.35129,0.00326
3823.32102,0.00374
3822.29076,0.00360
3821.26049,0.00319
3820.23022,0.00323
3819.19996,0.00340
3818.16969,0.00335
3817.13942,0.00323
3816.10915,0.00356
3815.07889,0.00392
3814.04862,0.00394
3813.01835,0.00389
3811.98809,0.00350
3810.95782,0.00325
3809.92755,0.00358
3808.89728,0.00380
3807.86702,0.00379
3806.83675,0.00350
3805.80648,0.00296
3804.77622,0.00322
3803.74595,0.00409
3802.71568,0.00469
3801.68542,0.00457
3800.65515,0.00396
3799.62488,0.00384
3798.59461,0.00415
3797.56435,0.00437
3796.53408,0.00443
3795.50381,0.00431
3794.47355,0.00395
3793.44328,0.00376
3792.41301,0.00369
3791.38274,0.00322
3790.35248,0.00279
3789.32221,0.00299
3788.29194,0.00315
3787.26168,0.00302
3786.23141,0.00321
3785.20114,0.00364
3784.17088,0.00373
3783.14061,0.00340
3782.11034,0.00332
3781.08007,0.00384
3780.04981,0.00448
3779.01954,0.00455
3777.98927,0.00421
3776.95901,0.00385
3775.92874,0.00337
3774.89847,0.00297
3773.86820,0.00300
3772.83794,0.00345
3771.80767,0.00354
3770.77740,0.00323
3769.74714,0.00336
3768.71687,0.00361
3767.68660,0.00378
3766.65634,0.00385
3765.62607,0.00350
3764.59580,0.00348
3763.56553,0.00392
3762.53527,0.00411
3761.50500,0.00402
3760.47473,0.00419
3759.44447,0.00431
3758.41420,0.00351
3757.38393,0.00284
3756.35367,0.00307
3755.32340,0.00349
3754.29313,0.00375
3753.26286,0.00368
3752.23260,0.00337
3751.20233,0.00389
3750.17206,0.00487
3749.14180,0.00535
3748.11153,0.00522
3747.08126,0.00490
3746.05099,0.00484
3745.02073,0.00576
3743.99046,0.00653
3742.96019,0.00543
3741.92993,0.00436
3740.89966,0.00430
3739.86939,0.00502
3738.83913,0.00545
3737.80886,0.00513
3736.77859,0.00476
3735.74832,0.00518
3734.71806,0.00561
3733.68779,0.00535
3732.65752,0.00513
3731.62726,0.00502
3730.59699,0.00488
3729.56672,0.00476
3728.53645,0.00453
3727.50619,0.00426
3726.47592,0.00411
3725.44565,0.00408
3724.41539,0.00421
3723.38512,0.00445
3722.35485,0.00497
3721.32459,0.00555
3720.29432,0.00556
3719.26405,0.00516
3718.23378,0.00492
3717.20352,0.00486
3716.17325,0.00481
3715.14298,0.00501
3714.11272,0.00557
3713.08245,0.00629
3712.05218,0.00667
3711.02191,0.00626
3709.99165,0.00579
3708.96138,0.00588
3707.93111,0.00631
3706.90085,0.00648
3705.87058,0.00606
3704.84031,0.00568
3703.81005,0.00615
3702.77978,0.00691
3701.74951,0.00684
3700.71924,0.00620
3699.68898,0.00602
3698.65871,0.00642
3697.62844,0.00703
3696.59818,0.00751
3695.56791,0.00779
3694.53764,0.00773
3693.50737,0.00753
3692.47711,0.00776
3691.44684,0.00843
3690.41657,0.00895
3689.38631,0.00902
3688.35604,0.00864
3687.32577,0.00858
3686.29551,0.00901
3685.26524,0.00898
3684.23497,0.00870
3683.20470,0.00899
3682.17444,0.00944
3681.14417,0.00973
3680.11390,0.01027
3679.08364,0.01107
3678.05337,0.01177
3677.02310,0.01234
3675.99284,0.01299
3674.96257,0.01314
3673.93230,0.01246
3672.90203,0.01186
3671.87177,0.01172
3670.84150,0.01251
3669.81123,0.01396
3668.78097,0.01501
3667.75070,0.01529
3666.72043,0.01495
3665.69016,0.01480
3664.65990,0.01527
3663.62963,0.01575
3662.59936,0.01605
3661.56910,0.01665
3660.53883,0.01763
3659.50856,0.01876
3658.47830,0.01980
3657.44803,0.02016
3656.41776,0.01988
3655.38749,0.02017
3654.35723,0.02081
3653.32696,0.02113
3652.29669,0.02131
3651.26643,0.02179
3650.23616,0.02295
3649.20589,0.02416
3648.17562,0.02486
3647.14536,0.02501
3646.11509,0.02464
3645.08482,0.02467
3644.05456,0.02561
3643.02429,0.02687
3641.99402,0.02767
3640.96376,0.02793
3639.93349,0.02833
3638.90322,0.02891
3637.87295,0.02921
3636.84269,0.02970
3635.81242,0.03089
3634.78215,0.03216
3633.75189,0.03262
3632.72162,0.03275
3631.69135,0.03363
3630.66108,0.03508
3629.63082,0.03607
3628.60055,0.03588
3627.57028,0.03595
3626.54002,0.03697
3625.50975,0.03803
3624.47948,0.03884
3623.44922,0.03955
3622.41895,0.04027
3621.38868,0.04144
3620.35841,0.04288
3619.32815,0.04347
3618.29788,0.04316
3617.26761,0.04311
3616.23735,0.04387
3615.20708,0.04514
3614.17681,0.04665
3613.14655,0.04813
3612.11628,0.04881
3611.08601,0.04901
3610.05574,0.04973
3609.02548,0.05087
3607.99521,0.05168
3606.96494,0.05216
3605.93468,0.05269
3604.90441,0.05350
3603.87414,0.05465
3602.84387,0.05576
3601.81361,0.05662
3600.78334,0.05738
3599.75307,0.05791
3598.72281,0.05860
3597.69254,0.05996
3596.66227,0.06119
3595.63201,0.06171
3594.60174,0.06232
3593.57147,0.06328
3592.54120,0.06390
3591.51094,0.06430
3590.48067,0.06495
3589.45040,0.06619
3588.42014,0.06817
3587.38987,0.07014
3586.35960,0.07117
3585.32933,0.07111
3584.29907,0.07107
3583.26880,0.07199
3582.23853,0.07348
3581.20827,0.07499
3580.17800,0.07660
3579.14773,0.07820
3578.11747,0.07930
3577.08720,0.07968
3576.05693,0.07987
3575.02666,0.08105
3573.99640,0.08289
3572.96613,0.08402
3571.93586,0.08467
3570.90560,0.08602
3569.87533,0.08791
3568.84506,0.08956
3567.81479,0.09058
3566.78453,0.09086
3565.75426,0.09102
3564.72399,0.09204
3563.69373,0.09379
3562.66346,0.09523
3561.63319,0.09594
3560.60293,0.09672
3559.57266,0.09793
3558.54239,0.09895
3557.51212,0.09984
3556.48186,0.10110
3555.45159,0.10252
3554.42132,0.10374
3553.39106,0.10456
3552.36079,0.10531
3551.33052,0.10644
3550.30026,0.10735
3549.26999,0.10802
3548.23972,0.10903
3547.20945,0.10991
3546.17919,0.11042
3545.14892,0.11108
3544.11865,0.11225
3543.08839,0.11404
3542.05812,0.11576
3541.02785,0.11675
3539.99758,0.11743
3538.96732,0.11824
3537.93705,0.11919
3536.90678,0.11999
3535.87652,0.12060
3534.84625,0.12134
3533.81598,0.12217
3532.78572,0.12296
3531.75545,0.12393
3530.72518,0.12512
3529.69491,0.12609
3528.66465,0.12671
3527.63438,0.12742
3526.60411,0.12809
3525.57385,0.12873
3524.54358,0.12970
3523.51331,0.13098
3522.48304,0.13224
3521.45278,0.13296
3520.42251,0.13339
3519.39224,0.13398
3518.36198,0.13486
3517.33171,0.13617
3516.30144,0.13764
3515.27118,0.13867
3514.24091,0.13888
3513.21064,0.13881
3512.18037,0.13926
3511.15011,0.14007
3510.11984,0.14078
3509.08957,0.14134
3508.05931,0.14215
3507.02904,0.14332
3505.99877,0.14413
3504.96850,0.14447
3503.93824,0.14484
3502.90797,0.14505
3501.87770,0.14530
3500.84744,0.14607
3499.81717,0.14664
3498.78690,0.14638
3497.75664,0.14602
3496.72637,0.14663
3495.69610,0.14784
3494.66583,0.14878
3493.63557,0.14965
3492.60530,0.15050
3491.57503,0.15071
3490.54477,0.15073
3489.51450,0.15152
3488.48423,0.15249
3487.45396,0.15284
3486.42370,0.15321
3485.39343,0.15388
3484.36316,0.15449
3483.33290,0.15498
3482.30263,0.15536
3481.27236,0.15564
3480.24210,0.15573
3479.21183,0.15612
3478.18156,0.15714
3477.15129,0.15781
3476.12103,0.15771
3475.09076,0.15750
3474.06049,0.15745
3473.03023,0.15756
3471.99996,0.15818
3470.96969,0.15932
3469.93943,0.16022
3468.90916,0.16073
3467.87889,0.16132
3466.84862,0.16203
3465.81836,0.16270
3464.78809,0.16335
3463.75782,0.16407
3462.72756,0.16456
3461.69729,0.16488
3460.66702,0.16525
3459.63675,0.16541
3458.60649,0.16556
3457.57622,0.16584
3456.54595,0.16617
3455.51569,0.16680
3454.48542,0.16748
3453.45515,0.16773
3452.42489,0.16782
3451.39462,0.16839
3450.36435,0.16951
3449.33408,0.17088
3448.30382,0.17167
3447.27355,0.17154
3446.24328,0.17152
3445.21302,0.17201
3444.18275,0.17227
3443.15248,0.17249
3442.12221,0.17297
3441.09195,0.17294
3440.06168,0.17254
3439.03141,0.17266
3438.00115,0.17310
3436.97088,0.17344
3435.94061,0.17388
3434.91035,0.17420
3433.88008,0.17423
3432.84981,0.17476
3431.81954,0.17585
3430.78928,0.17633
3429.75901,0.17606
3428.72874,0.17621
3427.69848,0.17713
3426.66821,0.17819
3425.63794,0.17881
3424.60767,0.17864
3423.57741,0.17785
3422.54714,0.17739
3421.51687,0.17805
3420.48661,0.17914
3419.45634,0.17989
3418.42607,0.18022
3417.39581,0.18004
3416.36554,0.17983
3415.33527,0.17976
3414.30500,0.17951
3413.27474,0.17959
3412.24447,0.18025
3411.21420,0.18072
3410.18394,0.18033
3409.15367,0.17964
3408.12340,0.17967
3407.09314,0.18044
3406.06287,0.18146
3405.03260,0.18222
3404.00233,0.18215
3402.97207,0.18144
3401.94180,0.18078
3400.91153,0.18037
3399.88127,0.18008
3398.85100,0.18014
3397.82073,0.18058
3396.79046,0.18036
3395.76020,0.17953
3394.72993,0.17914
3393.69966,0.17890
3392.66940,0.17892
3391.63913,0.17942
3390.60886,0.17950
3389.57860,0.17890
3388.54833,0.17810
3387.51806,0.17778
3386.48779,0.17793
3385.45753,0.17763
3384.42726,0.17696
3383.39699,0.17650
3382.36673,0.17613
3381.33646,0.17598
3380.30619,0.17620
3379.27592,0.17636
3378.24566,0.17606
3377.21539,0.17556
3376.18512,0.17530
3375.15486,0.17497
3374.12459,0.17424
3373.09432,0.17338
3372.06406,0.17262
3371.03379,0.17227
3370.00352,0.17208
3368.97325,0.17146
3367.94299,0.17076
3366.91272,0.17033
3365.88245,0.16994
3364.85219,0.16935
3363.82192,0.16862
3362.79165,0.16807
3361.76138,0.16753
3360.73112,0.16668
3359.70085,0.16595
3358.67058,0.16550
3357.64032,0.16494
3356.61005,0.16433
3355.57978,0.16416
3354.54952,0.16431
3353.51925,0.16382
3352.48898,0.16244
3351.45871,0.16130
3350.42845,0.16087
3349.39818,0.16029
3348.36791,0.15958
3347.33765,0.15934
3346.30738,0.15896
3345.27711,0.15837
3344.24684,0.15815
3343.21658,0.15802
3342.18631,0.15751
3341.15604,0.15667
3340.12578,0.15603
3339.09551,0.15573
3338.06524,0.15549
3337.03498,0.15507
3336.00471,0.15423
3334.97444,0.15315
3333.94417,0.15242
3332.91391,0.15218
3331.88364,0.15209
3330.85337,0.15178
3329.82311,0.15106
3328.79284,0.15040
3327.76257,0.15022
3326.73231,0.14972
3325.70204,0.14872
3324.67177,0.14802
3323.64150,0.14783
3322.61124,0.14787
3321.58097,0.14760
3320.55070,0.14716
3319.52044,0.14689
3318.49017,0.14653
3317.45990,0.14614
3316.42963,0.14578
3315.39937,0.14545
3314.36910,0.14511
3313.33883,0.14448
3312.30857,0.14391
3311.27830,0.14350
3310.24803,0.14304
3309.21777,0.14287
3308.18750,0.14306
3307.15723,0.14293
3306.12696,0.14228
3305.09670,0.14169
3304.06643,0.14120
3303.03616,0.14069
3302.00590,0.14044
3300.97563,0.14063
3299.94536,0.14087
3298.91509,0.14054
3297.88483,0.13987
3296.85456,0.13942
3295.82429,0.13904
3294.79403,0.13868
3293.76376,0.13859
3292.73349,0.13876
3291.70323,0.13868
3290.67296,0.13808
3289.64269,0.13725
3288.61242,0.13649
3287.58216,0.13614
3286.55189,0.13627
3285.52162,0.13647
3284.49136,0.13644
3283.46109,0.13620
3282.43082,0.13596
3281.40055,0.13590
3280.37029,0.13587
3279.34002,0.13530
3278.30975,0.13435
3277.27949,0.13378
3276.24922,0.13376
3275.21895,0.13367
3274.18869,0.13326
3273.15842,0.13286
3272.12815,0.13247
3271.09788,0.13195
3270.06762,0.13165
3269.03735,0.13194
3268.00708,0.13238
3266.97682,0.13254
3265.94655,0.13242
3264.91628,0.13176
3263.88602,0.13075
3262.85575,0.12999
3261.82548,0.12955
3260.79521,0.12918
3259.76495,0.12874
3258.73468,0.12826
3257.70441,0.12792
3256.67415,0.12756
3255.64388,0.12712
3254.61361,0.12680
3253.58334,0.12644
3252.55308,0.12581
3251.52281,0.12523
3250.49254,0.12469
3249.46228,0.12398
3248.43201,0.12328
3247.40174,0.12272
3246.37148,0.12221
3245.34121,0.12164
3244.31094,0.12112
3243.28067,0.12051
3242.25041,0.11964
3241.22014,0.11903
3240.18987,0.11870
3239.15961,0.11842
3238.12934,0.11831
3237.09907,0.11819
3236.06880,0.11765
3235.03854,0.11649
3234.00827,0.11543
3232.97800,0.11486
3231.94774,0.11415
3230.91747,0.11326
3229.88720,0.11261
3228.85694,0.11237
3227.82667,0.11229
3226.79640,0.11209
3225.76613,0.11145
3224.73587,0.11022
3223.70560,0.10906
3222.67533,0.10823
3221.64507,0.10759
3220.61480,0.10715
3219.58453,0.10695
3218.55426,0.10655
3217.52400,0.10543
3216.49373,0.10406
3215.46346,0.10311
3214.43320,0.10229
3213.40293,0.10147
3212.37266,0.10079
3211.34240,0.09990
3210.31213,0.09934
3209.28186,0.09936
3208.25159,0.09903
3207.22133,0.09812
3206.19106,0.09708
3205.16079,0.09593
3204.13053,0.09456
3203.10026,0.09352
3202.06999,0.09316
3201.03972,0.09288
3200.00946,0.09215
3198.97919,0.09129
3197.94892,0.09074
3196.91866,0.09015
3195.88839,0.08954
3194.85812,0.08920
3193.82786,0.08862
3192.79759,0.08747
3191.76732,0.08617
3190.73705,0.08538
3189.70679,0.08516
3188.67652,0.08486
3187.64625,0.08420
3186.61599,0.08343
3185.58572,0.08252
3184.55545,0.08136
3183.52519,0.08043
3182.49492,0.07987
3181.46465,0.07931
3180.43438,0.07872
3179.40412,0.07806
3178.37385,0.07721
3177.34358,0.07637
3176.31332,0.07562
3175.28305,0.07499
3174.25278,0.07448
3173.22251,0.07371
3172.19225,0.07258
3171.16198,0.07175
3170.13171,0.07150
3169.10145,0.07123
3168.07118,0.07054
3167.04091,0.06966
3166.01065,0.06914
3164.98038,0.06890
3163.95011,0.06837
3162.91984,0.06773
3161.88958,0.06718
3160.85931,0.06647
3159.82904,0.06591
3158.79878,0.06575
3157.76851,0.06539
3156.73824,0.06426
3155.70797,0.06279
3154.67771,0.06189
3153.64744,0.06177
3152.61717,0.06181
3151.58691,0.06127
3150.55664,0.06010
3149.52637,0.05908
3148.49611,0.05860
3147.46584,0.05823
3146.43557,0.05784
3145.40530,0.05750
3144.37504,0.05694
3143.34477,0.05618
3142.31450,0.05575
3141.28424,0.05535
3140.25397,0.05456
3139.22370,0.05384
3138.19343,0.05343
3137.16317,0.05316
3136.13290,0.05281
3135.10263,0.05242
3134.07237,0.05218
3133.04210,0.05171
3132.01183,0.05092
3130.98157,0.05003
3129.95130,0.04920
3128.92103,0.04881
3127.89076,0.04885
3126.86050,0.04868
3125.83023,0.04821
3124.79996,0.04789
3123.76970,0.04758
3122.73943,0.04672
3121.70916,0.04556
3120.67890,0.04479
3119.64863,0.04449
3118.61836,0.04431
3117.58809,0.04402
3116.55783,0.04345
3115.52756,0.04302
3114.49729,0.04287
3113.46703,0.04255
3112.43676,0.04227
3111.40649,0.04204
3110.37622,0.04129
3109.34596,0.04034
3108.31569,0.04008
3107.28542,0.04036
3106.25516,0.04028
3105.22489,0.03957
3104.19462,0.03909
3103.16436,0.03917
3102.13409,0.03891
3101.10382,0.03831
3100.07355,0.03790
3099.04329,0.03748
3098.01302,0.03692
3096.98275,0.03640
3095.95249,0.03622
3094.92222,0.03644
3093.89195,0.03661
3092.86168,0.03642
3091.83142,0.03587
3090.80115,0.03528
3089.77088,0.03503
3088.74062,0.03478
3087.71035,0.03428
3086.68008,0.03390
3085.64982,0.03375
3084.61955,0.03361
3083.58928,0.03312
3082.55901,0.03233
3081.52875,0.03171
3080.49848,0.03143
3079.46821,0.03143
3078.43795,0.03149
3077.40768,0.03119
3076.37741,0.03053
3075.34714,0.02999
3074.31688,0.02996
3073.28661,0.03020
3072.25634,0.03010
3071.22608,0.02969
3070.19581,0.02937
3069.16554,0.02933
3068.13528,0.02951
3067.10501,0.02950
3066.07474,0.02927
3065.04447,0.02921
3064.01421,0.02914
3062.98394,0.02881
3061.95367,0.02835
3060.92341,0.02775
3059.89314,0.02712
3058.86287,0.02660
3057.83261,0.02623
3056.80234,0.02596
3055.77207,0.02568
3054.74180,0.02576
3053.71154,0.02598
3052.68127,0.02565
3051.65100,0.02507
3050.62074,0.02471
3049.59047,0.02467
3048.56020,0.02473
3047.52993,0.02467
3046.49967,0.02447
3045.46940,0.02425
3044.43913,0.02418
3043.40887,0.02399
3042.37860,0.02361
3041.34833,0.02338
3040.31807,0.02328
3039.28780,0.02309
3038.25753,0.02283
3037.22726,0.02260
3036.19700,0.02239
3035.16673,0.02232
3034.13646,0.02250
3033.10620,0.02256
3032.07593,0.02217
3031.04566,0.02163
3030.01539,0.02145
3028.98513,0.02159
3027.95486,0.02172
3026.92459,0.02158
3025.89433,0.02104
3024.86406,0.02015
3023.83379,0.01964
3022.80353,0.01997
3021.77326,0.02032
3020.74299,0.02021
3019.71272,0.02009
3018.68246,0.02010
3017.65219,0.01982
3016.62192,0.01955
3015.59166,0.01977
3014.56139,0.02006
3013.53112,0.02003
3012.50085,0.01971
3011.47059,0.01939
3010.44032,0.01926
3009.41005,0.01914
3008.37979,0.01909
3007.34952,0.01931
3006.31925,0.01964
3005.28899,0.01987
3004.25872,0.01989
3003.22845,0.01967
3002.19818,0.01933
3001.16792,0.01921
3000.13765,0.01923
2999.10738,0.01921
2998.07712,0.01936
2997.04685,0.01962
2996.01658,0.01978
2994.98631,0.02004
2993.95605,0.02034
2992.92578,0.02035
2991.89551,0.02032
2990.86525,0.02061
2989.83498,0.02107
2988.80471,0.02146
2987.77445,0.02188
2986.74418,0.02245
2985.71391,0.02306
2984.68364,0.02371
2983.65338,0.02431
2982.62311,0.02491
2981.59284,0.02592
2980.56258,0.02698
2979.53231,0.02780
2978.50204,0.02890
2977.47178,0.03036
2976.44151,0.03147
2975.41124,0.03229
2974.38097,0.03362
2973.35071,0.03530
2972.32044,0.03662
2971.29017,0.03754
2970.25991,0.03848
2969.22964,0.03992
2968.19937,0.04165
2967.16910,0.04304
2966.13884,0.04404
2965.10857,0.04519
2964.07830,0.04687
2963.04804,0.04871
2962.01777,0.05026
2960.98750,0.05131
2959.95724,0.05227
2958.92697,0.05382
2957.89670,0.05559
2956.86643,0.05707
2955.83617,0.05833
2954.80590,0.05959
2953.77563,0.06094
2952.74537,0.06221
2951.71510,0.06329
2950.68483,0.06428
2949.65456,0.06526
2948.62430,0.06630
2947.59403,0.06738
2946.56376,0.06818
2945.53350,0.06876
2944.50323,0.06938
2943.47296,0.06999
2942.44270,0.07046
2941.41243,0.07097
2940.38216,0.07185
2939.35189,0.07282
2938.32163,0.07366
2937.29136,0.07468
2936.26109,0.07568
2935.23083,0.07616
2934.20056,0.07664
2933.17029,0.07764
2932.14002,0.07873
2931.10976,0.07966
2930.07949,0.08063
2929.04922,0.08169
2928.01896,0.08279
2926.98869,0.08383
2925.95842,0.08483
2924.92816,0.08594
2923.89789,0.08705
2922.86762,0.08797
2921.83735,0.08868
2920.80709,0.08973
2919.77682,0.09143
2918.74655,0.09299
2917.71629,0.09379
2916.68602,0.09420
2915.65575,0.09478
2914.62549,0.09560
2913.59522,0.09646
2912.56495,0.09710
2911.53468,0.09742
2910.50442,0.09751
2909.47415,0.09771
2908.44388,0.09834
2907.41362,0.09895
2906.38335,0.09929
2905.35308,0.09954
2904.32281,0.09971
2903.29255,0.10015
2902.26228,0.10081
2901.23201,0.10081
2900.20175,0.10035
2899.17148,0.10041
2898.14121,0.10087
2897.11095,0.10121
2896.08068,0.10148
2895.05041,0.10201
2894.02014,0.10266
2892.98988,0.10298
2891.95961,0.10322
2890.92934,0.10405
2889.89908,0.10511
2888.86881,0.10583
2887.83854,0.10658
2886.80827,0.10766
2885.77801,0.10885
2884.74774,0.11002
2883.71747,0.11121
2882.68721,0.11241
2881.65694,0.11359
2880.62667,0.11472
2879.59641,0.11562
2878.56614,0.11598
2877.53587,0.11601
2876.50560,0.11634
2875.47534,0.11687
2874.44507,0.11701
2873.41480,0.11671
2872.38454,0.11628
2871.35427,0.11575
2870.32400,0.11498
2869.29373,0.11385
2868.26347,0.11222
2867.23320,0.11020
2866.20293,0.10788
2865.17267,0.10535
2864.14240,0.10274
2863.11213,0.09988
2862.08187,0.09709
2861.05160,0.09486
2860.02133,0.09256
2858.99106,0.08967
2857.96080,0.08641
2856.93053,0.08332
2855.90026,0.08065
2854.87000,0.07801
2853.83973,0.07523
2852.80946,0.07240
2851.77919,0.06953
2850.74893,0.06684
2849.71866,0.06446
2848.68839,0.06235
2847.65813,0.06061
2846.62786,0.05918
2845.59759,0.05782
2844.56733,0.05632
2843.53706,0.05457
2842.50679,0.05278
2841.47652,0.05112
2840.44626,0.04943
2839.41599,0.04796
2838.38572,0.04698
2837.35546,0.04627
2836.32519,0.04548
2835.29492,0.04470
2834.26466,0.04405
2833.23439,0.04315
2832.20412,0.04191
2831.17385,0.04095
2830.14359,0.04049
2829.11332,0.03994
2828.08305,0.03931
2827.05279,0.03881
2826.02252,0.03823
2824.99225,0.03754
2823.96198,0.03680
2822.93172,0.03612
2821.90145,0.03563
2820.87118,0.03526
2819.84092,0.03475
2818.81065,0.03404
2817.78038,0.03343
2816.75012,0.03303
2815.71985,0.03248
2814.68958,0.03175
2813.65931,0.03114
2812.62905,0.03059
2811.59878,0.03009
2810.56851,0.02972
2809.53825,0.02927
2808.50798,0.02846
2807.47771,0.02764
2806.44744,0.02732
2805.41718,0.02716
2804.38691,0.02677
2803.35664,0.02610
2802.32638,0.02519
2801.29611,0.02469
2800.26584,0.02477
2799.23558,0.02463
2798.20531,0.02396
2797.17504,0.02326
2796.14477,0.02287
2795.11451,0.02259
2794.08424,0.02233
2793.05397,0.02211
2792.02371,0.02164
2790.99344,0.02100
2789.96317,0.02054
2788.93290,0.02040
2787.90264,0.02030
2786.87237,0.01986
2785.84210,0.01939
2784.81184,0.01924
2783.78157,0.01910
2782.75130,0.01879
2781.72104,0.01856
2780.69077,0.01854
2779.66050,0.01842
2778.63023,0.01804
2777.59997,0.01767
2776.56970,0.01743
2775.53943,0.01733
2774.50917,0.01721
2773.47890,0.01698
2772.44863,0.01680
2771.41837,0.01660
2770.38810,0.01631
2769.35783,0.01611
2768.32756,0.01592
2767.29730,0.01573
2766.26703,0.01565
2765.23676,0.01562
2764.20650,0.01561
2763.17623,0.01548
2762.14596,0.01529
2761.11569,0.01516
2760.08543,0.01502
2759.05516,0.01477
2758.02489,0.01469
2756.99463,0.01495
2755.96436,0.01526
2754.93409,0.01562
2753.90383,0.01583
2752.87356,0.01557
2751.84329,0.01506
2750.81302,0.01471
2749.78276,0.01480
2748.75249,0.01505
2747.72222,0.01503
2746.69196,0.01497
2745.66169,0.01502
2744.63142,0.01491
2743.60115,0.01464
2742.57089,0.01434
2741.54062,0.01401
2740.51035,0.01382
2739.48009,0.01387
2738.44982,0.01393
2737.41955,0.01386
2736.38929,0.01387
2735.35902,0.01385
2734.32875,0.01365
2733.29848,0.01336
2732.26822,0.01316
2731.23795,0.01321
2730.20768,0.01337
2729.17742,0.01343
2728.14715,0.01321
2727.11688,0.01299
2726.08661,0.01303
2725.05635,0.01293
2724.02608,0.01261
2722.99581,0.01224
2721.96555,0.01182
2720.93528,0.01164
2719.90501,0.01179
2718.87475,0.01173
2717.84448,0.01145
2716.81421,0.01140
2715.78394,0.01144
2714.75368,0.01116
2713.72341,0.01088
2712.69314,0.01100
2711.66288,0.01135
2710.63261,0.01158
2709.60234,0.01142
2708.57207,0.01090
2707.54181,0.01058
2706.51154,0.01050
2705.48127,0.01021
2704.45101,0.00998
2703.42074,0.01013
2702.39047,0.01027
2701.36021,0.01020
2700.32994,0.01000
2699.29967,0.00982
2698.26940,0.00981
2697.23914,0.00974
2696.20887,0.00940
2695.17860,0.00900
2694.14834,0.00877
2693.11807,0.00870
2692.08780,0.00870
2691.05754,0.00882
2690.02727,0.00889
2688.99700,0.00873
2687.96673,0.00842
2686.93647,0.00810
2685.90620,0.00778
2684.87593,0.00748
2683.84567,0.00737
2682.81540,0.00748
2681.78513,0.00764
2680.75486,0.00768
2679.72460,0.00743
2678.69433,0.00701
2677.66406,0.00684
2676.63380,0.00693
2675.60353,0.00714
2674.57326,0.00729
2673.54300,0.00728
2672.51273,0.00726
2671.48246,0.00717
2670.45219,0.00693
2669.42193,0.00670
2668.39166,0.00672
2667.36139,0.00683
2666.33113,0.00661
2665.30086,0.00628
2664.27059,0.00630
2663.24032,0.00649
2662.21006,0.00650
2661.17979,0.00631
2660.14952,0.00607
2659.11926,0.00588
2658.08899,0.00580
2657.05872,0.00589
2656.02846,0.00605
2654.99819,0.00613
2653.96792,0.00618
2652.93765,0.00629
2651.90739,0.00623
2650.87712,0.00581
2649.84685,0.00536
2648.81659,0.00532
2647.78632,0.00561
2646.75605,0.00569
2645.72578,0.00541
2644.69552,0.00516
2643.66525,0.00521
2642.63498,0.00553
2641.60472,0.00571
2640.57445,0.00537
2639.54418,0.00498
2638.51392,0.00516
2637.48365,0.00551
2636.45338,0.00558
2635.42311,0.00556
2634.39285,0.00574
2633.36258,0.00598
2632.33231,0.00595
2631.30205,0.00574
2630.27178,0.00578
2629.24151,0.00590
2628.21125,0.00583
2627.18098,0.00578
2626.15071,0.00575
2625.12044,0.00552
2624.09018,0.00496
2623.05991,0.00430
2622.02964,0.00424
2620.99938,0.00472
2619.96911,0.00518
2618.93884,0.00545
2617.90857,0.00549
2616.87831,0.00548
2615.84804,0.00536
2614.81777,0.00504
2613.78751,0.00506
2612.75724,0.00526
2611.72697,0.00515
2610.69671,0.00510
2609.66644,0.00524
2608.63617,0.00543
2607.60590,0.00568
2606.57564,0.00553
2605.54537,0.00504
2604.51510,0.00483
2603.48484,0.00473
2602.45457,0.00457
2601.42430,0.00463
2600.39403,0.00487
2599.36377,0.00487
2598.33350,0.00476
2597.30323,0.00479
2596.27297,0.00467
2595.24270,0.00463
2594.21243,0.00504
2593.18217,0.00539
2592.15190,0.00530
2591.12163,0.00500
2590.09136,0.00495
2589.06110,0.00509
2588.03083,0.00480
2587.00056,0.00449
2585.97030,0.00466
2584.94003,0.00473
2583.90976,0.00485
2582.87949,0.00515
2581.84923,0.00511
2580.81896,0.00492
2579.78869,0.00468
2578.75843,0.00424
2577.72816,0.00402
2576.69789,0.00396
2575.66763,0.00383
2574.63736,0.00424
2573.60709,0.00508
2572.57682,0.00532
2571.54656,0.00503
2570.51629,0.00470
2569.48602,0.00425
2568.45576,0.00396
2567.42549,0.00393
2566.39522,0.00398
2565.36496,0.00409
2564.33469,0.00415
2563.30442,0.00395
2562.27415,0.00354
2561.24389,0.00329
2560.21362,0.00338
2559.18335,0.00341
2558.15309,0.00336
2557.12282,0.00367
2556.09255,0.00443
2555.06228,0.00516
2554.03202,0.00519
2553.00175,0.00467
2551.97148,0.00440
2550.94122,0.00460
2549.91095,0.00475
2548.88068,0.00452
2547.85042,0.00439
2546.82015,0.00454
2545.78988,0.00437
2544.75961,0.00419
2543.72935,0.00453
2542.69908,0.00457
2541.66881,0.00382
2540.63855,0.00352
2539.60828,0.00418
2538.57801,0.00472
2537.54774,0.00472
2536.51748,0.00493
2535.48721,0.00553
2534.45694,0.00582
2533.42668,0.00567
2532.39641,0.00549
2531.36614,0.00522
2530.33588,0.00497
2529.30561,0.00502
2528.27534,0.00507
2527.24507,0.00486
2526.21481,0.00448
2525.18454,0.00434
2524.15427,0.00469
2523.12401,0.00485
2522.09374,0.00454
2521.06347,0.00418
2520.03320,0.00389
2519.00294,0.00380
2517.97267,0.00403
2516.94240,0.00453
2515.91214,0.00496
2514.88187,0.00490
2513.85160,0.00441
2512.82134,0.00418
2511.79107,0.00466
2510.76080,0.00518
2509.73053,0.00498
2508.70027,0.00447
2507.67000,0.00438
2506.63973,0.00469
2505.60947,0.00487
2504.57920,0.00473
2503.54893,0.00463
2502.51866,0.00481
2501.48840,0.00484
2500.45813,0.00446
2499.42786,0.00428
2498.39760,0.00449
2497.36733,0.00485
2496.33706,0.00529
2495.30680,0.00545
2494.27653,0.00528
2493.24626,0.00522
2492.21599,0.00509
2491.18573,0.00435
2490.15546,0.00370
2489.12519,0.00399
2488.09493,0.00452
2487.06466,0.00443
2486.03439,0.00397
2485.00413,0.00370
2483.97386,0.00361
2482.94359,0.00343
2481.91332,0.00342
2480.88306,0.00377
2479.85279,0.00413
2478.82252,0.00437
2477.79226,0.00455
2476.76199,0.00462
2475.73172,0.00457
2474.70145,0.00456
2473.67119,0.00483
2472.64092,0.00510
2471.61065,0.00494
2470.58039,0.00447
2469.55012,0.00401
2468.51985,0.00359
2467.48959,0.00352
2466.45932,0.00398
2465.42905,0.00445
2464.39878,0.00463
2463.36852,0.00458
2462.33825,0.00449
2461.30798,0.00462
2460.27772,0.00512
2459.24745,0.00570
2458.21718,0.00575
2457.18691,0.00517
2456.15665,0.00464
2455.12638,0.00462
2454.09611,0.00459
2453.06585,0.00434
2452.03558,0.00418
2451.00531,0.00416
2449.97505,0.00429
2448.94478,0.00451
2447.91451,0.00450
2446.88424,0.00429
2445.85398,0.00431
2444.82371,0.00462
2443.79344,0.00511
2442.76318,0.00543
2441.73291,0.00526
2440.70264,0.00486
2439.67237,0.00458
2438.64211,0.00463
2437.61184,0.00502
2436.58157,0.00520
2435.55131,0.00484
2434.52104,0.00467
2433.49077,0.00473
2432.46051,0.00447
2431.43024,0.00436
2430.39997,0.00466
2429.36970,0.00497
2428.33944,0.00538
2427.30917,0.00598
2426.27890,0.00621
2425.24864,0.00600
2424.21837,0.00565
2423.18810,0.00542
2422.15784,0.00555
2421.12757,0.00582
2420.09730,0.00580
2419.06703,0.00541
2418.03677,0.00508
2417.00650,0.00498
2415.97623,0.00490
2414.94597,0.00491
2413.91570,0.00504
2412.88543,0.00511
2411.85516,0.00519
2410.82490,0.00546
2409.79463,0.00557
2408.76436,0.00530
2407.73410,0.00515
2406.70383,0.00521
2405.67356,0.00507
2404.64330,0.00483
2403.61303,0.00487
2402.58276,0.00545
2401.55249,0.00618
2400.52223,0.00635
2399.49196,0.00603
2398.46169,0.00563
2397.43143,0.00557
2396.40116,0.00572
2395.37089,0.00570
2394.34062,0.00562
2393.31036,0.00554
2392.28009,0.00561
2391.24982,0.00580
2390.21956,0.00552
2389.18929,0.00487
2388.15902,0.00444
2387.12876,0.00431
2386.09849,0.00431
2385.06822,0.00442
2384.03795,0.00471
2383.00769,0.00504
2381.97742,0.00509
2380.94715,0.00512
2379.91689,0.00545
2378.88662,0.00588
2377.85635,0.00610
2376.82608,0.00596
2375.79582,0.00554
2374.76555,0.00511
2373.73528,0.00529
2372.70502,0.00605
2371.67475,0.00638
2370.64448,0.00616
2369.61422,0.00612
2368.58395,0.00633
2367.55368,0.00645
2366.52341,0.00668
2365.49315,0.00732
2364.46288,0.00794
2363.43261,0.00773
2362.40235,0.00709
2361.37208,0.00633
2360.34181,0.00499
2359.31154,0.00449
2358.28128,0.00576
2357.25101,0.00701
2356.22074,0.00717
2355.19048,0.00644
2354.16021,0.00546
2353.12994,0.00513
2352.09968,0.00558
2351.06941,0.00646
2350.03914,0.00707
2349.00887,0.00663
2347.97861,0.00553
2346.94834,0.00496
2345.91807,0.00554
2344.88781,0.00669
2343.85754,0.00779
2342.82727,0.00839
2341.79701,0.00813
2340.76674,0.00771
2339.73647,0.00795
2338.70620,0.00814
2337.67594,0.00782
2336.64567,0.00736
2335.61540,0.00694
2334.58514,0.00684
2333.55487,0.00700
2332.52460,0.00717
2331.49433,0.00715
2330.46407,0.00687
2329.43380,0.00678
2328.40353,0.00699
2327.37327,0.00715
2326.34300,0.00707
2325.31273,0.00674
2324.28247,0.00670
2323.25220,0.00715
2322.22193,0.00764
2321.19166,0.00774
2320.16140,0.00733
2319.13113,0.00684
2318.10086,0.00668
2317.07060,0.00662
2316.04033,0.00667
2315.01006,0.00684
2313.97979,0.00642
2312.94953,0.00582
2311.91926,0.00615
2310.88899,0.00682
2309.85873,0.00682
2308.82846,0.00654
2307.79819,0.00657
2306.76793,0.00662
2305.73766,0.00636
2304.70739,0.00605
2303.67712,0.00620
2302.64686,0.00683
2301.61659,0.00706
2300.58632,0.00640
2299.55606,0.00580
2298.52579,0.00581
2297.49552,0.00587
2296.46525,0.00572
2295.43499,0.00577
2294.40472,0.00625
2293.37445,0.00680
2292.34419,0.00695
2291.31392,0.00685
2290.28365,0.00688
2289.25339,0.00649
2288.22312,0.00584
2287.19285,0.00578
2286.16258,0.00610
2285.13232,0.00673
2284.10205,0.00734
2283.07178,0.00720
2282.04152,0.00664
2281.01125,0.00616
2279.98098,0.00604
2278.95072,0.00625
2277.92045,0.00621
2276.89018,0.00622
2275.85991,0.00664
2274.82965,0.00677
2273.79938,0.00649
2272.76911,0.00623
2271.73885,0.00623
2270.70858,0.00670
2269.67831,0.00761
2268.64804,0.00804
2267.61778,0.00695
2266.58751,0.00568
2265.55724,0.00580
2264.52698,0.00661
2263.49671,0.00683
2262.46644,0.00613
2261.43618,0.00539
2260.40591,0.00526
2259.37564,0.00526
2258.34537,0.00490
2257.31511,0.00478
2256.28484,0.00541
2255.25457,0.00578
2254.22431,0.00544
2253.19404,0.00539
2252.16377,0.00621
2251.13350,0.00720
2250.10324,0.00692
2249.07297,0.00572
2248.04270,0.00552
2247.01244,0.00588
2245.98217,0.00576
2244.95190,0.00610
2243.92164,0.00676
2242.89137,0.00704
2241.86110,0.00735
2240.83083,0.00729
2239.80057,0.00631
2238.77030,0.00529
2237.74003,0.00471
2236.70977,0.00474
2235.67950,0.00547
2234.64923,0.00564
2233.61896,0.00547
2232.58870,0.00595
2231.55843,0.00688
2230.52816,0.00766
2229.49790,0.00717
2228.46763,0.00546
2227.43736,0.00394
2226.40710,0.00386
2225.37683,0.00512
2224.34656,0.00618
2223.31629,0.00674
2222.28603,0.00708
2221.25576,0.00687
2220.22549,0.00655
2219.19523,0.00634
2218.16496,0.00612
2217.13469,0.00571
2216.10442,0.00509
2215.07416,0.00500
2214.04389,0.00563
2213.01362,0.00657
2211.98336,0.00755
2210.95309,0.00841
2209.92282,0.00844
2208.89256,0.00724
2207.86229,0.00595
2206.83202,0.00525
2205.80175,0.00438
2204.77149,0.00397
2203.74122,0.00524
2202.71095,0.00637
2201.68069,0.00601
2200.65042,0.00607
2199.62015,0.00770
2198.58989,0.00896
2197.55962,0.00797
2196.52935,0.00577
2195.49908,0.00434
2194.46882,0.00397
2193.43855,0.00454
2192.40828,0.00613
2191.37802,0.00776
2190.34775,0.00869
2189.31748,0.00892
2188.28721,0.00823
2187.25695,0.00710
2186.22668,0.00631
2185.19641,0.00611
2184.16615,0.00586
2183.13588,0.00526
2182.10561,0.00522
2181.07535,0.00535
2180.04508,0.00594
2179.01481,0.00799
2177.98454,0.00922
2176.95428,0.00842
2175.92401,0.00754
2174.89374,0.00674
2173.86348,0.00547
2172.83321,0.00545
2171.80294,0.00647
2170.77267,0.00672
2169.74241,0.00573
2168.71214,0.00463
2167.68187,0.00453
2166.65161,0.00414
2165.62134,0.00415
2164.59107,0.00620
2163.56081,0.00860
2162.53054,0.00893
2161.50027,0.00696
2160.47000,0.00422
2159.43974,0.00294
2158.40947,0.00537
2157.37920,0.00822
2156.34894,0.00709
2155.31867,0.00574
2154.28840,0.00678
2153.25813,0.00714
2152.22787,0.00758
2151.19760,0.00885
2150.16733,0.00824
2149.13707,0.00602
2148.10680,0.00516
2147.07653,0.00597
2146.04627,0.00691
2145.01600,0.00778
2143.98573,0.00780
2142.95546,0.00782
2141.92520,0.00958
2140.89493,0.01106
2139.86466,0.01067
2138.83440,0.00948
2137.80413,0.00866
2136.77386,0.00901
2135.74360,0.01039
2134.71333,0.01127
2133.68306,0.01079
2132.65279,0.01047
2131.62253,0.01109
2130.59226,0.01172
2129.56199,0.01220
2128.53173,0.01185
2127.50146,0.01082
2126.47119,0.01072
2125.44092,0.01117
2124.41066,0.01073
2123.38039,0.00977
2122.35012,0.00976
2121.31986,0.01031
2120.28959,0.01068
2119.25932,0.01090
2118.22906,0.01076
2117.19879,0.01085
2116.16852,0.01115
2115.13825,0.01097
2114.10799,0.01101
2113.07772,0.01139
2112.04745,0.01142
2111.01719,0.01163
2109.98692,0.01158
2108.95665,0.01086
2107.92638,0.01036
2106.89612,0.00989
2105.86585,0.00953
2104.83558,0.00978
2103.80532,0.00983
2102.77505,0.00910
2101.74478,0.00863
2100.71452,0.00923
2099.68425,0.01019
2098.65398,0.01074
2097.62371,0.01098
2096.59345,0.01086
2095.56318,0.01063
2094.53291,0.01048
2093.50265,0.00988
2092.47238,0.00925
2091.44211,0.00943
2090.41184,0.01041
2089.38158,0.01129
2088.35131,0.01095
2087.32104,0.00968
2086.29078,0.00873
2085.26051,0.00880
2084.23024,0.00969
2083.19998,0.01042
2082.16971,0.00997
2081.13944,0.00871
2080.10917,0.00764
2079.07891,0.00722
2078.04864,0.00802
2077.01837,0.00934
2075.98811,0.00948
2074.95784,0.00923
2073.92757,0.00961
2072.89731,0.00939
2071.86704,0.00821
2070.83677,0.00740
2069.80650,0.00742
2068.77624,0.00750
2067.74597,0.00757
2066.71570,0.00730
2065.68544,0.00677
2064.65517,0.00753
2063.62490,0.00874
2062.59463,0.00868
2061.56437,0.00865
2060.53410,0.00946
2059.50383,0.00986
2058.47357,0.00942
2057.44330,0.00869
2056.41303,0.00851
2055.38277,0.00899
2054.35250,0.00931
2053.32223,0.00933
2052.29196,0.00972
2051.26170,0.01026
2050.23143,0.00996
2049.20116,0.00903
2048.17090,0.00890
2047.14063,0.01040
2046.11036,0.01169
2045.08009,0.01113
2044.04983,0.01005
2043.01956,0.00908
2041.98929,0.00839
2040.95903,0.00825
2039.92876,0.00779
2038.89849,0.00742
2037.86823,0.00764
2036.83796,0.00797
2035.80769,0.00806
2034.77742,0.00781
2033.74716,0.00788
2032.71689,0.00826
2031.68662,0.00771
2030.65636,0.00577
2029.62609,0.00450
2028.59582,0.00564
2027.56555,0.00768
2026.53529,0.00878
2025.50502,0.00831
2024.47475,0.00727
2023.44449,0.00597
2022.41422,0.00443
2021.38395,0.00475
2020.35369,0.00691
2019.32342,0.00906
2018.29315,0.01053
2017.26288,0.01096
2016.23262,0.01075
2015.20235,0.01034
2014.17208,0.00907
2013.14182,0.00727
2012.11155,0.00591
2011.08128,0.00606
2010.05101,0.00759
2009.02075,0.00875
2007.99048,0.00912
2006.96021,0.00846
2005.92995,0.00715
2004.89968,0.00705
2003.86941,0.00856
2002.83915,0.00952
2001.80888,0.00887
2000.77861,0.00809
1999.74834,0.00731
1998.71808,0.00662
1997.68781,0.00679
1996.65754,0.00772
1995.62728,0.00894
1994.59701,0.00918
1993.56674,0.00814
1992.53648,0.00679
1991.50621,0.00583
1990.47594,0.00604
1989.44567,0.00744
1988.41541,0.00884
1987.38514,0.00838
1986.35487,0.00669
1985.32461,0.00641
1984.29434,0.00704
1983.26407,0.00782
1982.23380,0.00951
1981.20354,0.00972
1980.17327,0.00637
1979.14300,0.00345
1978.11274,0.00450
1977.08247,0.00736
1976.05220,0.00967
1975.02194,0.01009
1973.99167,0.00890
1972.96140,0.00914
1971.93113,0.00965
1970.90087,0.00842
1969.87060,0.00818
1968.84033,0.00865
1967.81007,0.00852
1966.77980,0.00889
1965.74953,0.00851
1964.71926,0.00651
1963.68900,0.00500
1962.65873,0.00472
1961.62846,0.00468
1960.59820,0.00592
1959.56793,0.00866
1958.53766,0.00998
1957.50740,0.00965
1956.47713,0.00985
1955.44686,0.01057
1954.41659,0.01089
1953.38633,0.00971
1952.35606,0.00776
1951.32579,0.00771
1950.29553,0.00877
1949.26526,0.00921
1948.23499,0.00957
1947.20472,0.00988
1946.17446,0.00958
1945.14419,0.00943
1944.11392,0.00945
1943.08366,0.00836
1942.05339,0.00789
1941.02312,0.00949
1939.99286,0.01052
1938.96259,0.00975
1937.93232,0.00865
1936.90205,0.00846
1935.87179,0.00915
1934.84152,0.00969
1933.81125,0.00956
1932.78099,0.00943
1931.75072,0.00952
1930.72045,0.00933
1929.69019,0.00922
1928.65992,0.00948
1927.62965,0.00902
1926.59938,0.00809
1925.56912,0.00835
1924.53885,0.00939
1923.50858,0.00978
1922.47832,0.00959
1921.44805,0.00974
1920.41778,0.00987
1919.38751,0.00945
1918.35725,0.00893
1917.32698,0.00882
1916.29671,0.00853
1915.26645,0.00779
1914.23618,0.00734
1913.20591,0.00773
1912.17565,0.00869
1911.14538,0.00961
1910.11511,0.00964
1909.08484,0.00846
1908.05458,0.00729
1907.02431,0.00713
1905.99404,0.00696
1904.96378,0.00610
1903.93351,0.00607
1902.90324,0.00722
1901.87297,0.00794
1900.84271,0.00744
1899.81244,0.00638
1898.78217,0.00625
1897.75191,0.00686
1896.72164,0.00650
1895.69137,0.00562
1894.66111,0.00590
1893.63084,0.00675
1892.60057,0.00705
1891.57030,0.00679
1890.54004,0.00634
1889.50977,0.00606
1888.47950,0.00604
1887.44924,0.00633
1886.41897,0.00658
1885.38870,0.00624
1884.35843,0.00592
1883.32817,0.00597
1882.29790,0.00580
1881.26763,0.00562
1880.23737,0.00592
1879.20710,0.00643
1878.17683,0.00632
1877.14657,0.00580
1876.11630,0.00580
1875.08603,0.00580
1874.05576,0.00551
1873.02550,0.00584
1871.99523,0.00649
1870.96496,0.00671
1869.93470,0.00680
1868.90443,0.00701
1867.87416,0.00679
1866.84389,0.00621
1865.81363,0.00625
1864.78336,0.00665
1863.75309,0.00624
1862.72283,0.00540
1861.69256,0.00531
1860.66229,0.00592
1859.63203,0.00631
1858.60176,0.00623
1857.57149,0.00592
1856.54122,0.00536
1855.51096,0.00516
1854.48069,0.00576
1853.45042,0.00652
1852.42016,0.00681
1851.38989,0.00639
1850.35962,0.00562
1849.32936,0.00541
1848.29909,0.00576
1847.26882,0.00592
1846.23855,0.00597
1845.20829,0.00596
1844.17802,0.00577
1843.14775,0.00583
1842.11749,0.00604
1841.08722,0.00620
1840.05695,0.00623
1839.02668,0.00620
1837.99642,0.00655
1836.96615,0.00691
1835.93588,0.00649
1834.90562,0.00589
1833.87535,0.00584
1832.84508,0.00607
1831.81482,0.00622
1830.78455,0.00663
1829.75428,0.00704
1828.72401,0.00681
1827.69375,0.00638
1826.66348,0.00615
1825.63321,0.00624
1824.60295,0.00638
1823.57268,0.00626
1822.54241,0.00618
1821.51214,0.00624
1820.48188,0.00625
1819.45161,0.00621
1818.42134,0.00628
1817.39108,0.00660
1816.36081,0.00703
1815.33054,0.00710
1814.30028,0.00682
1813.27001,0.00655
1812.23974,0.00663
1811.20947,0.00727
1810.17921,0.00781
1809.14894,0.00757
1808.11867,0.00721
1807.08841,0.00731
1806.05814,0.00764
1805.02787,0.00789
1803.99760,0.00807
1802.96734,0.00831
1801.93707,0.00834
1800.90680,0.00800
1799.87654,0.00787
1798.84627,0.00804
1797.81600,0.00817
1796.78574,0.00821
1795.75547,0.00831
1794.72520,0.00842
1793.69493,0.00834
1792.66467,0.00791
1791.63440,0.00771
1790.60413,0.00827
1789.57387,0.00887
1788.54360,0.00900
1787.51333,0.00877
1786.48307,0.00849
1785.45280,0.00836
1784.42253,0.00826
1783.39226,0.00827
1782.36200,0.00848
1781.33173,0.00873
1780.30146,0.00885
1779.27120,0.00900
1778.24093,0.00910
1777.21066,0.00907
1776.18039,0.00925
1775.15013,0.00948
1774.11986,0.00941
1773.08959,0.00922
1772.05933,0.00929
1771.02906,0.00943
1769.99879,0.00945
1768.96853,0.00967
1767.93826,0.01011
1766.90799,0.01020
1765.87772,0.00990
1764.84746,0.00968
1763.81719,0.00974
1762.78692,0.01005
1761.75666,0.01036
1760.72639,0.01050
1759.69612,0.01075
1758.66585,0.01104
1757.63559,0.01087
1756.60532,0.01027
1755.57505,0.00998
1754.54479,0.01020
1753.51452,0.01058
1752.48425,0.01079
1751.45399,0.01078
1750.42372,0.01091
1749.39345,0.01129
1748.36318,0.01157
1747.33292,0.01171
1746.30265,0.01199
1745.27238,0.01235
1744.24212,0.01252
1743.21185,0.01240
1742.18158,0.01222
1741.15131,0.01225
1740.12105,0.01243
1739.09078,0.01278
1738.06051,0.01338
1737.03025,0.01382
1735.99998,0.01382
1734.96971,0.01364
1733.93945,0.01357
1732.90918,0.01370
1731.87891,0.01393
1730.84864,0.01427
1729.81838,0.01460
1728.78811,0.01483
1727.75784,0.01512
1726.72758,0.01547
1725.69731,0.01572
1724.66704,0.01605
1723.63677,0.01670
1722.60651,0.01740
1721.57624,0.01772
1720.54597,0.01801
1719.51571,0.01877
1718.48544,0.01959
1717.45517,0.01965
1716.42491,0.01966
1715.39464,0.02027
1714.36437,0.02099
1713.33410,0.02125
1712.30384,0.02133
1711.27357,0.02163
1710.24330,0.02201
1709.21304,0.02246
1708.18277,0.02312
1707.15250,0.02398
1706.12224,0.02480
1705.09197,0.02545
1704.06170,0.02601
1703.03143,0.02650
1702.00117,0.02717
1700.97090,0.02814
1699.94063,0.02925
1698.91037,0.03018
1697.88010,0.03105
1696.84983,0.03187
1695.81956,0.03286
1694.78930,0.03381
1693.75903,0.03464
1692.72876,0.03582
1691.69850,0.03728
1690.66823,0.03868
1689.63796,0.03982
1688.60770,0.04077
1687.57743,0.04199
1686.54716,0.04344
1685.51689,0.04514
1684.48663,0.04735
1683.45636,0.04910
1682.42609,0.05034
1681.39583,0.05183
1680.36556,0.05352
1679.33529,0.05513
1678.30502,0.05655
1677.27476,0.05792
1676.24449,0.05922
1675.21422,0.06100
1674.18396,0.06317
1673.15369,0.06498
1672.12342,0.06673
1671.09316,0.06847
1670.06289,0.07003
1669.03262,0.07178
1668.00235,0.07394
1666.97209,0.07606
1665.94182,0.07782
1664.91155,0.07935
1663.88129,0.08114
1662.85102,0.08316
1661.82075,0.08487
1660.79048,0.08642
1659.76022,0.08818
1658.72995,0.08985
1657.69968,0.09123
1656.66942,0.09260
1655.63915,0.09407
1654.60888,0.09590
1653.57862,0.09843
1652.54835,0.09976
1651.51808,0.09956
1650.48781,0.09993
1649.45755,0.10070
1648.42728,0.10152
1647.39701,0.10204
1646.36675,0.10221
1645.33648,0.10227
1644.30621,0.10240
1643.27595,0.10239
1642.24568,0.10223
1641.21541,0.10192
1640.18514,0.10160
1639.15488,0.10135
1638.12461,0.10075
1637.09434,0.09979
1636.06408,0.09848
1635.03381,0.09633
1634.00354,0.09498
1632.97327,0.09431
1631.94301,0.09304
1630.91274,0.09138
1629.88247,0.09011
1628.85221,0.08888
1627.82194,0.08677
1626.79167,0.08432
1625.76141,0.08251
1624.73114,0.08084
1623.70087,0.07840
1622.67060,0.07563
1621.64034,0.07359
1620.61007,0.07164
1619.57980,0.06961
1618.54954,0.06799
1617.51927,0.06646
1616.48900,0.06377
1615.45873,0.06101
1614.42847,0.05918
1613.39820,0.05753
1612.36793,0.05585
1611.33767,0.05417
1610.30740,0.05236
1609.27713,0.05066
1608.24687,0.04944
1607.21660,0.04831
1606.18633,0.04696
1605.15606,0.04549
1604.12580,0.04412
1603.09553,0.04293
1602.06526,0.04180
1601.03500,0.04057
1600.00473,0.03965
1598.97446,0.03893
1597.94419,0.03800
1596.91393,0.03712
1595.88366,0.03630
1594.85339,0.03534
1593.82313,0.03437
1592.79286,0.03359
1591.76259,0.03287
1590.73233,0.03212
1589.70206,0.03146
1588.67179,0.03100
1587.64152,0.03064
1586.61126,0.03013
1585.58099,0.02938
1584.55072,0.02868
1583.52046,0.02814
1582.49019,0.02761
1581.45992,0.02708
1580.42966,0.02659
1579.39939,0.02638
1578.36912,0.02643
1577.33885,0.02649
1576.30859,0.02619
1575.27832,0.02555
1574.24805,0.02504
1573.21779,0.02453
1572.18752,0.02413
1571.15725,0.02397
1570.12698,0.02373
1569.09672,0.02323
1568.06645,0.02296
1567.03618,0.02292
1566.00592,0.02291
1564.97565,0.02287
1563.94538,0.02258
1562.91512,0.02222
1561.88485,0.02223
1560.85458,0.02254
1559.82431,0.02288
1558.79405,0.02291
1557.76378,0.02189
1556.73351,0.02112
1555.70325,0.02111
1554.67298,0.02117
1553.64271,0.02104
1552.61244,0.02112
1551.58218,0.02116
1550.55191,0.02097
1549.52164,0.02081
1548.49138,0.02065
1547.46111,0.02046
1546.43084,0.02033
1545.40058,0.02020
1544.37031,0.02003
1543.34004,0.01996
1542.30977,0.01992
1541.27951,0.01986
1540.24924,0.02007
1539.21897,0.01993
1538.18871,0.01935
1537.15844,0.01910
1536.12817,0.01907
1535.09790,0.01931
1534.06764,0.01980
1533.03737,0.02020
1532.00710,0.02037
1530.97684,0.02034
1529.94657,0.02017
1528.91630,0.01996
1527.88604,0.01987
1526.85577,0.02004
1525.82550,0.02013
1524.79523,0.01996
1523.76497,0.01978
1522.73470,0.01962
1521.70443,0.01958
1520.67417,0.01989
1519.64390,0.02020
1518.61363,0.02041
1517.58336,0.02061
1516.55310,0.02063
1515.52283,0.02037
1514.49256,0.01997
1513.46230,0.01972
1512.43203,0.01974
1511.40176,0.01984
1510.37150,0.02011
1509.34123,0.02077
1508.31096,0.02142
1507.28069,0.02156
1506.25043,0.02114
1505.22016,0.02097
1504.18989,0.02117
1503.15963,0.02139
1502.12936,0.02160
1501.09909,0.02192
1500.06883,0.02243
1499.03856,0.02298
1498.00829,0.02348
1496.97802,0.02414
1495.94776,0.02503
1494.91749,0.02586
1493.88722,0.02679
1492.85696,0.02789
1491.82669,0.02911
1490.79642,0.03069
1489.76615,0.03234
1488.73589,0.03330
1487.70562,0.03400
1486.67535,0.03499
1485.64509,0.03595
1484.61482,0.03679
1483.58455,0.03780
1482.55429,0.03929
1481.52402,0.04142
1480.49375,0.04399
1479.46348,0.04670
1478.43322,0.04964
1477.40295,0.05301
1476.37268,0.05700
1475.34242,0.06068
1474.31215,0.06344
1473.28188,0.06604
1472.25161,0.06819
1471.22135,0.06905
1470.19108,0.06920
1469.16081,0.06928
1468.13055,0.06929
1467.10028,0.06949
1466.07001,0.07005
1465.03975,0.07072
1464.00948,0.07132
1462.97921,0.07198
1461.94894,0.07281
1460.91868,0.07364
1459.88841,0.07438
1458.85814,0.07527
1457.82788,0.07631
1456.79761,0.07710
1455.76734,0.07760
1454.73707,0.07739
1453.70681,0.07653
1452.67654,0.07530
1451.64627,0.07348
1450.61601,0.07116
1449.58574,0.06905
1448.55547,0.06722
1447.52521,0.06517
1446.49494,0.06324
1445.46467,0.06168
1444.43440,0.06021
1443.40414,0.05859
1442.37387,0.05693
1441.34360,0.05526
1440.31334,0.05345
1439.28307,0.05155
1438.25280,0.04978
1437.22254,0.04780
1436.19227,0.04519
1435.16200,0.04334
1434.13173,0.04224
1433.10147,0.04113
1432.07120,0.04001
1431.04093,0.03929
1430.01067,0.03890
1428.98040,0.03839
1427.95013,0.03786
1426.91986,0.03765
1425.88960,0.03761
1424.85933,0.03740
1423.82906,0.03703
1422.79880,0.03675
1421.76853,0.03657
1420.73826,0.03633
1419.70800,0.03608
1418.67773,0.03622
1417.64746,0.03652
1416.61719,0.03644
1415.58693,0.03613
1414.55666,0.03603
1413.52639,0.03617
1412.49613,0.03628
1411.46586,0.03628
1410.43559,0.03636
1409.40532,0.03640
1408.37506,0.03626
1407.34479,0.03616
1406.31452,0.03627
1405.28426,0.03646
1404.25399,0.03636
1403.22372,0.03602
1402.19346,0.03595
1401.16319,0.03613
1400.13292,0.03630
1399.10265,0.03636
1398.07239,0.03647
1397.04212,0.03680
1396.01185,0.03711
1394.98159,0.03721
1393.95132,0.03736
1392.92105,0.03755
1391.89078,0.03764
1390.86052,0.03768
1389.83025,0.03771
1388.79998,0.03780
1387.76972,0.03794
1386.73945,0.03810
1385.70918,0.03842
1384.67892,0.03896
1383.64865,0.03948
1382.61838,0.03987
1381.58811,0.04033
1380.55785,0.04084
1379.52758,0.04133
1378.49731,0.04176
1377.46705,0.04217
1376.43678,0.04289
1375.40651,0.04395
1374.37624,0.04498
1373.34598,0.04581
1372.31571,0.04673
1371.28544,0.04780
1370.25518,0.04892
1369.22491,0.05032
1368.19464,0.05217
1367.16438,0.05413
1366.13411,0.05606
1365.10384,0.05810
1364.07357,0.06050
1363.04331,0.06341
1362.01304,0.06639
1360.98277,0.06938
1359.95251,0.07261
1358.92224,0.07612
1357.89197,0.08018
1356.86171,0.08456
1355.83144,0.08910
1354.80117,0.09403
1353.77090,0.09922
1352.74064,0.10421
1351.71037,0.10873
1350.68010,0.11256
1349.64984,0.11531
1348.61957,0.11630
1347.58930,0.11448
1346.55903,0.10893
1345.52877,0.09978
1344.49850,0.08863
1343.46823,0.07766
1342.43797,0.06849
1341.40770,0.06183
1340.37743,0.05750
1339.34717,0.05492
1338.31690,0.05355
1337.28663,0.05279
1336.25636,0.05226
1335.22610,0.05207
1334.19583,0.05235
1333.16556,0.05293
1332.13530,0.05351
1331.10503,0.05397
1330.07476,0.05433
1329.04449,0.05446
1328.01423,0.05411
1326.98396,0.05331
1325.95369,0.05235
1324.92343,0.05132
1323.89316,0.05018
1322.86289,0.04911
1321.83263,0.04833
1320.80236,0.04784
1319.77209,0.04765
1318.74182,0.04781
1317.71156,0.04835
1316.68129,0.04933
1315.65102,0.05062
1314.62076,0.05203
1313.59049,0.05370
1312.56022,0.05572
1311.52995,0.05793
1310.49969,0.06049
1309.46942,0.06352
1308.43915,0.06643
1307.40889,0.06867
1306.37862,0.07051
1305.34835,0.07249
1304.31809,0.07453
1303.28782,0.07606
1302.25755,0.07705
1301.22728,0.07781
1300.19702,0.07835
1299.16675,0.07869
1298.13648,0.07889
1297.10622,0.07905
1296.07595,0.07918
1295.04568,0.07914
1294.01542,0.07906
1292.98515,0.07903
1291.95488,0.07872
1290.92461,0.07828
1289.89435,0.07818
1288.86408,0.07806
1287.83381,0.07751
1286.80355,0.07680
1285.77328,0.07624
1284.74301,0.07570
1283.71274,0.07492
1282.68248,0.07380
1281.65221,0.07241
1280.62194,0.07107
1279.59168,0.06996
1278.56141,0.06868
1277.53114,0.06697
1276.50088,0.06521
1275.47061,0.06386
1274.44034,0.06301
1273.41007,0.06225
1272.37981,0.06136
1271.34954,0.06071
1270.31927,0.06040
1269.28901,0.06027
1268.25874,0.06043
1267.22847,0.06101
1266.19820,0.06204
1265.16794,0.06335
1264.13767,0.06477
1263.10740,0.06647
1262.07714,0.06874
1261.04687,0.07154
1260.01660,0.07446
1258.98634,0.07723
1257.95607,0.07982
1256.92580,0.08227
1255.89553,0.08468
1254.86527,0.08697
1253.83500,0.08907
1252.80473,0.09096
1251.77447,0.09232
1250.74420,0.09305
1249.71393,0.09329
1248.68366,0.09306
1247.65340,0.09226
1246.62313,0.09082
1245.59286,0.08879
1244.56260,0.08623
1243.53233,0.08347
1242.50206,0.08087
1241.47180,0.07849
1240.44153,0.07608
1239.41126,0.07344
1238.38099,0.07054
1237.35073,0.06759
1236.32046,0.06503
1235.29019,0.06307
1234.25993,0.06105
1233.22966,0.05856
1232.19939,0.05617
1231.16912,0.05417
1230.13886,0.05248
1229.10859,0.05108
1228.07832,0.04973
1227.04806,0.04839
1226.01779,0.04724
1224.98752,0.04638
1223.95726,0.04567
1222.92699,0.04481
1221.89672,0.04379
1220.86645,0.04284
1219.83619,0.04214
1218.80592,0.04172
1217.77565,0.04133
1216.74539,0.04054
1215.71512,0.03956
1214.68485,0.03883
1213.65459,0.03820
1212.62432,0.03760
1211.59405,0.03720
1210.56378,0.03691
1209.53352,0.03659
1208.50325,0.03629
1207.47298,0.03605
1206.44272,0.03572
1205.41245,0.03542
1204.38218,0.03544
1203.35191,0.03565
1202.32165,0.03558
1201.29138,0.03531
1200.26111,0.03535
1199.23085,0.03551
1198.20058,0.03537
1197.17031,0.03499
1196.14005,0.03477
1195.10978,0.03489
1194.07951,0.03510
1193.04924,0.03524
1192.01898,0.03542
1190.98871,0.03560
1189.95844,0.03566
1188.92818,0.03559
1187.89791,0.03550
1186.86764,0.03567
1185.83737,0.03621
1184.80711,0.03684
1183.77684,0.03727
1182.74657,0.03749
1181.71631,0.03771
1180.68604,0.03807
1179.65577,0.03849
1178.62551,0.03899
1177.59524,0.03983
1176.56497,0.04088
1175.53470,0.04172
1174.50444,0.04225
1173.47417,0.04278
1172.44390,0.04359
1171.41364,0.04478
1170.38337,0.04622
1169.35310,0.04763
1168.32283,0.04902
1167.29257,0.05071
1166.26230,0.05273
1165.23203,0.05492
1164.20177,0.05757
1163.17150,0.06088
1162.14123,0.06440
1161.11097,0.06806
1160.08070,0.07225
1159.05043,0.07692
1158.02016,0.08180
1156.98990,0.08719
1155.95963,0.09333
1154.92936,0.09985
1153.89910,0.10642
1152.86883,0.11306
1151.83856,0.11991
1150.80830,0.12713
1149.77803,0.13460
1148.74776,0.14193
1147.71749,0.14918
1146.68723,0.15642
1145.65696,0.16341
1144.62669,0.17019
1143.59643,0.17691
1142.56616,0.18334
1141.53589,0.18911
1140.50562,0.19413
1139.47536,0.19873
1138.44509,0.20337
1137.41482,0.20787
1136.38456,0.21209
1135.35429,0.21601
1134.32402,0.21952
1133.29376,0.22278
1132.26349,0.22596
1131.23322,0.22906
1130.20295,0.23238
1129.17269,0.23606
1128.14242,0.23967
1127.11215,0.24325
1126.08189,0.24731
1125.05162,0.25194
1124.02135,0.25695
1122.99108,0.26214
1121.96082,0.26727
1120.93055,0.27231
1119.90028,0.27773
1118.87002,0.28352
1117.83975,0.28936
1116.80948,0.29546
1115.77922,0.30175
1114.74895,0.30788
1113.71868,0.31388
1112.68841,0.31984
1111.65815,0.32610
1110.62788,0.33282
1109.59761,0.33945
1108.56735,0.34592
1107.53708,0.35303
1106.50681,0.36074
1105.47654,0.36792
1104.44628,0.37478
1103.41601,0.38199
1102.38574,0.38952
1101.35548,0.39716
1100.32521,0.40442
1099.29494,0.41130
1098.26468,0.41811
1097.23441,0.42455
1096.20414,0.43047
1095.17387,0.43616
1094.14361,0.44169
1093.11334,0.44668
1092.08307,0.45089
1091.05281,0.45454
1090.02254,0.45806
1088.99227,0.46147
1087.96201,0.46380
1086.93174,0.46473
1085.90147,0.46519
1084.87120,0.46538
1083.84094,0.46499
1082.81067,0.46423
1081.78040,0.46263
1080.75014,0.46018
1079.71987,0.45764
1078.68960,0.45495
1077.65933,0.45227
1076.62907,0.44930
1075.59880,0.44575
1074.56853,0.44186
1073.53827,0.43732
1072.50800,0.43247
1071.47773,0.42788
1070.44747,0.42350
1069.41720,0.41923
1068.38693,0.41476
1067.35666,0.40957
1066.32640,0.40335
1065.29613,0.39630
1064.26586,0.38866
1063.23560,0.38064
1062.20533,0.37211
1061.17506,0.36247
1060.14479,0.35160
1059.11453,0.34018
1058.08426,0.32870
1057.05399,0.31681
1056.02373,0.30437
1054.99346,0.29205
1053.96319,0.28048
1052.93293,0.26976
1051.90266,0.25951
1050.87239,0.24951
1049.84212,0.24021
1048.81186,0.23226
1047.78159,0.22579
1046.75132,0.22032
1045.72106,0.21593
1044.69079,0.21286
1043.66052,0.21049
1042.63025,0.20835
1041.59999,0.20672
1040.56972,0.20577
1039.53945,0.20521
1038.50919,0.20447
1037.47892,0.20319
1036.44865,0.20167
1035.41839,0.20013
1034.38812,0.19852
1033.35785,0.19689
1032.32758,0.19489
1031.29732,0.19223
1030.26705,0.18909
1029.23678,0.18543
1028.20652,0.18096
1027.17625,0.17599
1026.14598,0.17104
1025.11571,0.16599
1024.08545,0.16065
1023.05518,0.15494
1022.02491,0.14905
1020.99465,0.14320
1019.96438,0.13757
1018.93411,0.13242
1017.90385,0.12758
1016.87358,0.12285
1015.84331,0.11846
1014.81304,0.11443
1013.78278,0.11075
1012.75251,0.10748
1011.72224,0.10447
1010.69198,0.10174
1009.66171,0.09947
1008.63144,0.09758
1007.60118,0.09570
1006.57091,0.09388
1005.54064,0.09261
1004.51037,0.09170
1003.48011,0.09068
1002.44984,0.08957
1001.41957,0.08886
1000.38931,0.08886
999.35904,0.08911
998.32877,0.08902
997.29850,0.08859
996.26824,0.08805
995.23797,0.08758
994.20770,0.08717
993.17744,0.08677
992.14717,0.08642
991.11690,0.08566
990.08664,0.08443
989.05637,0.08350
988.02610,0.08294
986.99583,0.08212
985.96557,0.08090
984.93530,0.07958
983.90503,0.07831
982.87477,0.07709
981.84450,0.07612
980.81423,0.07560
979.78396,0.07513
978.75370,0.07443
977.72343,0.07367
976.69316,0.07298
975.66290,0.07253
974.63263,0.07246
973.60236,0.07267
972.57210,0.07311
971.54183,0.07394
970.51156,0.07499
969.48129,0.07620
968.45103,0.07798
967.42076,0.08049
966.39049,0.08359
965.36023,0.08699
964.32996,0.09067
963.29969,0.09524
962.26942,0.10064
961.23916,0.10613
960.20889,0.11211
959.17862,0.11935
958.14836,0.12733
957.11809,0.13493
956.08782,0.14215
955.05756,0.14941
954.02729,0.15632
952.99702,0.16265
951.96675,0.16844
950.93649,0.17341
949.90622,0.17748
948.87595,0.18046
947.84569,0.18210
946.81542,0.18284
945.78515,0.18293
944.75489,0.18225
943.72462,0.18092
942.69435,0.17898
941.66408,0.17633
940.63382,0.17341
939.60355,0.17080
938.57328,0.16849
937.54302,0.16613
936.51275,0.16350
935.48248,0.16051
934.45221,0.15729
933.42195,0.15389
932.39168,0.15071
931.36141,0.14818
930.33115,0.14567
929.30088,0.14289
928.27061,0.14000
927.24035,0.13701
926.21008,0.13432
925.17981,0.13206
924.14954,0.12989
923.11928,0.12775
922.08901,0.12562
921.05874,0.12362
920.02848,0.12193
918.99821,0.12040
917.96794,0.11890
916.93767,0.11740
915.90741,0.11589
914.87714,0.11438
913.84687,0.11263
912.81661,0.11054
911.78634,0.10814
910.75607,0.10591
909.72581,0.10409
908.69554,0.10241
907.66527,0.10057
906.63500,0.09864
905.60474,0.09706
904.57447,0.09558
903.54420,0.09393
902.51394,0.09257
901.48367,0.09158
900.45340,0.09100
899.42313,0.09087
898.39287,0.09130
897.36260,0.09220
896.33233,0.09305
895.30207,0.09412
894.27180,0.09562
893.24153,0.09730
892.21127,0.09938
891.18100,0.10175
890.15073,0.10394
889.12046,0.10616
888.09020,0.10853
887.05993,0.11043
886.02966,0.11166
884.99940,0.11208
883.96913,0.11176
882.93886,0.11155
881.90859,0.11141
880.87833,0.11053
879.84806,0.10892
878.81779,0.10713
877.78753,0.10559
876.75726,0.10444
875.72699,0.10376
874.69673,0.10392
873.66646,0.10458
872.63619,0.10500
871.60592,0.10540
870.57566,0.10601
869.54539,0.10660
868.51512,0.10745
867.48486,0.10883
866.45459,0.11016
865.42432,0.11094
864.39406,0.11153
863.36379,0.11239
862.33352,0.11348
861.30325,0.11474
860.27299,0.11611
859.24272,0.11772
858.21245,0.11995
857.18219,0.12203
856.15192,0.12360
855.12165,0.12553
854.09138,0.12796
853.06112,0.13019
852.03085,0.13212
851.00058,0.13425
849.97032,0.13638
848.94005,0.13866
847.90978,0.14139
846.87952,0.14363
845.84925,0.14492
844.81898,0.14637
843.78871,0.14798
842.75845,0.14881
841.72818,0.14980
840.69791,0.15152
839.66765,0.15279
838.63738,0.15332
837.60711,0.15367
836.57684,0.15372
835.54658,0.15327
834.51631,0.15280
833.48604,0.15238
832.45578,0.15152
831.42551,0.15036
830.39524,0.14926
829.36498,0.14815
828.33471,0.14694
827.30444,0.14585
826.27417,0.14475
825.24391,0.14338
824.21364,0.14247
823.18337,0.14226
822.15311,0.14177
821.12284,0.14077
820.09257,0.14015
819.06230,0.14030
818.03204,0.14035
817.00177,0.13975
815.97150,0.13920
814.94124,0.13914
813.91097,0.13924
812.88070,0.13936
811.85044,0.13943
810.82017,0.13955
809.78990,0.13972
808.75963,0.13964
807.72937,0.14002
806.69910,0.14111
805.66883,0.14154
804.63857,0.14082
803.60830,0.14019
802.57803,0.14045
801.54777,0.14090
800.51750,0.14100
799.48723,0.14098
798.45696,0.14074
797.42670,0.14010
796.39643,0.13969
795.36616,0.14027
794.33590,0.14151
793.30563,0.14240
792.27536,0.14228
791.24509,0.14187
790.21483,0.14206
789.18456,0.14268
788.15429,0.14341
787.12403,0.14372
786.09376,0.14379
785.06349,0.14420
784.03323,0.14467
783.00296,0.14517
781.97269,0.14597
780.94242,0.14715
779.91216,0.14843
778.88189,0.14925
777.85162,0.14973
776.82136,0.15011
775.79109,0.15030
774.76082,0.15043
773.73055,0.15084
772.70029,0.15162
771.67002,0.15238
770.63975,0.15310
769.60949,0.15404
768.57922,0.15516
767.54895,0.15630
766.51869,0.15744
765.48842,0.15863
764.45815,0.15977
763.42788,0.16085
762.39762,0.16215
761.36735,0.16343
760.33708,0.16424
759.30682,0.16464
758.27655,0.16510
757.24628,0.16592
756.21601,0.16693
755.18575,0.16782
754.15548,0.16859
753.12521,0.16998
752.09495,0.17217
751.06468,0.17397
750.03441,0.17500
749.00415,0.17584
747.97388,0.17653
746.94361,0.17703
745.91334,0.17746
744.88308,0.17828
743.85281,0.18027
742.82254,0.18280
741.79228,0.18405
740.76201,0.18431
739.73174,0.18524
738.70147,0.18662
737.67121,0.18766
736.64094,0.18866
735.61067,0.18995
734.58041,0.19105
733.55014,0.19202
732.51987,0.19320
731.48961,0.19448
730.45934,0.19593
729.42907,0.19696
728.39880,0.19759
727.36854,0.19888
726.33827,0.20061
725.30800,0.20178
724.27774,0.20248
723.24747,0.20330
722.21720,0.20429
721.18694,0.20536
720.15667,0.20628
719.12640,0.20700
718.09613,0.20811
717.06587,0.20981
716.03560,0.21153
715.00533,0.21326
713.97507,0.21500
712.94480,0.21590
711.91453,0.21603
710.88426,0.21628
709.85400,0.21694
708.82373,0.21827
707.79346,0.22013
706.76320,0.22188
705.73293,0.22330
704.70266,0.22485
703.67240,0.22674
702.64213,0.22842
701.61186,0.22948
700.58159,0.22974
699.55133,0.22973
698.52106,0.23012
697.49079,0.23091
696.46053,0.23232
695.43026,0.23400
694.39999,0.23456
693.36972,0.23413
692.33946,0.23493
691.30919,0.23708
690.27892,0.23909
689.24866,0.24076
688.21839,0.24191
687.18812,0.24308
686.15786,0.24479
685.12759,0.24614
684.09732,0.24702
683.06705,0.24770
682.03679,0.24816
681.00652,0.24846
679.97625,0.24857
678.94599,0.24899
677.91572,0.24989
676.88545,0.25157
675.85518,0.25371
674.82492,0.25492
673.79465,0.25546
672.76438,0.25645
671.73412,0.25850
670.70385,0.26086
669.67358,0.26197
668.64332,0.26114
667.61305,0.25887
666.58278,0.25971
665.55251,0.26300
664.52225,0.26638
663.49198,0.26750
662.46171,0.26723
661.43145,0.26755
660.40118,0.26859
659.37091,0.27015
658.34065,0.27151
657.31038,0.27182
656.28011,0.27159
655.24984,0.27212
654.21958,0.27342
653.18931,0.27468
652.15904,0.27548
651.12878,0.27555
650.09851,0.27578
649.06824,0.27722
648.03797,0.27874
647.00771,0.27923
645.97744,0.28006
644.94717,0.28163
643.91691,0.28297
642.88664,0.28439
641.85637,0.28530
640.82611,0.28537
639.79584,0.28576
638.76557,0.28686
637.73530,0.28806
636.70504,0.28855
635.67477,0.28901
634.64450,0.29026
633.61424,0.29101
632.58397,0.29121
631.55370,0.29249
630.52343,0.29430
629.49317,0.29510
628.46290,0.29551
627.43263,0.29634
626.40237,0.29669
625.37210,0.29659
624.34183,0.29649
623.31157,0.29639
622.28130,0.29751
621.25103,0.30001
620.22076,0.30228
619.19050,0.30360
618.16023,0.30493
617.12996,0.30610
616.09970,0.30564
615.06943,0.30500
614.03916,0.30629
613.00889,0.30806
611.97863,0.30814
610.94836,0.30723
609.91809,0.30705
608.88783,0.30824
607.85756,0.31014
606.82729,0.31142
605.79703,0.31248
604.76676,0.31400
603.73649,0.31543
602.70622,0.31656
601.67596,0.31662
600.64569,0.31532
599.61542,0.31458
598.58516,0.31543
597.55489,0.31618
596.52462,0.31757
595.49436,0.32091
594.46409,0.32321
593.43382,0.32321
592.40355,0.32368
591.37329,0.32578
590.34302,0.32745
589.31275,0.32766
588.28249,0.32760
587.25222,0.32766
586.22195,0.32840
585.19168,0.33001
584.16142,0.33118
583.13115,0.33200
582.10088,0.33326
581.07062,0.33480
580.04035,0.33556
579.01008,0.33570
577.97982,0.33672
576.94955,0.33822
575.91928,0.33933
574.88901,0.34023
573.85875,0.34081
572.82848,0.34067
571.79821,0.34019
570.76795,0.33969
569.73768,0.33979
568.70741,0.34125
567.67714,0.34290
566.64688,0.34426
565.61661,0.34564
564.58634,0.34566
563.55608,0.34331
562.52581,0.34124
561.49554,0.34279
560.46528,0.34701
559.43501,0.34990
558.40474,0.34994
557.37447,0.34943
556.34421,0.34987
555.31394,0.35089
554.28367,0.35241
553.25341,0.35450
552.22314,0.35669
551.19287,0.35820
550.16260,0.35766
549.13234,0.35606
548.10207,0.35595
547.07180,0.35662
546.04154,0.35723
545.01127,0.35795
543.98100,0.35765
542.95074,0.35563
541.92047,0.35422
540.89020,0.35506
539.85993,0.35602
538.82967,0.35698
537.79940,0.35946
536.76913,0.36142
535.73887,0.36240
534.70860,0.36373
533.67833,0.36370
532.64806,0.36374
531.61780,0.36500
530.58753,0.36462
529.55726,0.36392
528.52700,0.36460
527.49673,0.36607
526.46646,0.36844
525.43620,0.37000
524.40593,0.37086
523.37566,0.37264
522.34539,0.37379
521.31513,0.37457
520.28486,0.37562
519.25459,0.37515
518.22433,0.37408
517.19406,0.37406
516.16379,0.37441
515.13353,0.37523
514.10326,0.37700
513.07299,0.37777
512.04272,0.37748
511.01246,0.37733
509.98219,0.37583
508.95192,0.37477
507.92166,0.37467
506.89139,0.37307
505.86112,0.37278
504.83085,0.37558
503.80059,0.37924
502.77032,0.38033
501.74005,0.37751
500.70979,0.37481
499.67952,0.37410
498.64925,0.37400
497.61899,0.37356
496.58872,0.37304
495.55845,0.37218
494.52818,0.37059
493.49792,0.37027
492.46765,0.37217
491.43738,0.37415
490.40712,0.37296
489.37685,0.36911
488.34658,0.36721
487.31631,0.36830
486.28605,0.37029
485.25578,0.37208
484.22551,0.37172
483.19525,0.36914
482.16498,0.36896
481.13471,0.37042
480.10445,0.36816
479.07418,0.36449
478.04391,0.36367
477.01364,0.36512
475.98338,0.36698
474.95311,0.36843
473.92284,0.36947
472.89258,0.36858
471.86231,0.36681
470.83204,0.36780
469.80177,0.37123
468.77151,0.37222
467.74124,0.36875
466.71097,0.36518
465.68071,0.36314
464.65044,0.36313
463.62017,0.36367
462.58991,0.36199
461.55964,0.36240
460.52937,0.36648
459.49910,0.36953
458.46884,0.36867
457.43857,0.36343
456.40830,0.36014
455.37804,0.36015
454.34777,0.36003
453.31750,0.36037
452.28724,0.36362
451.25697,0.36895
450.22670,0.37122
449.19643,0.37014
448.16617,0.37036
447.13590,0.37195
446.10563,0.37063
445.07537,0.36581
444.04510,0.36164
443.01483,0.36151
441.98456,0.36376
440.95430,0.36506
439.92403,0.36344
438.89376,0.36258
437.86350,0.36800
436.83323,0.37314
435.80296,0.37021
434.77270,0.36177
433.74243,0.35476
432.71216,0.35319
431.68189,0.35295
430.65163,0.35265
429.62136,0.35454
428.59109,0.35690
427.56083,0.35839
426.53056,0.35685
425.50029,0.35507
424.47002,0.35841
423.43976,0.35976
422.40949,0.35606
421.37922,0.35635
420.34896,0.36101
419.31869,0.35897
418.28842,0.35281
417.25816,0.35784
416.22789,0.36135
415.19762,0.35631
414.16735,0.35167
413.13709,0.35275
412.10682,0.35677
411.07655,0.36251
410.04629,0.36690
409.01602,0.36506
407.98575,0.35836
406.95548,0.35069
405.92522,0.34497
404.89495,0.34560
403.86468,0.35461
402.83442,0.36074
401.80415,0.35451
400.77388,0.34178
399.74362,0.33480
