4998.85573,0.00260
4997.82546,0.00209
4996.79519,0.00170
4995.76493,0.00173
4994.73466,0.00147
4993.70439,0.00110
4992.67413,0.00124
4991.64386,0.00115
4990.61359,0.00108
4989.58332,0.00138
4988.55306,0.00104
4987.52279,0.00083
4986.49252,0.00174
4985.46226,0.00254
4984.43199,0.00258
4983.40172,0.00217
4982.37145,0.00188
4981.34119,0.00263
4980.31092,0.00367
4979.28065,0.00374
4978.25039,0.00252
4977.22012,0.00096
4976.18985,0.00123
4975.15959,0.00268
4974.12932,0.00329
4973.09905,0.00346
4972.06878,0.00281
4971.03852,0.00109
4970.00825,0.00029
4968.97798,0.00095
4967.94772,0.00182
4966.91745,0.00255
4965.88718,0.00322
4964.85691,0.00278
4963.82665,0.00127
4962.79638,0.00107
4961.76611,0.00243
4960.73585,0.00292
4959.70558,0.00175
4958.67531,0.00031
4957.64505,0.00009
4956.61478,0.00107
4955.58451,0.00209
4954.55424,0.00267
4953.52398,0.00261
4952.49371,0.00182
4951.46344,0.00140
4950.43318,0.00114
4949.40291,0.00013
4948.37264,-0.00043
4947.34238,0.00005
4946.31211,0.00086
4945.28184,0.00154
4944.25157,0.00182
4943.22131,0.00160
4942.19104,0.00162
4941.16077,0.00253
4940.13051,0.00259
4939.10024,0.00132
4938.06997,0.00081
4937.03970,0.00112
4936.00944,0.00162
4934.97917,0.00273
4933.94890,0.00398
4932.91864,0.00437
4931.88837,0.00359
4930.85810,0.00255
4929.82784,0.00210
4928.79757,0.00170
4927.76730,0.00119
4926.73703,0.00136
4925.70677,0.00206
4924.67650,0.00232
4923.64623,0.00171
4922.61597,0.00105
4921.58570,0.00114
4920.55543,0.00135
4919.52516,0.00117
4918.49490,0.00097
4917.46463,0.00128
4916.43436,0.00203
4915.40410,0.00220
4914.37383,0.00121
4913.34356,0.00034
4912.31330,0.00086
4911.28303,0.00157
4910.25276,0.00123
4909.22249,0.00098
4908.19223,0.00162
4907.16196,0.00211
4906.13169,0.00177
4905.10143,0.00185
4904.07116,0.00300
4903.04089,0.00339
4902.01062,0.00244
4900.98036,0.00178
4899.95009,0.00180
4898.91982,0.00150
4897.88956,0.00105
4896.85929,0.00158
4895.82902,0.00272
4894.79876,0.00331
4893.76849,0.00339
4892.73822,0.00371
4891.70795,0.00395
4890.67769,0.00355
4889.64742,0.00243
4888.61715,0.00110
4887.58689,0.00087
4886.55662,0.00154
4885.52635,0.00189
4884.49609,0.00166
4883.46582,0.00118
4882.43555,0.00076
4881.40528,0.00025
4880.37502,0.00010
4879.34475,0.00072
4878.31448,0.00141
4877.28422,0.00200
4876.25395,0.00253
4875.22368,0.00271
4874.19341,0.00241
4873.16315,0.00143
4872.13288,0.00039
4871.10261,0.00070
4870.07235,0.00210
4869.04208,0.00302
4868.01181,0.00310
4866.98155,0.00289
4865.95128,0.00259
4864.92101,0.00216
4863.89074,0.00187
4862.86048,0.00209
4861.83021,0.00218
4860.79994,0.00125
4859.76968,0.00008
4858.73941,0.00038
4857.70914,0.00186
4856.67887,0.00246
4855.64861,0.00198
4854.61834,0.00178
4853.58807,0.00210
4852.55781,0.00255
4851.52754,0.00255
4850.49727,0.00205
4849.46701,0.00165
4848.43674,0.00174
4847.40647,0.00194
4846.37620,0.00199
4845.34594,0.00245
4844.31567,0.00247
4843.28540,0.00166
4842.25514,0.00123
4841.22487,0.00144
4840.19460,0.00191
4839.16433,0.00198
4838.13407,0.00153
4837.10380,0.00097
4836.07353,0.00018
4835.04327,-0.00061
4834.01300,-0.00072
4832.98273,0.00045
4831.95247,0.00198
4830.92220,0.00243
4829.89193,0.00221
4828.86166,0.00248
4827.83140,0.00319
4826.80113,0.00340
4825.77086,0.00335
4824.74060,0.00360
4823.71033,0.00345
4822.68006,0.00268
4821.64979,0.00223
4820.61953,0.00253
4819.58926,0.00275
4818.55899,0.00245
4817.52873,0.00207
4816.49846,0.00183
4815.46819,0.00194
4814.43793,0.00274
4813.40766,0.00350
4812.37739,0.00320
4811.34712,0.00247
4810.31686,0.00225
4809.28659,0.00216
4808.25632,0.00178
4807.22606,0.00141
4806.19579,0.00132
4805.16552,0.00168
4804.13526,0.00212
4803.10499,0.00193
4802.07472,0.00139
4801.04445,0.00091
4800.01419,0.00066
4798.98392,0.00060
4797.95365,0.00061
4796.92339,0.00096
4795.89312,0.00137
4794.86285,0.00190
4793.83258,0.00243
4792.80232,0.00210
4791.77205,0.00196
4790.74178,0.00313
4789.71152,0.00361
4788.68125,0.00249
4787.65098,0.00177
4786.62072,0.00234
4785.59045,0.00309
4784.56018,0.00309
4783.52991,0.00283
4782.49965,0.00305
4781.46938,0.00380
4780.43911,0.00412
4779.40885,0.00301
4778.37858,0.00160
4777.34831,0.00127
4776.31804,0.00157
4775.28778,0.00185
4774.25751,0.00191
4773.22724,0.00167
4772.19698,0.00143
4771.16671,0.00149
4770.13644,0.00162
4769.10618,0.00173
4768.07591,0.00213
4767.04564,0.00245
4766.01537,0.00235
4764.98511,0.00190
4763.95484,0.00123
4762.92457,0.00092
4761.89431,0.00096
4760.86404,0.00107
4759.83377,0.00169
4758.80350,0.00280
4757.77324,0.00343
4756.74297,0.00276
4755.71270,0.00193
4754.68244,0.00215
4753.65217,0.00260
4752.62190,0.00262
4751.59164,0.00246
4750.56137,0.00229
4749.53110,0.00198
4748.50083,0.00128
4747.47057,0.00071
4746.44030,0.00097
4745.41003,0.00190
4744.37977,0.00308
4743.34950,0.00388
4742.31923,0.00386
4741.28897,0.00363
4740.25870,0.00339
4739.22843,0.00240
4738.19816,0.00089
4737.16790,0.00068
4736.13763,0.00200
4735.10736,0.00264
4734.07710,0.00227
4733.04683,0.00184
4732.01656,0.00166
4730.98629,0.00195
4729.95603,0.00228
4728.92576,0.00251
4727.89549,0.00252
4726.86523,0.00215
4725.83496,0.00204
4724.80469,0.00210
4723.77443,0.00210
4722.74416,0.00207
4721.71389,0.00154
4720.68362,0.00118
4719.65336,0.00125
4718.62309,0.00076
4717.59282,0.00027
4716.56256,0.00069
4715.53229,0.00115
4714.50202,0.00116
4713.47175,0.00176
4712.44149,0.00292
4711.41122,0.00351
4710.38095,0.00289
4709.35069,0.00144
4708.32042,0.00056
4707.29015,0.00035
4706.25989,0.00037
4705.22962,0.00111
4704.19935,0.00167
4703.16908,0.00098
4702.13882,0.00030
4701.10855,0.00098
4700.07828,0.00199
4699.04802,0.00228
4698.01775,0.00203
4696.98748,0.00169
4695.95721,0.00173
4694.92695,0.00183
4693.89668,0.00191
4692.86641,0.00230
4691.83615,0.00234
4690.80588,0.00164
4689.77561,0.00091
4688.74535,0.00101
4687.71508,0.00175
4686.68481,0.00222
4685.65454,0.00222
4684.62428,0.00198
4683.59401,0.00151
4682.56374,0.00117
4681.53348,0.00133
4680.50321,0.00150
4679.47294,0.00133
4678.44267,0.00110
4677.41241,0.00110
4676.38214,0.00101
4675.35187,0.00083
4674.32161,0.00113
4673.29134,0.00200
4672.26107,0.00287
4671.23081,0.00305
4670.20054,0.00283
4669.17027,0.00282
4668.14000,0.00277
4667.10974,0.00250
4666.07947,0.00219
4665.04920,0.00214
4664.01894,0.00262
4662.98867,0.00303
4661.95840,0.00315
4660.92814,0.00330
4659.89787,0.00307
4658.86760,0.00252
4657.83733,0.00228
4656.80707,0.00233
4655.77680,0.00195
4654.74653,0.00133
4653.71627,0.00122
4652.68600,0.00166
4651.65573,0.00258
4650.62546,0.00308
4649.59520,0.00277
4648.56493,0.00269
4647.53466,0.00297
4646.50440,0.00268
4645.47413,0.00190
4644.44386,0.00171
4643.41360,0.00182
4642.38333,0.00132
4641.35306,0.00056
4640.32279,0.00011
4639.29253,0.00050
4638.26226,0.00165
4637.23199,0.00244
4636.20173,0.00184
4635.17146,0.00060
4634.14119,0.00046
4633.11092,0.00125
4632.08066,0.00214
4631.05039,0.00261
4630.02012,0.00220
4628.98986,0.00203
4627.95959,0.00246
4626.92932,0.00229
4625.89906,0.00159
4624.86879,0.00136
4623.83852,0.00161
4622.80825,0.00163
4621.77799,0.00137
4620.74772,0.00171
4619.71745,0.00227
4618.68719,0.00199
4617.65692,0.00162
4616.62665,0.00188
4615.59638,0.00236
4614.56612,0.00270
4613.53585,0.00274
4612.50558,0.00215
4611.47532,0.00170
4610.44505,0.00256
4609.41478,0.00386
4608.38452,0.00410
4607.35425,0.00340
4606.32398,0.00286
4605.29371,0.00280
4604.26345,0.00290
4603.23318,0.00293
4602.20291,0.00295
4601.17265,0.00293
4600.14238,0.00279
4599.11211,0.00224
4598.08185,0.00128
4597.05158,0.00134
4596.02131,0.00222
4594.99104,0.00205
4593.96078,0.00135
4592.93051,0.00125
4591.90024,0.00132
4590.86998,0.00139
4589.83971,0.00174
4588.80944,0.00209
4587.77917,0.00188
4586.74891,0.00124
4585.71864,0.00113
4584.68837,0.00152
4583.65811,0.00163
4582.62784,0.00152
4581.59757,0.00144
4580.56731,0.00157
4579.53704,0.00180
4578.50677,0.00146
4577.47650,0.00046
4576.44624,-0.00007
4575.41597,0.00052
4574.38570,0.00115
4573.35544,0.00124
4572.32517,0.00166
4571.29490,0.00211
4570.26463,0.00164
4569.23437,0.00124
4568.20410,0.00168
4567.17383,0.00199
4566.14357,0.00205
4565.11330,0.00224
4564.08303,0.00212
4563.05277,0.00174
4562.02250,0.00163
4560.99223,0.00145
4559.96196,0.00084
4558.93170,0.00073
4557.90143,0.00145
4556.87116,0.00176
4555.84090,0.00140
4554.81063,0.00122
4553.78036,0.00163
4552.75009,0.00243
4551.71983,0.00270
4550.68956,0.00202
4549.65929,0.00125
4548.62903,0.00106
4547.59876,0.00150
4546.56849,0.00222
4545.53823,0.00243
4544.50796,0.00194
4543.47769,0.00143
4542.44742,0.00139
4541.41716,0.00154
4540.38689,0.00144
4539.35662,0.00129
4538.32636,0.00139
4537.29609,0.00179
4536.26582,0.00199
4535.23556,0.00161
4534.20529,0.00113
4533.17502,0.00107
4532.14475,0.00133
4531.11449,0.00152
4530.08422,0.00177
4529.05395,0.00202
4528.02369,0.00199
4526.99342,0.00165
4525.96315,0.00119
4524.93288,0.00125
4523.90262,0.00165
4522.87235,0.00175
4521.84208,0.00200
4520.81182,0.00224
4519.78155,0.00176
4518.75128,0.00141
4517.72102,0.00211
4516.69075,0.00298
4515.66048,0.00295
4514.63021,0.00247
4513.59995,0.00240
4512.56968,0.00265
4511.53941,0.00236
4510.50915,0.00166
4509.47888,0.00172
4508.44861,0.00221
4507.41834,0.00229
4506.38808,0.00215
4505.35781,0.00167
4504.32754,0.00121
4503.29728,0.00156
4502.26701,0.00234
4501.23674,0.00297
4500.20648,0.00316
4499.17621,0.00280
4498.14594,0.00263
4497.11567,0.00296
4496.08541,0.00258
4495.05514,0.00142
4494.02487,0.00083
4492.99461,0.00085
4491.96434,0.00128
4490.93407,0.00203
4489.90380,0.00223
4488.87354,0.00200
4487.84327,0.00198
4486.81300,0.00199
4485.78274,0.00210
4484.75247,0.00244
4483.72220,0.00242
4482.69194,0.00194
4481.66167,0.00193
4480.63140,0.00251
4479.60113,0.00266
4478.57087,0.00226
4477.54060,0.00210
4476.51033,0.00220
4475.48007,0.00200
4474.44980,0.00161
4473.41953,0.00160
4472.38926,0.00184
4471.35900,0.00184
4470.32873,0.00168
4469.29846,0.00165
4468.26820,0.00162
4467.23793,0.00156
4466.20766,0.00172
4465.17740,0.00210
4464.14713,0.00203
4463.11686,0.00145
4462.08659,0.00119
4461.05633,0.00146
4460.02606,0.00184
4458.99579,0.00191
4457.96553,0.00173
4456.93526,0.00171
4455.90499,0.00173
4454.87473,0.00176
4453.84446,0.00203
4452.81419,0.00199
4451.78392,0.00137
4450.75366,0.00098
4449.72339,0.00131
4448.69312,0.00191
4447.66286,0.00255
4446.63259,0.00278
4445.60232,0.00212
4444.57205,0.00135
4443.54179,0.00120
4442.51152,0.00166
4441.48125,0.00185
4440.45099,0.00119
4439.42072,0.00064
4438.39045,0.00070
4437.36019,0.00085
4436.32992,0.00089
4435.29965,0.00140
4434.26938,0.00206
4433.23912,0.00193
4432.20885,0.00169
4431.17858,0.00219
4430.14832,0.00286
4429.11805,0.00275
4428.08778,0.00181
4427.05751,0.00151
4426.02725,0.00236
4424.99698,0.00295
4423.96671,0.00291
4422.93645,0.00269
4421.90618,0.00180
4420.87591,0.00069
4419.84565,0.00062
4418.81538,0.00140
4417.78511,0.00216
4416.75484,0.00273
4415.72458,0.00327
4414.69431,0.00337
4413.66404,0.00276
4412.63378,0.00178
4411.60351,0.00097
4410.57324,0.00070
4409.54297,0.00089
4408.51271,0.00143
4407.48244,0.00170
4406.45217,0.00134
4405.42191,0.00130
4404.39164,0.00219
4403.36137,0.00323
4402.33111,0.00351
4401.30084,0.00301
4400.27057,0.00231
4399.24030,0.00198
4398.21004,0.00217
4397.17977,0.00238
4396.14950,0.00256
4395.11924,0.00317
4394.08897,0.00362
4393.05870,0.00330
4392.02844,0.00279
4390.99817,0.00245
4389.96790,0.00226
4388.93763,0.00248
4387.90737,0.00275
4386.87710,0.00269
4385.84683,0.00271
4384.81657,0.00306
4383.78630,0.00339
4382.75603,0.00302
4381.72576,0.00219
4380.69550,0.00157
4379.66523,0.00162
4378.63496,0.00236
4377.60470,0.00298
4376.57443,0.00294
4375.54416,0.00268
4374.51390,0.00278
4373.48363,0.00303
4372.45336,0.00288
4371.42309,0.00261
4370.39283,0.00252
4369.36256,0.00266
4368.33229,0.00295
4367.30203,0.00284
4366.27176,0.00264
4365.24149,0.00281
4364.21122,0.00232
4363.18096,0.00181
4362.15069,0.00242
4361.12042,0.00294
4360.09016,0.00250
4359.05989,0.00172
4358.02962,0.00151
4356.99936,0.00239
4355.96909,0.00347
4354.93882,0.00364
4353.90855,0.00357
4352.87829,0.00380
4351.84802,0.00363
4350.81775,0.00320
4349.78749,0.00318
4348.75722,0.00336
4347.72695,0.00360
4346.69668,0.00404
4345.66642,0.00426
4344.63615,0.00406
4343.60588,0.00372
4342.57562,0.00337
4341.54535,0.00332
4340.51508,0.00351
4339.48482,0.00360
4338.45455,0.00330
4337.42428,0.00282
4336.39401,0.00297
4335.36375,0.00344
4334.33348,0.00322
4333.30321,0.00264
4332.27295,0.00281
4331.24268,0.00336
4330.21241,0.00360
4329.18214,0.00360
4328.15188,0.00339
4327.12161,0.00332
4326.09134,0.00347
4325.06108,0.00348
4324.03081,0.00306
4323.00054,0.00253
4321.97028,0.00246
4320.94001,0.00257
4319.90974,0.00251
4318.87947,0.00251
4317.84921,0.00274
4316.81894,0.00290
4315.78867,0.00244
4314.75841,0.00203
4313.72814,0.00242
4312.69787,0.00303
4311.66761,0.00323
4310.63734,0.00300
4309.60707,0.00279
4308.57680,0.00282
4307.54654,0.00297
4306.51627,0.00298
4305.48600,0.00287
4304.45574,0.00311
4303.42547,0.00329
4302.39520,0.00274
4301.36493,0.00191
4300.33467,0.00181
4299.30440,0.00213
4298.27413,0.00226
4297.24387,0.00228
4296.21360,0.00241
4295.18333,0.00284
4294.15307,0.00307
4293.12280,0.00296
4292.09253,0.00314
4291.06226,0.00327
4290.03200,0.00295
4289.00173,0.00279
4287.97146,0.00280
4286.94120,0.00280
4285.91093,0.00287
4284.88066,0.00276
4283.85039,0.00264
4282.82013,0.00250
4281.78986,0.00206
4280.75959,0.00163
4279.72933,0.00190
4278.69906,0.00285
4277.66879,0.00340
4276.63853,0.00318
4275.60826,0.00269
4274.57799,0.00218
4273.54772,0.00209
4272.51746,0.00245
4271.48719,0.00250
4270.45692,0.00247
4269.42666,0.00286
4268.39639,0.00333
4267.36612,0.00359
4266.33585,0.00366
4265.30559,0.00345
4264.27532,0.00282
4263.24505,0.00229
4262.21479,0.00222
4261.18452,0.00212
4260.15425,0.00215
4259.12399,0.00251
4258.09372,0.00256
4257.06345,0.00235
4256.03318,0.00240
4255.00292,0.00231
4253.97265,0.00186
4252.94238,0.00168
4251.91212,0.00181
4250.88185,0.00204
4249.85158,0.00233
4248.82132,0.00245
4247.79105,0.00228
4246.76078,0.00209
4245.73051,0.00202
4244.70025,0.00186
4243.66998,0.00188
4242.63971,0.00241
4241.60945,0.00311
4240.57918,0.00343
4239.54891,0.00315
4238.51864,0.00255
4237.48838,0.00218
4236.45811,0.00245
4235.42784,0.00287
4234.39758,0.00281
4233.36731,0.00257
4232.33704,0.00243
4231.30678,0.00253
4230.27651,0.00279
4229.24624,0.00268
4228.21597,0.00214
4227.18571,0.00182
4226.15544,0.00198
4225.12517,0.00202
4224.09491,0.00157
4223.06464,0.00133
4222.03437,0.00183
4221.00410,0.00257
4219.97384,0.00286
4218.94357,0.00264
4217.91330,0.00226
4216.88304,0.00208
4215.85277,0.00235
4214.82250,0.00253
4213.79224,0.00211
4212.76197,0.00187
4211.73170,0.00243
4210.70143,0.00306
4209.67117,0.00311
4208.64090,0.00285
4207.61063,0.00285
4206.58037,0.00301
4205.55010,0.00243
4204.51983,0.00155
4203.48956,0.00172
4202.45930,0.00267
4201.42903,0.00337
4200.39876,0.00332
4199.36850,0.00299
4198.33823,0.00331
4197.30796,0.00378
4196.27770,0.00363
4195.24743,0.00305
4194.21716,0.00221
4193.18689,0.00172
4192.15663,0.00203
4191.12636,0.00244
4190.09609,0.00247
4189.06583,0.00247
4188.03556,0.00267
4187.00529,0.00290
4185.97502,0.00301
4184.94476,0.00290
4183.91449,0.00259
4182.88422,0.00232
4181.85396,0.00259
4180.82369,0.00343
4179.79342,0.00396
4178.76316,0.00363
4177.73289,0.00304
4176.70262,0.00280
4175.67235,0.00264
4174.64209,0.00247
4173.61182,0.00276
4172.58155,0.00336
4171.55129,0.00332
4170.52102,0.00264
4169.49075,0.00230
4168.46049,0.00290
4167.43022,0.00383
4166.39995,0.00408
4165.36968,0.00372
4164.33942,0.00330
4163.30915,0.00300
4162.27888,0.00276
4161.24862,0.00267
4160.21835,0.00272
4159.18808,0.00267
4158.15781,0.00260
4157.12755,0.00248
4156.09728,0.00241
4155.06701,0.00247
4154.03675,0.00236
4153.00648,0.00232
4151.97621,0.00274
4150.94595,0.00318
4149.91568,0.00323
4148.88541,0.00283
4147.85514,0.00245
4146.82488,0.00269
4145.79461,0.00289
4144.76434,0.00248
4143.73408,0.00221
4142.70381,0.00241
4141.67354,0.00253
4140.64327,0.00249
4139.61301,0.00264
4138.58274,0.00303
4137.55247,0.00317
4136.52221,0.00302
4135.49194,0.00285
4134.46167,0.00251
4133.43141,0.00250
4132.40114,0.00302
4131.37087,0.00344
4130.34060,0.00353
4129.31034,0.00333
4128.28007,0.00298
4127.24980,0.00269
4126.21954,0.00293
4125.18927,0.00355
4124.15900,0.00344
4123.12873,0.00279
4122.09847,0.00268
4121.06820,0.00309
4120.03793,0.00323
4119.00767,0.00300
4117.97740,0.00302
4116.94713,0.00297
4115.91687,0.00259
4114.88660,0.00239
4113.85633,0.00245
4112.82606,0.00240
4111.79580,0.00240
4110.76553,0.00264
4109.73526,0.00280
4108.70500,0.00284
4107.67473,0.00264
4106.64446,0.00204
4105.61420,0.00193
4104.58393,0.00276
4103.55366,0.00337
4102.52339,0.00313
4101.49313,0.00273
4100.46286,0.00264
4099.43259,0.00290
4098.40233,0.00319
4097.37206,0.00308
4096.34179,0.00259
4095.31152,0.00202
4094.28126,0.00184
4093.25099,0.00230
4092.22072,0.00288
4091.19046,0.00321
4090.16019,0.00372
4089.12992,0.00418
4088.09966,0.00378
4087.06939,0.00328
4086.03912,0.00388
4085.00885,0.00459
4083.97859,0.00462
4082.94832,0.00455
4081.91805,0.00428
4080.88779,0.00368
4079.85752,0.00334
4078.82725,0.00324
4077.79698,0.00321
4076.76672,0.00330
4075.73645,0.00326
4074.70618,0.00333
4073.67592,0.00371
4072.64565,0.00368
4071.61538,0.00323
4070.58512,0.00330
4069.55485,0.00366
4068.52458,0.00383
4067.49431,0.00413
4066.46405,0.00448
4065.43378,0.00459
4064.40351,0.00411
4063.37325,0.00334
4062.34298,0.00330
4061.31271,0.00358
4060.28244,0.00339
4059.25218,0.00298
4058.22191,0.00308
4057.19164,0.00368
4056.16138,0.00410
4055.13111,0.00401
4054.10084,0.00367
4053.07058,0.00346
4052.04031,0.00359
4051.01004,0.00402
4049.97977,0.00412
4048.94951,0.00401
4047.91924,0.00438
4046.88897,0.00495
4045.85871,0.00535
4044.82844,0.00533
4043.79817,0.00492
4042.76791,0.00449
4041.73764,0.00420
4040.70737,0.00428
4039.67710,0.00439
4038.64684,0.00411
4037.61657,0.00396
4036.58630,0.00416
4035.55604,0.00423
4034.52577,0.00410
4033.49550,0.00403
4032.46523,0.00392
4031.43497,0.00370
4030.40470,0.00385
4029.37443,0.00424
4028.34417,0.00418
4027.31390,0.00399
4026.28363,0.00424
4025.25337,0.00440
4024.22310,0.00391
4023.19283,0.00360
4022.16256,0.00387
4021.13230,0.00380
4020.10203,0.00349
4019.07176,0.00346
4018.04150,0.00347
4017.01123,0.00355
4015.98096,0.00391
4014.95069,0.00449
4013.92043,0.00492
4012.89016,0.00518
4011.85989,0.00526
4010.82963,0.00479
4009.79936,0.00409
4008.76909,0.00364
4007.73883,0.00356
4006.70856,0.00393
4005.67829,0.00428
4004.64802,0.00424
4003.61776,0.00451
4002.58749,0.00494
4001.55722,0.00485
4000.52696,0.00490
3999.49669,0.00505
3998.46642,0.00457
3997.43615,0.00397
3996.40589,0.00400
3995.37562,0.00421
3994.34535,0.00395
3993.31509,0.00372
3992.28482,0.00382
3991.25455,0.00392
3990.22429,0.00396
3989.19402,0.00407
3988.16375,0.00436
3987.13348,0.00463
3986.10322,0.00447
3985.07295,0.00406
3984.04268,0.00384
3983.01242,0.00403
3981.98215,0.00433
3980.95188,0.00425
3979.92161,0.00410
3978.89135,0.00395
3977.86108,0.00349
3976.83081,0.00323
3975.80055,0.00357
3974.77028,0.00394
3973.74001,0.00377
3972.70975,0.00320
3971.67948,0.00311
3970.64921,0.00388
3969.61894,0.00439
3968.58868,0.00407
3967.55841,0.00367
3966.52814,0.00371
3965.49788,0.00395
3964.46761,0.00398
3963.43734,0.00372
3962.40708,0.00344
3961.37681,0.00328
3960.34654,0.00340
3959.31627,0.00390
3958.28601,0.00414
3957.25574,0.00384
3956.22547,0.00363
3955.19521,0.00358
3954.16494,0.00355
3953.13467,0.00410
3952.10440,0.00504
3951.07414,0.00530
3950.04387,0.00467
3949.01360,0.00396
3947.98334,0.00365
3946.95307,0.00372
3945.92280,0.00393
3944.89254,0.00393
3943.86227,0.00382
3942.83200,0.00375
3941.80173,0.00332
3940.77147,0.00267
3939.74120,0.00271
3938.71093,0.00363
3937.68067,0.00422
3936.65040,0.00393
3935.62013,0.00383
3934.58986,0.00434
3933.55960,0.00471
3932.52933,0.00439
3931.49906,0.00388
3930.46880,0.00390
3929.43853,0.00427
3928.40826,0.00450
3927.37800,0.00436
3926.34773,0.00389
3925.31746,0.00345
3924.28719,0.00345
3923.25693,0.00359
3922.22666,0.00356
3921.19639,0.00345
3920.16613,0.00310
3919.13586,0.00266
3918.10559,0.00243
3917.07532,0.00246
3916.04506,0.00275
3915.01479,0.00294
3913.98452,0.00315
3912.95426,0.00366
3911.92399,0.00398
3910.89372,0.00385
3909.86346,0.00355
3908.83319,0.00303
3907.80292,0.00257
3906.77265,0.00283
3905.74239,0.00354
3904.71212,0.00368
3903.68185,0.00297
3902.65159,0.00271
3901.62132,0.00341
3900.59105,0.00383
3899.56079,0.00342
3898.53052,0.00297
3897.50025,0.00315
3896.46998,0.00354
3895.43972,0.00379
3894.40945,0.00387
3893.37918,0.00384
3892.34892,0.00379
3891.31865,0.00345
3890.28838,0.00313
3889.25811,0.00328
3888.22785,0.00345
3887.19758,0.00357
3886.16731,0.00368
3885.13705,0.00341
3884.10678,0.00307
3883.07651,0.00304
3882.04625,0.00332
3881.01598,0.00382
3879.98571,0.00380
3878.95544,0.00331
3877.92518,0.00335
3876.89491,0.00361
3875.86464,0.00333
3874.83438,0.00248
3873.80411,0.00220
3872.77384,0.00272
3871.74357,0.00286
3870.71331,0.00283
3869.68304,0.00330
3868.65277,0.00341
3867.62251,0.00276
3866.59224,0.00226
3865.56197,0.00262
3864.53171,0.00324
3863.50144,0.00329
3862.47117,0.00322
3861.44090,0.00318
3860.41064,0.00311
3859.38037,0.00319
3858.35010,0.00367
3857.31984,0.00438
3856.28957,0.00432
3855.25930,0.00322
3854.22903,0.00215
3853.19877,0.00278
3852.16850,0.00373
3851.13823,0.00351
3850.10797,0.00300
3849.07770,0.00259
3848.04743,0.00238
3847.01717,0.00270
3845.98690,0.00319
3844.95663,0.00315
3843.92636,0.00287
3842.89610,0.00306
3841.86583,0.00326
3840.83556,0.00312
3839.80530,0.00326
3838.77503,0.00365
3837.74476,0.00397
3836.71449,0.00393
3835.68423,0.00327
3834.65396,0.00258
3833.62369,0.00228
3832.59343,0.00208
3831.56316,0.00230
3830.53289,0.00300
3829.50263,0.00339
3828.47236,0.00355
3827.44209,0.00352
3826.41182,0.00303
3825.38156,0.00266
3824.35129,0.00288
3823.32102,0.00336
3822.29076,0.00360
3821.26049,0.00377
3820.23022,0.00397
3819.19996,0.00385
3818.16969,0.00379
3817.13942,0.00378
3816.10915,0.00376
3815.07889,0.00389
3814.04862,0.00400
3813.01835,0.00371
3811.98809,0.00306
3810.95782,0.00290
3809.92755,0.00323
3808.89728,0.00344
3807.86702,0.00349
3806.83675,0.00308
3805.80648,0.00259
3804.77622,0.00285
3803.74595,0.00327
3802.71568,0.00332
3801.68542,0.00336
3800.65515,0.00375
3799.62488,0.00405
3798.59461,0.00403
3797.56435,0.00405
3796.53408,0.00447
3795.50381,0.00463
3794.47355,0.00414
3793.44328,0.00368
3792.41301,0.00343
3791.38274,0.00315
3790.35248,0.00295
3789.32221,0.00301
3788.29194,0.00307
3787.26168,0.00301
3786.23141,0.00306
3785.20114,0.00332
3784.17088,0.00364
3783.14061,0.00352
3782.11034,0.00313
3781.08007,0.00321
3780.04981,0.00360
3779.01954,0.00370
3777.98927,0.00373
3776.95901,0.00373
3775.92874,0.00352
3774.89847,0.00331
3773.86820,0.00326
3772.83794,0.00342
3771.80767,0.00349
3770.77740,0.00324
3769.74714,0.00316
3768.71687,0.00336
3767.68660,0.00368
3766.65634,0.00397
3765.62607,0.00408
3764.59580,0.00408
3763.56553,0.00407
3762.53527,0.00404
3761.50500,0.00385
3760.47473,0.00370
3759.44447,0.00375
3758.41420,0.00358
3757.38393,0.00343
3756.35367,0.00356
3755.32340,0.00365
3754.29313,0.00377
3753.26286,0.00396
3752.23260,0.00370
3751.20233,0.00350
3750.17206,0.00397
3749.14180,0.00457
3748.11153,0.00483
3747.08126,0.00485
3746.05099,0.00475
3745.02073,0.00476
3743.99046,0.00474
3742.96019,0.00418
3741.92993,0.00396
3740.89966,0.00443
3739.86939,0.00470
3738.83913,0.00446
3737.80886,0.00439
3736.77859,0.00479
3735.74832,0.00524
3734.71806,0.00499
3733.68779,0.00439
3732.65752,0.00416
3731.62726,0.00424
3730.59699,0.00469
3729.56672,0.00520
3728.53645,0.00518
3727.50619,0.00503
3726.47592,0.00516
3725.44565,0.00483
3724.41539,0.00410
3723.38512,0.00408
3722.35485,0.00493
3721.32459,0.00565
3720.29432,0.00558
3719.26405,0.00484
3718.23378,0.00419
3717.20352,0.00426
3716.17325,0.00447
3715.14298,0.00461
3714.11272,0.00514
3713.08245,0.00572
3712.05218,0.00579
3711.02191,0.00547
3709.99165,0.00527
3708.96138,0.00542
3707.93111,0.00584
3706.90085,0.00614
3705.87058,0.00602
3704.84031,0.00562
3703.81005,0.00558
3702.77978,0.00632
3701.74951,0.00672
3700.71924,0.00598
3699.68898,0.00545
3698.65871,0.00563
3697.62844,0.00583
3696.59818,0.00578
3695.56791,0.00581
3694.53764,0.00597
3693.50737,0.00643
3692.47711,0.00754
3691.44684,0.00858
3690.41657,0.00840
3689.38631,0.00788
3688.35604,0.00823
3687.32577,0.00882
3686.29551,0.00876
3685.26524,0.00832
3684.23497,0.00802
3683.20470,0.00806
3682.17444,0.00845
3681.14417,0.00903
3680.11390,0.00954
3679.08364,0.00986
3678.05337,0.01024
3677.02310,0.01084
3675.99284,0.01167
3674.96257,0.01221
3673.93230,0.01182
3672.90203,0.01143
3671.87177,0.01162
3670.84150,0.01244
3669.81123,0.01318
3668.78097,0.01319
3667.75070,0.01294
3666.72043,0.01272
3665.69016,0.01257
3664.65990,0.01267
3663.62963,0.01303
3662.59936,0.01367
3661.56910,0.01464
3660.53883,0.01544
3659.50856,0.01619
3658.47830,0.01721
3657.44803,0.01807
3656.41776,0.01854
3655.38749,0.01858
3654.35723,0.01848
3653.32696,0.01858
3652.29669,0.01881
3651.26643,0.01918
3650.23616,0.02006
3649.20589,0.02082
3648.17562,0.02094
3647.14536,0.02084
3646.11509,0.02112
3645.08482,0.02216
3644.05456,0.02319
3643.02429,0.02363
3641.99402,0.02374
3640.96376,0.02383
3639.93349,0.02435
3638.90322,0.02525
3637.87295,0.02586
3636.84269,0.02619
3635.81242,0.02678
3634.78215,0.02784
3633.75189,0.02894
3632.72162,0.02954
3631.69135,0.03003
3630.66108,0.03091
3629.63082,0.03199
3628.60055,0.03207
3627.57028,0.03166
3626.54002,0.03204
3625.50975,0.03288
3624.47948,0.03409
3623.44922,0.03537
3622.41895,0.03625
3621.38868,0.03698
3620.35841,0.03751
3619.32815,0.03721
3618.29788,0.03655
3617.26761,0.03682
3616.23735,0.03840
3615.20708,0.04050
3614.17681,0.04203
3613.14655,0.04291
3612.11628,0.04364
3611.08601,0.04424
3610.05574,0.04497
3609.02548,0.04588
3607.99521,0.04650
3606.96494,0.04698
3605.93468,0.04751
3604.90441,0.04803
3603.87414,0.04862
3602.84387,0.04936
3601.81361,0.05034
3600.78334,0.05102
3599.75307,0.05114
3598.72281,0.05153
3597.69254,0.05274
3596.66227,0.05434
3595.63201,0.05568
3594.60174,0.05689
3593.57147,0.05782
3592.54120,0.05816
3591.51094,0.05860
3590.48067,0.05978
3589.45040,0.06148
3588.42014,0.06280
3587.38987,0.06375
3586.35960,0.06462
3585.32933,0.06493
3584.29907,0.06498
3583.26880,0.06535
3582.23853,0.06632
3581.20827,0.06781
3580.17800,0.06947
3579.14773,0.07096
3578.11747,0.07193
3577.08720,0.07245
3576.05693,0.07323
3575.02666,0.07453
3573.99640,0.07562
3572.96613,0.07625
3571.93586,0.07714
3570.90560,0.07860
3569.87533,0.07981
3568.84506,0.08039
3567.81479,0.08084
3566.78453,0.08145
3565.75426,0.08238
3564.72399,0.08366
3563.69373,0.08470
3562.66346,0.08532
3561.63319,0.08585
3560.60293,0.08691
3559.57266,0.08871
3558.54239,0.08993
3557.51212,0.09021
3556.48186,0.09074
3555.45159,0.09193
3554.42132,0.09326
3553.39106,0.09437
3552.36079,0.09547
3551.33052,0.09637
3550.30026,0.09679
3549.26999,0.09730
3548.23972,0.09813
3547.20945,0.09881
3546.17919,0.09957
3545.14892,0.10070
3544.11865,0.10172
3543.08839,0.10250
3542.05812,0.10347
3541.02785,0.10463
3539.99758,0.10526
3538.96732,0.10546
3537.93705,0.10609
3536.90678,0.10707
3535.87652,0.10800
3534.84625,0.10883
3533.81598,0.10938
3532.78572,0.10991
3531.75545,0.11088
3530.72518,0.11187
3529.69491,0.11236
3528.66465,0.11271
3527.63438,0.11362
3526.60411,0.11478
3525.57385,0.11556
3524.54358,0.11614
3523.51331,0.11704
3522.48304,0.11815
3521.45278,0.11900
3520.42251,0.11937
3519.39224,0.11939
3518.36198,0.11965
3517.33171,0.12063
3516.30144,0.12202
3515.27118,0.12285
3514.24091,0.12304
3513.21064,0.12330
3512.18037,0.12369
3511.15011,0.12404
3510.11984,0.12467
3509.08957,0.12558
3508.05931,0.12623
3507.02904,0.12650
3505.99877,0.12665
3504.96850,0.12698
3503.93824,0.12776
3502.90797,0.12829
3501.87770,0.12827
3500.84744,0.12875
3499.81717,0.12946
3498.78690,0.12949
3497.75664,0.12931
3496.72637,0.12962
3495.69610,0.13018
3494.66583,0.13051
3493.63557,0.13081
3492.60530,0.13117
3491.57503,0.13136
3490.54477,0.13187
3489.51450,0.13272
3488.48423,0.13332
3487.45396,0.13391
3486.42370,0.13465
3485.39343,0.13493
3484.36316,0.13483
3483.33290,0.13490
3482.30263,0.13524
3481.27236,0.13558
3480.24210,0.13549
3479.21183,0.13552
3478.18156,0.13610
3477.15129,0.13660
3476.12103,0.13682
3475.09076,0.13675
3474.06049,0.13654
3473.03023,0.13673
3471.99996,0.13740
3470.96969,0.13807
3469.93943,0.13848
3468.90916,0.13870
3467.87889,0.13899
3466.84862,0.13966
3465.81836,0.14042
3464.78809,0.14094
3463.75782,0.14157
3462.72756,0.14235
3461.69729,0.14285
3460.66702,0.14311
3459.63675,0.14302
3458.60649,0.14253
3457.57622,0.14213
3456.54595,0.14249
3455.51569,0.14327
3454.48542,0.14344
3453.45515,0.14330
3452.42489,0.14363
3451.39462,0.14410
3450.36435,0.14439
3449.33408,0.14485
3448.30382,0.14512
3447.27355,0.14491
3446.24328,0.14506
3445.21302,0.14594
3444.18275,0.14672
3443.15248,0.14674
3442.12221,0.14626
3441.09195,0.14583
3440.06168,0.14565
3439.03141,0.14564
3438.00115,0.14587
3436.97088,0.14636
3435.94061,0.14681
3434.91035,0.14684
3433.88008,0.14665
3432.84981,0.14663
3431.81954,0.14705
3430.78928,0.14793
3429.75901,0.14863
3428.72874,0.14897
3427.69848,0.14932
3426.66821,0.14981
3425.63794,0.14995
3424.60767,0.14931
3423.57741,0.14845
3422.54714,0.14829
3421.51687,0.14887
3420.48661,0.14945
3419.45634,0.14967
3418.42607,0.14983
3417.39581,0.14977
3416.36554,0.14921
3415.33527,0.14884
3414.30500,0.14899
3413.27474,0.14930
3412.24447,0.14944
3411.21420,0.14893
3410.18394,0.14821
3409.15367,0.14829
3408.12340,0.14908
3407.09314,0.14970
3406.06287,0.14978
3405.03260,0.14963
3404.00233,0.14923
3402.97207,0.14851
3401.94180,0.14781
3400.91153,0.14727
3399.88127,0.14709
3398.85100,0.14729
3397.82073,0.14750
3396.79046,0.14754
3395.76020,0.14741
3394.72993,0.14745
3393.69966,0.14750
3392.66940,0.14725
3391.63913,0.14706
3390.60886,0.14689
3389.57860,0.14640
3388.54833,0.14598
3387.51806,0.14583
3386.48779,0.14552
3385.45753,0.14498
3384.42726,0.14432
3383.39699,0.14381
3382.36673,0.14377
3381.33646,0.14382
3380.30619,0.14364
3379.27592,0.14320
3378.24566,0.14217
3377.21539,0.14105
3376.18512,0.14086
3375.15486,0.14120
3374.12459,0.14091
3373.09432,0.14006
3372.06406,0.13957
3371.03379,0.13949
3370.00352,0.13882
3368.97325,0.13741
3367.94299,0.13636
3366.91272,0.13627
3365.88245,0.13650
3364.85219,0.13630
3363.82192,0.13577
3362.79165,0.13521
3361.76138,0.13453
3360.73112,0.13363
3359.70085,0.13276
3358.67058,0.13213
3357.64032,0.13194
3356.61005,0.13228
3355.57978,0.13232
3354.54952,0.13170
3353.51925,0.13074
3352.48898,0.12956
3351.45871,0.12854
3350.42845,0.12790
3349.39818,0.12744
3348.36791,0.12699
3347.33765,0.12639
3346.30738,0.12577
3345.27711,0.12534
3344.24684,0.12499
3343.21658,0.12477
3342.18631,0.12443
3341.15604,0.12365
3340.12578,0.12295
3339.09551,0.12256
3338.06524,0.12224
3337.03498,0.12197
3336.00471,0.12175
3334.97444,0.12117
3333.94417,0.12052
3332.91391,0.12014
3331.88364,0.11935
3330.85337,0.11847
3329.82311,0.11818
3328.79284,0.11785
3327.76257,0.11718
3326.73231,0.11654
3325.70204,0.11631
3324.67177,0.11656
3323.64150,0.11680
3322.61124,0.11672
3321.58097,0.11629
3320.55070,0.11569
3319.52044,0.11537
3318.49017,0.11490
3317.45990,0.11400
3316.42963,0.11348
3315.39937,0.11354
3314.36910,0.11349
3313.33883,0.11321
3312.30857,0.11279
3311.27830,0.11209
3310.24803,0.11157
3309.21777,0.11166
3308.18750,0.11190
3307.15723,0.11160
3306.12696,0.11129
3305.09670,0.11138
3304.06643,0.11113
3303.03616,0.11040
3302.00590,0.10976
3300.97563,0.10977
3299.94536,0.11007
3298.91509,0.10976
3297.88483,0.10931
3296.85456,0.10911
3295.82429,0.10862
3294.79403,0.10798
3293.76376,0.10751
3292.73349,0.10723
3291.70323,0.10727
3290.67296,0.10710
3289.64269,0.10656
3288.61242,0.10593
3287.58216,0.10552
3286.55189,0.10584
3285.52162,0.10611
3284.49136,0.10559
3283.46109,0.10516
3282.43082,0.10521
3281.40055,0.10514
3280.37029,0.10469
3279.34002,0.10410
3278.30975,0.10364
3277.27949,0.10331
3276.24922,0.10312
3275.21895,0.10315
3274.18869,0.10304
3273.15842,0.10261
3272.12815,0.10217
3271.09788,0.10194
3270.06762,0.10176
3269.03735,0.10141
3268.00708,0.10087
3266.97682,0.10055
3265.94655,0.10053
3264.91628,0.09985
3263.88602,0.09856
3262.85575,0.09815
3261.82548,0.09854
3260.79521,0.09852
3259.76495,0.09832
3258.73468,0.09855
3257.70441,0.09849
3256.67415,0.09775
3255.64388,0.09705
3254.61361,0.09668
3253.58334,0.09638
3252.55308,0.09605
3251.52281,0.09544
3250.49254,0.09470
3249.46228,0.09422
3248.43201,0.09380
3247.40174,0.09345
3246.37148,0.09316
3245.34121,0.09263
3244.31094,0.09185
3243.28067,0.09082
3242.25041,0.09005
3241.22014,0.09020
3240.18987,0.09049
3239.15961,0.09014
3238.12934,0.08985
3237.09907,0.08978
3236.06880,0.08898
3235.03854,0.08756
3234.00827,0.08647
3232.97800,0.08595
3231.94774,0.08562
3230.91747,0.08531
3229.88720,0.08479
3228.85694,0.08423
3227.82667,0.08429
3226.79640,0.08460
3225.76613,0.08383
3224.73587,0.08213
3223.70560,0.08110
3222.67533,0.08097
3221.64507,0.08067
3220.61480,0.07994
3219.58453,0.07917
3218.55426,0.07844
3217.52400,0.07755
3216.49373,0.07661
3215.46346,0.07606
3214.43320,0.07594
3213.40293,0.07563
3212.37266,0.07479
3211.34240,0.07378
3210.31213,0.07302
3209.28186,0.07261
3208.25159,0.07233
3207.22133,0.07188
3206.19106,0.07115
3205.16079,0.07032
3204.13053,0.06960
3203.10026,0.06931
3202.06999,0.06932
3201.03972,0.06879
3200.00946,0.06745
3198.97919,0.06630
3197.94892,0.06604
3196.91866,0.06580
3195.88839,0.06517
3194.85812,0.06476
3193.82786,0.06438
3192.79759,0.06356
3191.76732,0.06269
3190.73705,0.06249
3189.70679,0.06289
3188.67652,0.06305
3187.64625,0.06240
3186.61599,0.06157
3185.58572,0.06067
3184.55545,0.05917
3183.52519,0.05802
3182.49492,0.05793
3181.46465,0.05772
3180.43438,0.05672
3179.40412,0.05591
3178.37385,0.05572
3177.34358,0.05550
3176.31332,0.05501
3175.28305,0.05437
3174.25278,0.05370
3173.22251,0.05316
3172.19225,0.05276
3171.16198,0.05232
3170.13171,0.05185
3169.10145,0.05145
3168.07118,0.05079
3167.04091,0.04991
3166.01065,0.04939
3164.98038,0.04934
3163.95011,0.04931
3162.91984,0.04899
3161.88958,0.04831
3160.85931,0.04760
3159.82904,0.04727
3158.79878,0.04723
3157.76851,0.04689
3156.73824,0.04606
3155.70797,0.04501
3154.67771,0.04427
3153.64744,0.04421
3152.61717,0.04432
3151.58691,0.04412
3150.55664,0.04349
3149.52637,0.04245
3148.49611,0.04148
3147.46584,0.04103
3146.43557,0.04106
3145.40530,0.04118
3144.37504,0.04101
3143.34477,0.04056
3142.31450,0.03996
3141.28424,0.03938
3140.25397,0.03896
3139.22370,0.03858
3138.19343,0.03829
3137.16317,0.03814
3136.13290,0.03781
3135.10263,0.03735
3134.07237,0.03718
3133.04210,0.03719
3132.01183,0.03677
3130.98157,0.03572
3129.95130,0.03485
3128.92103,0.03491
3127.89076,0.03506
3126.86050,0.03454
3125.83023,0.03405
3124.79996,0.03388
3123.76970,0.03354
3122.73943,0.03285
3121.70916,0.03205
3120.67890,0.03156
3119.64863,0.03154
3118.61836,0.03164
3117.58809,0.03146
3116.55783,0.03110
3115.52756,0.03081
3114.49729,0.03067
3113.46703,0.03065
3112.43676,0.03068
3111.40649,0.03038
3110.37622,0.02937
3109.34596,0.02852
3108.31569,0.02869
3107.28542,0.02921
3106.25516,0.02914
3105.22489,0.02867
3104.19462,0.02845
3103.16436,0.02844
3102.13409,0.02832
3101.10382,0.02798
3100.07355,0.02741
3099.04329,0.02681
3098.01302,0.02646
3096.98275,0.02632
3095.95249,0.02628
3094.92222,0.02642
3093.89195,0.02652
3092.86168,0.02621
3091.83142,0.02576
3090.80115,0.02560
3089.77088,0.02544
3088.74062,0.02518
3087.71035,0.02511
3086.68008,0.02498
3085.64982,0.02463
3084.61955,0.02432
3083.58928,0.02392
3082.55901,0.02349
3081.52875,0.02315
3080.49848,0.02286
3079.46821,0.02271
3078.43795,0.02265
3077.40768,0.02247
3076.37741,0.02211
3075.34714,0.02181
3074.31688,0.02180
3073.28661,0.02177
3072.25634,0.02147
3071.22608,0.02116
3070.19581,0.02094
3069.16554,0.02097
3068.13528,0.02119
3067.10501,0.02133
3066.07474,0.02133
3065.04447,0.02120
3064.01421,0.02098
3062.98394,0.02076
3061.95367,0.02037
3060.92341,0.01988
3059.89314,0.01952
3058.86287,0.01922
3057.83261,0.01910
3056.80234,0.01913
3055.77207,0.01892
3054.74180,0.01875
3053.71154,0.01885
3052.68127,0.01875
3051.65100,0.01848
3050.62074,0.01844
3049.59047,0.01849
3048.56020,0.01843
3047.52993,0.01835
3046.49967,0.01825
3045.46940,0.01808
3044.43913,0.01798
3043.40887,0.01790
3042.37860,0.01771
3041.34833,0.01756
3040.31807,0.01757
3039.28780,0.01752
3038.25753,0.01738
3037.22726,0.01733
3036.19700,0.01716
3035.16673,0.01682
3034.13646,0.01668
3033.10620,0.01676
3032.07593,0.01646
3031.04566,0.01575
3030.01539,0.01557
3028.98513,0.01598
3027.95486,0.01627
3026.92459,0.01625
3025.89433,0.01619
3024.86406,0.01618
3023.83379,0.01594
3022.80353,0.01559
3021.77326,0.01546
3020.74299,0.01538
3019.71272,0.01530
3018.68246,0.01544
3017.65219,0.01566
3016.62192,0.01573
3015.59166,0.01566
3014.56139,0.01546
3013.53112,0.01524
3012.50085,0.01529
3011.47059,0.01555
3010.44032,0.01569
3009.41005,0.01562
3008.37979,0.01546
3007.34952,0.01542
3006.31925,0.01543
3005.28899,0.01535
3004.25872,0.01537
3003.22845,0.01550
3002.19818,0.01554
3001.16792,0.01539
3000.13765,0.01518
2999.10738,0.01519
2998.07712,0.01564
2997.04685,0.01628
2996.01658,0.01669
2994.98631,0.01687
2993.95605,0.01710
2992.92578,0.01728
2991.89551,0.01730
2990.86525,0.01754
2989.83498,0.01801
2988.80471,0.01846
2987.77445,0.01909
2986.74418,0.01979
2985.71391,0.02014
2984.68364,0.02054
2983.65338,0.02137
2982.62311,0.02229
2981.59284,0.02314
2980.56258,0.02417
2979.53231,0.02532
2978.50204,0.02647
2977.47178,0.02759
2976.44151,0.02862
2975.41124,0.02984
2974.38097,0.03145
2973.35071,0.03292
2972.32044,0.03398
2971.29017,0.03491
2970.25991,0.03613
2969.22964,0.03788
2968.19937,0.03979
2967.16910,0.04136
2966.13884,0.04263
2965.10857,0.04388
2964.07830,0.04528
2963.04804,0.04707
2962.01777,0.04907
2960.98750,0.05060
2959.95724,0.05198
2958.92697,0.05374
2957.89670,0.05564
2956.86643,0.05770
2955.83617,0.05974
2954.80590,0.06118
2953.77563,0.06229
2952.74537,0.06352
2951.71510,0.06469
2950.68483,0.06595
2949.65456,0.06740
2948.62430,0.06856
2947.59403,0.06927
2946.56376,0.07001
2945.53350,0.07085
2944.50323,0.07180
2943.47296,0.07293
2942.44270,0.07387
2941.41243,0.07446
2940.38216,0.07495
2939.35189,0.07556
2938.32163,0.07638
2937.29136,0.07727
2936.26109,0.07808
2935.23083,0.07875
2934.20056,0.07946
2933.17029,0.08054
2932.14002,0.08169
2931.10976,0.08247
2930.07949,0.08332
2929.04922,0.08443
2928.01896,0.08568
2926.98869,0.08689
2925.95842,0.08798
2924.92816,0.08921
2923.89789,0.09064
2922.86762,0.09196
2921.83735,0.09313
2920.80709,0.09424
2919.77682,0.09539
2918.74655,0.09690
2917.71629,0.09848
2916.68602,0.09955
2915.65575,0.10038
2914.62549,0.10135
2913.59522,0.10242
2912.56495,0.10345
2911.53468,0.10413
2910.50442,0.10460
2909.47415,0.10523
2908.44388,0.10600
2907.41362,0.10651
2906.38335,0.10672
2905.35308,0.10710
2904.32281,0.10774
2903.29255,0.10833
2902.26228,0.10881
2901.23201,0.10908
2900.20175,0.10934
2899.17148,0.10999
2898.14121,0.11070
2897.11095,0.11117
2896.08068,0.11184
2895.05041,0.11268
2894.02014,0.11326
2892.98988,0.11348
2891.95961,0.11374
2890.92934,0.11477
2889.89908,0.11630
2888.86881,0.11758
2887.83854,0.11869
2886.80827,0.11978
2885.77801,0.12091
2884.74774,0.12242
2883.71747,0.12420
2882.68721,0.12591
2881.65694,0.12735
2880.62667,0.12844
2879.59641,0.12955
2878.56614,0.13070
2877.53587,0.13145
2876.50560,0.13200
2875.47534,0.13264
2874.44507,0.13303
2873.41480,0.13314
2872.38454,0.13326
2871.35427,0.13317
2870.32400,0.13268
2869.29373,0.13201
2868.26347,0.13105
2867.23320,0.12976
2866.20293,0.12805
2865.17267,0.12570
2864.14240,0.12310
2863.11213,0.12047
2862.08187,0.11779
2861.05160,0.11526
2860.02133,0.11251
2858.99106,0.10916
2857.96080,0.10554
2856.93053,0.10201
2855.90026,0.09865
2854.87000,0.09546
2853.83973,0.09216
2852.80946,0.08882
2851.77919,0.08571
2850.74893,0.08270
2849.71866,0.07963
2848.68839,0.07673
2847.65813,0.07422
2846.62786,0.07189
2845.59759,0.06972
2844.56733,0.06784
2843.53706,0.06593
2842.50679,0.06382
2841.47652,0.06153
2840.44626,0.05918
2839.41599,0.05726
2838.38572,0.05596
2837.35546,0.05478
2836.32519,0.05335
2835.29492,0.05197
2834.26466,0.05091
2833.23439,0.04995
2832.20412,0.04883
2831.17385,0.04762
2830.14359,0.04659
2829.11332,0.04576
2828.08305,0.04502
2827.05279,0.04436
2826.02252,0.04374
2824.99225,0.04298
2823.96198,0.04192
2822.93172,0.04093
2821.90145,0.04025
2820.87118,0.03958
2819.84092,0.03907
2818.81065,0.03870
2817.78038,0.03807
2816.75012,0.03735
2815.71985,0.03673
2814.68958,0.03602
2813.65931,0.03537
2812.62905,0.03480
2811.59878,0.03416
2810.56851,0.03356
2809.53825,0.03309
2808.50798,0.03248
2807.47771,0.03167
2806.44744,0.03105
2805.41718,0.03061
2804.38691,0.03013
2803.35664,0.02948
2802.32638,0.02861
2801.29611,0.02805
2800.26584,0.02792
2799.23558,0.02776
2798.20531,0.02732
2797.17504,0.02665
2796.14477,0.02586
2795.11451,0.02505
2794.08424,0.02453
2793.05397,0.02428
2792.02371,0.02385
2790.99344,0.02337
2789.96317,0.02307
2788.93290,0.02294
2787.90264,0.02274
2786.87237,0.02222
2785.84210,0.02167
2784.81184,0.02135
2783.78157,0.02097
2782.75130,0.02045
2781.72104,0.02027
2780.69077,0.02033
2779.66050,0.02005
2778.63023,0.01946
2777.59997,0.01905
2776.56970,0.01897
2775.53943,0.01897
2774.50917,0.01893
2773.47890,0.01877
2772.44863,0.01849
2771.41837,0.01816
2770.38810,0.01775
2769.35783,0.01738
2768.32756,0.01717
2767.29730,0.01687
2766.26703,0.01655
2765.23676,0.01661
2764.20650,0.01684
2763.17623,0.01682
2762.14596,0.01672
2761.11569,0.01665
2760.08543,0.01647
2759.05516,0.01627
2758.02489,0.01628
2756.99463,0.01649
2755.96436,0.01670
2754.93409,0.01679
2753.90383,0.01664
2752.87356,0.01642
2751.84329,0.01644
2750.81302,0.01654
2749.78276,0.01654
2748.75249,0.01641
2747.72222,0.01621
2746.69196,0.01596
2745.66169,0.01580
2744.63142,0.01595
2743.60115,0.01620
2742.57089,0.01609
2741.54062,0.01579
2740.51035,0.01562
2739.48009,0.01549
2738.44982,0.01540
2737.41955,0.01534
2736.38929,0.01523
2735.35902,0.01513
2734.32875,0.01498
2733.29848,0.01472
2732.26822,0.01456
2731.23795,0.01453
2730.20768,0.01429
2729.17742,0.01395
2728.14715,0.01387
2727.11688,0.01387
2726.08661,0.01379
2725.05635,0.01368
2724.02608,0.01355
2722.99581,0.01336
2721.96555,0.01312
2720.93528,0.01295
2719.90501,0.01296
2718.87475,0.01288
2717.84448,0.01256
2716.81421,0.01235
2715.78394,0.01219
2714.75368,0.01203
2713.72341,0.01215
2712.69314,0.01231
2711.66288,0.01221
2710.63261,0.01212
2709.60234,0.01210
2708.57207,0.01192
2707.54181,0.01173
2706.51154,0.01148
2705.48127,0.01108
2704.45101,0.01091
2703.42074,0.01083
2702.39047,0.01063
2701.36021,0.01064
2700.32994,0.01066
2699.29967,0.01060
2698.26940,0.01070
2697.23914,0.01065
2696.20887,0.01029
2695.17860,0.00983
2694.14834,0.00953
2693.11807,0.00947
2692.08780,0.00946
2691.05754,0.00937
2690.02727,0.00914
2688.99700,0.00885
2687.96673,0.00859
2686.93647,0.00838
2685.90620,0.00813
2684.87593,0.00793
2683.84567,0.00797
2682.81540,0.00798
2681.78513,0.00785
2680.75486,0.00789
2679.72460,0.00782
2678.69433,0.00746
2677.66406,0.00733
2676.63380,0.00747
2675.60353,0.00744
2674.57326,0.00730
2673.54300,0.00722
2672.51273,0.00713
2671.48246,0.00708
2670.45219,0.00690
2669.42193,0.00661
2668.39166,0.00664
2667.36139,0.00688
2666.33113,0.00681
2665.30086,0.00650
2664.27059,0.00638
2663.24032,0.00660
2662.21006,0.00686
2661.17979,0.00669
2660.14952,0.00623
2659.11926,0.00600
2658.08899,0.00616
2657.05872,0.00644
2656.02846,0.00663
2654.99819,0.00660
2653.96792,0.00630
2652.93765,0.00598
2651.90739,0.00581
2650.87712,0.00574
2649.84685,0.00559
2648.81659,0.00541
2647.78632,0.00548
2646.75605,0.00563
2645.72578,0.00558
2644.69552,0.00557
2643.66525,0.00573
2642.63498,0.00582
2641.60472,0.00560
2640.57445,0.00523
2639.54418,0.00518
2638.51392,0.00557
2637.48365,0.00605
2636.45338,0.00620
2635.42311,0.00591
2634.39285,0.00571
2633.36258,0.00591
2632.33231,0.00601
2631.30205,0.00563
2630.27178,0.00522
2629.24151,0.00518
2628.21125,0.00535
2627.18098,0.00558
2626.15071,0.00577
2625.12044,0.00568
2624.09018,0.00505
2623.05991,0.00430
2622.02964,0.00418
2620.99938,0.00467
2619.96911,0.00528
2618.93884,0.00543
2617.90857,0.00518
2616.87831,0.00495
2615.84804,0.00460
2614.81777,0.00431
2613.78751,0.00458
2612.75724,0.00496
2611.72697,0.00506
2610.69671,0.00517
2609.66644,0.00517
2608.63617,0.00521
2607.60590,0.00547
2606.57564,0.00528
2605.54537,0.00483
2604.51510,0.00503
2603.48484,0.00535
2602.45457,0.00497
2601.42430,0.00476
2600.39403,0.00520
2599.36377,0.00524
2598.33350,0.00475
2597.30323,0.00452
2596.27297,0.00459
2595.24270,0.00488
2594.21243,0.00518
2593.18217,0.00507
2592.15190,0.00462
2591.12163,0.00420
2590.09136,0.00405
2589.06110,0.00427
2588.03083,0.00470
2587.00056,0.00486
2585.97030,0.00465
2584.94003,0.00445
2583.90976,0.00437
2582.87949,0.00444
2581.84923,0.00463
2580.81896,0.00477
2579.78869,0.00457
2578.75843,0.00395
2577.72816,0.00358
2576.69789,0.00380
2575.66763,0.00422
2574.63736,0.00468
2573.60709,0.00498
2572.57682,0.00491
2571.54656,0.00463
2570.51629,0.00441
2569.48602,0.00414
2568.45576,0.00372
2567.42549,0.00353
2566.39522,0.00388
2565.36496,0.00460
2564.33469,0.00488
2563.30442,0.00435
2562.27415,0.00377
2561.24389,0.00350
2560.21362,0.00347
2559.18335,0.00348
2558.15309,0.00323
2557.12282,0.00318
2556.09255,0.00389
2555.06228,0.00481
2554.03202,0.00510
2553.00175,0.00485
2551.97148,0.00444
2550.94122,0.00427
2549.91095,0.00439
2548.88068,0.00442
2547.85042,0.00463
2546.82015,0.00486
2545.78988,0.00460
2544.75961,0.00428
2543.72935,0.00430
2542.69908,0.00431
2541.66881,0.00405
2540.63855,0.00389
2539.60828,0.00413
2538.57801,0.00450
2537.54774,0.00461
2536.51748,0.00472
2535.48721,0.00511
2534.45694,0.00537
2533.42668,0.00516
2532.39641,0.00483
2531.36614,0.00460
2530.33588,0.00446
2529.30561,0.00456
2528.27534,0.00455
2527.24507,0.00417
2526.21481,0.00387
2525.18454,0.00410
2524.15427,0.00463
2523.12401,0.00465
2522.09374,0.00429
2521.06347,0.00409
2520.03320,0.00387
2519.00294,0.00362
2517.97267,0.00382
2516.94240,0.00461
2515.91214,0.00546
2514.88187,0.00567
2513.85160,0.00504
2512.82134,0.00440
2511.79107,0.00448
2510.76080,0.00473
2509.73053,0.00466
2508.70027,0.00452
2507.67000,0.00462
2506.63973,0.00492
2505.60947,0.00501
2504.57920,0.00473
2503.54893,0.00431
2502.51866,0.00397
2501.48840,0.00370
2500.45813,0.00365
2499.42786,0.00386
2498.39760,0.00392
2497.36733,0.00381
2496.33706,0.00380
2495.30680,0.00377
2494.27653,0.00360
2493.24626,0.00366
2492.21599,0.00401
2491.18573,0.00403
2490.15546,0.00375
2489.12519,0.00391
2488.09493,0.00430
2487.06466,0.00441
2486.03439,0.00435
2485.00413,0.00412
2483.97386,0.00357
2482.94359,0.00308
2481.91332,0.00308
2480.88306,0.00335
2479.85279,0.00364
2478.82252,0.00394
2477.79226,0.00388
2476.76199,0.00372
2475.73172,0.00372
2474.70145,0.00359
2473.67119,0.00361
2472.64092,0.00407
2471.61065,0.00452
2470.58039,0.00457
2469.55012,0.00430
2468.51985,0.00413
2467.48959,0.00408
2466.45932,0.00409
2465.42905,0.00423
2464.39878,0.00430
2463.36852,0.00425
2462.33825,0.00426
2461.30798,0.00437
2460.27772,0.00463
2459.24745,0.00490
2458.21718,0.00498
2457.18691,0.00479
2456.15665,0.00443
2455.12638,0.00445
2454.09611,0.00458
2453.06585,0.00422
2452.03558,0.00367
2451.00531,0.00343
2449.97505,0.00387
2448.94478,0.00444
2447.91451,0.00433
2446.88424,0.00397
2445.85398,0.00401
2444.82371,0.00427
2443.79344,0.00456
2442.76318,0.00485
2441.73291,0.00482
2440.70264,0.00435
2439.67237,0.00407
2438.64211,0.00434
2437.61184,0.00448
2436.58157,0.00412
2435.55131,0.00389
2434.52104,0.00425
2433.49077,0.00467
2432.46051,0.00473
2431.43024,0.00466
2430.39997,0.00463
2429.36970,0.00461
2428.33944,0.00479
2427.30917,0.00491
2426.27890,0.00474
2425.24864,0.00502
2424.21837,0.00572
2423.18810,0.00596
2422.15784,0.00558
2421.12757,0.00496
2420.09730,0.00445
2419.06703,0.00416
2418.03677,0.00414
2417.00650,0.00427
2415.97623,0.00431
2414.94597,0.00413
2413.91570,0.00398
2412.88543,0.00431
2411.85516,0.00481
2410.82490,0.00499
2409.79463,0.00497
2408.76436,0.00483
2407.73410,0.00471
2406.70383,0.00457
2405.67356,0.00442
2404.64330,0.00435
2403.61303,0.00427
2402.58276,0.00446
2401.55249,0.00488
2400.52223,0.00516
2399.49196,0.00533
2398.46169,0.00549
2397.43143,0.00546
2396.40116,0.00511
2395.37089,0.00486
2394.34062,0.00496
2393.31036,0.00498
2392.28009,0.00499
2391.24982,0.00536
2390.21956,0.00547
2389.18929,0.00492
2388.15902,0.00455
2387.12876,0.00471
2386.09849,0.00460
2385.06822,0.00400
2384.03795,0.00375
2383.00769,0.00390
2381.97742,0.00392
2380.94715,0.00399
2379.91689,0.00458
2378.88662,0.00553
2377.85635,0.00609
2376.82608,0.00564
2375.79582,0.00478
2374.76555,0.00476
2373.73528,0.00531
2372.70502,0.00581
2371.67475,0.00629
2370.64448,0.00626
2369.61422,0.00618
2368.58395,0.00677
2367.55368,0.00711
2366.52341,0.00631
2365.49315,0.00524
2364.46288,0.00541
2363.43261,0.00644
2362.40235,0.00710
2361.37208,0.00678
2360.34181,0.00559
2359.31154,0.00505
2358.28128,0.00560
2357.25101,0.00612
2356.22074,0.00598
2355.19048,0.00538
2354.16021,0.00509
2353.12994,0.00520
2352.09968,0.00546
2351.06941,0.00601
2350.03914,0.00648
2349.00887,0.00627
2347.97861,0.00578
2346.94834,0.00586
2345.91807,0.00647
2344.88781,0.00702
2343.85754,0.00761
2342.82727,0.00787
2341.79701,0.00730
2340.76674,0.00676
2339.73647,0.00658
2338.70620,0.00629
2337.67594,0.00604
2336.64567,0.00581
2335.61540,0.00559
2334.58514,0.00590
2333.55487,0.00657
2332.52460,0.00692
2331.49433,0.00642
2330.46407,0.00554
2329.43380,0.00573
2328.40353,0.00674
2327.37327,0.00671
2326.34300,0.00571
2325.31273,0.00512
2324.28247,0.00566
2323.25220,0.00682
2322.22193,0.00733
2321.19166,0.00697
2320.16140,0.00646
2319.13113,0.00626
2318.10086,0.00600
2317.07060,0.00543
2316.04033,0.00511
2315.01006,0.00526
2313.97979,0.00515
2312.94953,0.00482
2311.91926,0.00497
2310.88899,0.00537
2309.85873,0.00587
2308.82846,0.00643
2307.79819,0.00647
2306.76793,0.00600
2305.73766,0.00581
2304.70739,0.00581
2303.67712,0.00589
2302.64686,0.00623
2301.61659,0.00629
2300.58632,0.00594
2299.55606,0.00547
2298.52579,0.00482
2297.49552,0.00425
2296.46525,0.00420
2295.43499,0.00443
2294.40472,0.00466
2293.37445,0.00515
2292.34419,0.00571
2291.31392,0.00607
2290.28365,0.00617
2289.25339,0.00556
2288.22312,0.00473
2287.19285,0.00450
2286.16258,0.00480
2285.13232,0.00555
2284.10205,0.00630
2283.07178,0.00649
2282.04152,0.00616
2281.01125,0.00557
2279.98098,0.00513
2278.95072,0.00508
2277.92045,0.00500
2276.89018,0.00488
2275.85991,0.00514
2274.82965,0.00551
2273.79938,0.00594
2272.76911,0.00665
2271.73885,0.00694
2270.70858,0.00613
2269.67831,0.00529
2268.64804,0.00537
2267.61778,0.00559
2266.58751,0.00520
2265.55724,0.00435
2264.52698,0.00401
2263.49671,0.00446
2262.46644,0.00478
2261.43618,0.00484
2260.40591,0.00485
2259.37564,0.00457
2258.34537,0.00448
2257.31511,0.00504
2256.28484,0.00580
2255.25457,0.00599
2254.22431,0.00571
2253.19404,0.00554
2252.16377,0.00540
2251.13350,0.00546
2250.10324,0.00537
2249.07297,0.00483
2248.04270,0.00490
2247.01244,0.00551
2245.98217,0.00571
2244.95190,0.00532
2243.92164,0.00481
2242.89137,0.00458
2241.86110,0.00433
2240.83083,0.00395
2239.80057,0.00394
2238.77030,0.00448
2237.74003,0.00478
2236.70977,0.00483
2235.67950,0.00536
2234.64923,0.00580
2233.61896,0.00525
2232.58870,0.00398
2231.55843,0.00363
2230.52816,0.00447
2229.49790,0.00483
2228.46763,0.00429
2227.43736,0.00388
2226.40710,0.00461
2225.37683,0.00598
2224.34656,0.00666
2223.31629,0.00672
2222.28603,0.00663
2221.25576,0.00617
2220.22549,0.00521
2219.19523,0.00415
2218.16496,0.00366
2217.13469,0.00372
2216.10442,0.00333
2215.07416,0.00239
2214.04389,0.00263
2213.01362,0.00449
2211.98336,0.00612
2210.95309,0.00627
2209.92282,0.00526
2208.89256,0.00467
2207.86229,0.00507
2206.83202,0.00531
2205.80175,0.00502
2204.77149,0.00479
2203.74122,0.00502
2202.71095,0.00488
2201.68069,0.00468
2200.65042,0.00576
2199.62015,0.00639
2198.58989,0.00514
2197.55962,0.00364
2196.52935,0.00298
2195.49908,0.00302
2194.46882,0.00293
2193.43855,0.00223
2192.40828,0.00261
2191.37802,0.00449
2190.34775,0.00645
2189.31748,0.00788
2188.28721,0.00797
2187.25695,0.00635
2186.22668,0.00502
2185.19641,0.00549
2184.16615,0.00557
2183.13588,0.00487
2182.10561,0.00542
2181.07535,0.00610
2180.04508,0.00583
2179.01481,0.00501
2177.98454,0.00363
2176.95428,0.00164
2175.92401,0.00054
2174.89374,0.00166
2173.86348,0.00307
2172.83321,0.00387
2171.80294,0.00477
2170.77267,0.00512
2169.74241,0.00456
2168.71214,0.00378
2167.68187,0.00232
2166.65161,0.00006
2165.62134,0.00046
2164.59107,0.00359
2163.56081,0.00433
2162.53054,0.00288
2161.50027,0.00272
2160.47000,0.00337
2159.43974,0.00372
2158.40947,0.00439
2157.37920,0.00463
2156.34894,0.00275
2155.31867,0.00034
2154.28840,0.00043
2153.25813,0.00179
2152.22787,0.00255
2151.19760,0.00321
2150.16733,0.00309
2149.13707,0.00228
2148.10680,0.00274
2147.07653,0.00435
2146.04627,0.00563
2145.01600,0.00624
2143.98573,0.00629
2142.95546,0.00644
2141.92520,0.00713
2140.89493,0.00742
2139.86466,0.00751
2138.83440,0.00788
2137.80413,0.00805
2136.77386,0.00850
2135.74360,0.00944
2134.71333,0.00935
2133.68306,0.00775
2132.65279,0.00651
2131.62253,0.00629
2130.59226,0.00690
2129.56199,0.00834
2128.53173,0.00899
2127.50146,0.00858
2126.47119,0.00858
2125.44092,0.00914
2124.41066,0.00915
2123.38039,0.00846
2122.35012,0.00840
2121.31986,0.00927
2120.28959,0.00956
2119.25932,0.00856
2118.22906,0.00769
2117.19879,0.00809
2116.16852,0.00910
2115.13825,0.00976
2114.10799,0.00999
2113.07772,0.00973
2112.04745,0.00885
2111.01719,0.00849
2109.98692,0.00894
2108.95665,0.00906
2107.92638,0.00865
2106.89612,0.00827
2105.86585,0.00848
2104.83558,0.00879
2103.80532,0.00866
2102.77505,0.00842
2101.74478,0.00841
2100.71452,0.00916
2099.68425,0.01006
2098.65398,0.01040
2097.62371,0.01073
2096.59345,0.01066
2095.56318,0.00959
2094.53291,0.00855
2093.50265,0.00813
2092.47238,0.00837
2091.44211,0.00926
2090.41184,0.01001
2089.38158,0.01025
2088.35131,0.01014
2087.32104,0.00977
2086.29078,0.00924
2085.26051,0.00862
2084.23024,0.00819
2083.19998,0.00815
2082.16971,0.00773
2081.13944,0.00640
2080.10917,0.00537
2079.07891,0.00563
2078.04864,0.00723
2077.01837,0.00890
2075.98811,0.00930
2074.95784,0.00978
2073.92757,0.01058
2072.89731,0.00956
2071.86704,0.00704
2070.83677,0.00564
2069.80650,0.00581
2068.77624,0.00589
2067.74597,0.00612
2066.71570,0.00700
2065.68544,0.00706
2064.65517,0.00638
2063.62490,0.00644
2062.59463,0.00696
2061.56437,0.00761
2060.53410,0.00843
2059.50383,0.00821
2058.47357,0.00691
2057.44330,0.00616
2056.41303,0.00596
2055.38277,0.00569
2054.35250,0.00640
2053.32223,0.00721
2052.29196,0.00688
2051.26170,0.00728
2050.23143,0.00881
2049.20116,0.00932
2048.17090,0.00833
2047.14063,0.00761
2046.11036,0.00799
2045.08009,0.00830
2044.04983,0.00801
2043.01956,0.00848
2041.98929,0.01001
2040.95903,0.01011
2039.92876,0.00826
2038.89849,0.00732
2037.86823,0.00869
2036.83796,0.01029
2035.80769,0.01027
2034.77742,0.00938
2033.74716,0.00841
2032.71689,0.00725
2031.68662,0.00536
2030.65636,0.00288
2029.62609,0.00196
2028.59582,0.00336
2027.56555,0.00526
2026.53529,0.00651
2025.50502,0.00690
2024.47475,0.00638
2023.44449,0.00458
2022.41422,0.00297
2021.38395,0.00400
2020.35369,0.00611
2019.32342,0.00722
2018.29315,0.00743
2017.26288,0.00665
2016.23262,0.00604
2015.20235,0.00665
2014.17208,0.00736
2013.14182,0.00718
2012.11155,0.00645
2011.08128,0.00575
2010.05101,0.00495
2009.02075,0.00512
2007.99048,0.00687
2006.96021,0.00776
2005.92995,0.00674
2004.89968,0.00586
2003.86941,0.00700
2002.83915,0.00802
2001.80888,0.00689
2000.77861,0.00621
1999.74834,0.00634
1998.71808,0.00552
1997.68781,0.00476
1996.65754,0.00538
1995.62728,0.00679
1994.59701,0.00770
1993.56674,0.00735
1992.53648,0.00573
1991.50621,0.00536
1990.47594,0.00712
1989.44567,0.00753
1988.41541,0.00652
1987.38514,0.00708
1986.35487,0.00922
1985.32461,0.01041
1984.29434,0.01024
1983.26407,0.01091
1982.23380,0.01221
1981.20354,0.01136
1980.17327,0.00758
1979.14300,0.00433
1978.11274,0.00497
1977.08247,0.00708
1976.05220,0.00776
1975.02194,0.00730
1973.99167,0.00645
1972.96140,0.00659
1971.93113,0.00764
1970.90087,0.00800
1969.87060,0.00822
1968.84033,0.00862
1967.81007,0.00792
1966.77980,0.00724
1965.74953,0.00745
1964.71926,0.00667
1963.68900,0.00552
1962.65873,0.00587
1961.62846,0.00711
1960.59820,0.00772
1959.56793,0.00760
1958.53766,0.00753
1957.50740,0.00714
1956.47713,0.00655
1955.44686,0.00688
1954.41659,0.00798
1953.38633,0.00845
1952.35606,0.00826
1951.32579,0.00881
1950.29553,0.00953
1949.26526,0.00941
1948.23499,0.00923
1947.20472,0.00942
1946.17446,0.00956
1945.14419,0.00969
1944.11392,0.00970
1943.08366,0.00930
1942.05339,0.00986
1941.02312,0.01125
1939.99286,0.01125
1938.96259,0.01025
1937.93232,0.00998
1936.90205,0.01034
1935.87179,0.01030
1934.84152,0.00984
1933.81125,0.00980
1932.78099,0.01019
1931.75072,0.01013
1930.72045,0.00951
1929.69019,0.00911
1928.65992,0.00897
1927.62965,0.00850
1926.59938,0.00838
1925.56912,0.00939
1924.53885,0.01002
1923.50858,0.00922
1922.47832,0.00805
1921.44805,0.00761
1920.41778,0.00795
1919.38751,0.00824
1918.35725,0.00805
1917.32698,0.00760
1916.29671,0.00703
1915.26645,0.00693
1914.23618,0.00726
1913.20591,0.00737
1912.17565,0.00753
1911.14538,0.00814
1910.11511,0.00832
1909.08484,0.00761
1908.05458,0.00692
1907.02431,0.00663
1905.99404,0.00615
1904.96378,0.00533
1903.93351,0.00519
1902.90324,0.00618
1901.87297,0.00716
1900.84271,0.00722
1899.81244,0.00653
1898.78217,0.00600
1897.75191,0.00615
1896.72164,0.00628
1895.69137,0.00586
1894.66111,0.00547
1893.63084,0.00544
1892.60057,0.00535
1891.57030,0.00515
1890.54004,0.00504
1889.50977,0.00528
1888.47950,0.00588
1887.44924,0.00643
1886.41897,0.00665
1885.38870,0.00658
1884.35843,0.00629
1883.32817,0.00580
1882.29790,0.00520
1881.26763,0.00492
1880.23737,0.00525
1879.20710,0.00578
1878.17683,0.00582
1877.14657,0.00558
1876.11630,0.00569
1875.08603,0.00582
1874.05576,0.00559
1873.02550,0.00543
1871.99523,0.00550
1870.96496,0.00535
1869.93470,0.00493
1868.90443,0.00493
1867.87416,0.00508
1866.84389,0.00484
1865.81363,0.00507
1864.78336,0.00558
1863.75309,0.00535
1862.72283,0.00483
1861.69256,0.00487
1860.66229,0.00533
1859.63203,0.00558
1858.60176,0.00556
1857.57149,0.00548
1856.54122,0.00524
1855.51096,0.00502
1854.48069,0.00513
1853.45042,0.00552
1852.42016,0.00573
1851.38989,0.00556
1850.35962,0.00529
1849.32936,0.00528
1848.29909,0.00525
1847.26882,0.00494
1846.23855,0.00482
1845.20829,0.00502
1844.17802,0.00520
1843.14775,0.00519
1842.11749,0.00523
1841.08722,0.00524
1840.05695,0.00517
1839.02668,0.00517
1837.99642,0.00538
1836.96615,0.00550
1835.93588,0.00533
1834.90562,0.00539
1833.87535,0.00567
1832.84508,0.00571
1831.81482,0.00563
1830.78455,0.00565
1829.75428,0.00570
1828.72401,0.00551
1827.69375,0.00516
1826.66348,0.00505
1825.63321,0.00549
1824.60295,0.00613
1823.57268,0.00638
1822.54241,0.00637
1821.51214,0.00617
1820.48188,0.00570
1819.45161,0.00549
1818.42134,0.00596
1817.39108,0.00650
1816.36081,0.00663
1815.33054,0.00642
1814.30028,0.00600
1813.27001,0.00551
1812.23974,0.00526
1811.20947,0.00557
1810.17921,0.00613
1809.14894,0.00630
1808.11867,0.00633
1807.08841,0.00665
1806.05814,0.00698
1805.02787,0.00705
1803.99760,0.00693
1802.96734,0.00675
1801.93707,0.00662
1800.90680,0.00668
1799.87654,0.00692
1798.84627,0.00715
1797.81600,0.00717
1796.78574,0.00700
1795.75547,0.00689
1794.72520,0.00694
1793.69493,0.00686
1792.66467,0.00652
1791.63440,0.00667
1790.60413,0.00732
1789.57387,0.00770
1788.54360,0.00775
1787.51333,0.00769
1786.48307,0.00757
1785.45280,0.00737
1784.42253,0.00723
1783.39226,0.00720
1782.36200,0.00709
1781.33173,0.00693
1780.30146,0.00700
1779.27120,0.00732
1778.24093,0.00765
1777.21066,0.00794
1776.18039,0.00812
1775.15013,0.00806
1774.11986,0.00806
1773.08959,0.00838
1772.05933,0.00866
1771.02906,0.00860
1769.99879,0.00837
1768.96853,0.00824
1767.93826,0.00831
1766.90799,0.00845
1765.87772,0.00854
1764.84746,0.00853
1763.81719,0.00856
1762.78692,0.00869
1761.75666,0.00857
1760.72639,0.00850
1759.69612,0.00884
1758.66585,0.00905
1757.63559,0.00887
1756.60532,0.00857
1755.57505,0.00848
1754.54479,0.00870
1753.51452,0.00917
1752.48425,0.00965
1751.45399,0.00984
1750.42372,0.00971
1749.39345,0.00969
1748.36318,0.00972
1747.33292,0.00962
1746.30265,0.00958
1745.27238,0.00967
1744.24212,0.00977
1743.21185,0.00982
1742.18158,0.00983
1741.15131,0.00994
1740.12105,0.01014
1739.09078,0.01035
1738.06051,0.01067
1737.03025,0.01109
1735.99998,0.01138
1734.96971,0.01132
1733.93945,0.01120
1732.90918,0.01146
1731.87891,0.01176
1730.84864,0.01200
1729.81838,0.01238
1728.78811,0.01280
1727.75784,0.01286
1726.72758,0.01263
1725.69731,0.01263
1724.66704,0.01309
1723.63677,0.01376
1722.60651,0.01413
1721.57624,0.01413
1720.54597,0.01429
1719.51571,0.01488
1718.48544,0.01556
1717.45517,0.01596
1716.42491,0.01598
1715.39464,0.01615
1714.36437,0.01678
1713.33410,0.01727
1712.30384,0.01736
1711.27357,0.01755
1710.24330,0.01793
1709.21304,0.01828
1708.18277,0.01872
1707.15250,0.01946
1706.12224,0.02015
1705.09197,0.02050
1704.06170,0.02087
1703.03143,0.02128
1702.00117,0.02158
1700.97090,0.02203
1699.94063,0.02334
1698.91037,0.02454
1697.88010,0.02525
1696.84983,0.02593
1695.81956,0.02656
1694.78930,0.02708
1693.75903,0.02780
1692.72876,0.02876
1691.69850,0.02990
1690.66823,0.03129
1689.63796,0.03245
1688.60770,0.03314
1687.57743,0.03386
1686.54716,0.03480
1685.51689,0.03619
1684.48663,0.03848
1683.45636,0.04014
1682.42609,0.04092
1681.39583,0.04206
1680.36556,0.04356
1679.33529,0.04510
1678.30502,0.04651
1677.27476,0.04768
1676.24449,0.04876
1675.21422,0.05037
1674.18396,0.05225
1673.15369,0.05398
1672.12342,0.05579
1671.09316,0.05747
1670.06289,0.05896
1669.03262,0.06054
1668.00235,0.06219
1666.97209,0.06392
1665.94182,0.06561
1664.91155,0.06704
1663.88129,0.06859
1662.85102,0.07043
1661.82075,0.07216
1660.79048,0.07376
1659.76022,0.07543
1658.72995,0.07713
1657.69968,0.07869
1656.66942,0.07994
1655.63915,0.08103
1654.60888,0.08232
1653.57862,0.08377
1652.54835,0.08470
1651.51808,0.08534
1650.48781,0.08615
1649.45755,0.08714
1648.42728,0.08806
1647.39701,0.08856
1646.36675,0.08881
1645.33648,0.08880
1644.30621,0.08850
1643.27595,0.08811
1642.24568,0.08784
1641.21541,0.08766
1640.18514,0.08744
1639.15488,0.08707
1638.12461,0.08631
1637.09434,0.08556
1636.06408,0.08484
1635.03381,0.08305
1634.00354,0.08144
1632.97327,0.08068
1631.94301,0.07976
1630.91274,0.07846
1629.88247,0.07701
1628.85221,0.07551
1627.82194,0.07363
1626.79167,0.07164
1625.76141,0.07008
1624.73114,0.06868
1623.70087,0.06681
1622.67060,0.06454
1621.64034,0.06252
1620.61007,0.06058
1619.57980,0.05872
1618.54954,0.05718
1617.51927,0.05545
1616.48900,0.05292
1615.45873,0.05092
1614.42847,0.04950
1613.39820,0.04792
1612.36793,0.04630
1611.33767,0.04484
1610.30740,0.04339
1609.27713,0.04183
1608.24687,0.04047
1607.21660,0.03929
1606.18633,0.03815
1605.15606,0.03702
1604.12580,0.03593
1603.09553,0.03488
1602.06526,0.03393
1601.03500,0.03303
1600.00473,0.03221
1598.97446,0.03140
1597.94419,0.03053
1596.91393,0.02978
1595.88366,0.02914
1594.85339,0.02856
1593.82313,0.02792
1592.79286,0.02720
1591.76259,0.02651
1590.73233,0.02593
1589.70206,0.02548
1588.67179,0.02502
1587.64152,0.02450
1586.61126,0.02400
1585.58099,0.02352
1584.55072,0.02300
1583.52046,0.02244
1582.49019,0.02196
1581.45992,0.02159
1580.42966,0.02124
1579.39939,0.02107
1578.36912,0.02102
1577.33885,0.02098
1576.30859,0.02082
1575.27832,0.02041
1574.24805,0.02000
1573.21779,0.01957
1572.18752,0.01916
1571.15725,0.01897
1570.12698,0.01894
1569.09672,0.01875
1568.06645,0.01858
1567.03618,0.01851
1566.00592,0.01841
1564.97565,0.01828
1563.94538,0.01815
1562.91512,0.01802
1561.88485,0.01802
1560.85458,0.01815
1559.82431,0.01828
1558.79405,0.01831
1557.76378,0.01765
1556.73351,0.01692
1555.70325,0.01668
1554.67298,0.01663
1553.64271,0.01666
1552.61244,0.01684
1551.58218,0.01684
1550.55191,0.01663
1549.52164,0.01650
1548.49138,0.01642
1547.46111,0.01640
1546.43084,0.01642
1545.40058,0.01635
1544.37031,0.01627
1543.34004,0.01650
1542.30977,0.01677
1541.27951,0.01676
1540.24924,0.01655
1539.21897,0.01581
1538.18871,0.01514
1537.15844,0.01516
1536.12817,0.01552
1535.09790,0.01597
1534.06764,0.01625
1533.03737,0.01629
1532.00710,0.01637
1530.97684,0.01643
1529.94657,0.01648
1528.91630,0.01661
1527.88604,0.01671
1526.85577,0.01674
1525.82550,0.01663
1524.79523,0.01646
1523.76497,0.01652
1522.73470,0.01669
1521.70443,0.01676
1520.67417,0.01694
1519.64390,0.01712
1518.61363,0.01718
1517.58336,0.01724
1516.55310,0.01725
1515.52283,0.01722
1514.49256,0.01716
1513.46230,0.01699
1512.43203,0.01683
1511.40176,0.01691
1510.37150,0.01734
1509.34123,0.01793
1508.31096,0.01831
1507.28069,0.01823
1506.25043,0.01792
1505.22016,0.01795
1504.18989,0.01820
1503.15963,0.01845
1502.12936,0.01867
1501.09909,0.01897
1500.06883,0.01936
1499.03856,0.01988
1498.00829,0.02058
1496.97802,0.02132
1495.94776,0.02235
1494.91749,0.02358
1493.88722,0.02494
1492.85696,0.02642
1491.82669,0.02789
1490.79642,0.02944
1489.76615,0.03090
1488.73589,0.03186
1487.70562,0.03265
1486.67535,0.03369
1485.64509,0.03474
1484.61482,0.03574
1483.58455,0.03692
1482.55429,0.03838
1481.52402,0.04020
1480.49375,0.04248
1479.46348,0.04526
1478.43322,0.04844
1477.40295,0.05185
1476.37268,0.05578
1475.34242,0.05959
1474.31215,0.06248
1473.28188,0.06527
1472.25161,0.06776
1471.22135,0.06884
1470.19108,0.06917
1469.16081,0.06963
1468.13055,0.07018
1467.10028,0.07065
1466.07001,0.07111
1465.03975,0.07162
1464.00948,0.07230
1462.97921,0.07317
1461.94894,0.07405
1460.91868,0.07477
1459.88841,0.07558
1458.85814,0.07674
1457.82788,0.07800
1456.79761,0.07869
1455.76734,0.07877
1454.73707,0.07858
1453.70681,0.07818
1452.67654,0.07748
1451.64627,0.07595
1450.61601,0.07361
1449.58574,0.07115
1448.55547,0.06881
1447.52521,0.06651
1446.49494,0.06458
1445.46467,0.06292
1444.43440,0.06139
1443.40414,0.06001
1442.37387,0.05843
1441.34360,0.05646
1440.31334,0.05429
1439.28307,0.05213
1438.25280,0.05030
1437.22254,0.04828
1436.19227,0.04529
1435.16200,0.04310
1434.13173,0.04189
1433.10147,0.04080
1432.07120,0.03972
1431.04093,0.03878
1430.01067,0.03785
1428.98040,0.03703
1427.95013,0.03665
1426.91986,0.03656
1425.88960,0.03632
1424.85933,0.03589
1423.82906,0.03542
1422.79880,0.03502
1421.76853,0.03482
1420.73826,0.03473
1419.70800,0.03467
1418.67773,0.03490
1417.64746,0.03518
1416.61719,0.03501
1415.58693,0.03462
1414.55666,0.03457
1413.52639,0.03474
1412.49613,0.03472
1411.46586,0.03450
1410.43559,0.03442
1409.40532,0.03457
1408.37506,0.03478
1407.34479,0.03488
1406.31452,0.03496
1405.28426,0.03508
1404.25399,0.03495
1403.22372,0.03465
1402.19346,0.03454
1401.16319,0.03473
1400.13292,0.03497
1399.10265,0.03510
1398.07239,0.03521
1397.04212,0.03545
1396.01185,0.03577
1394.98159,0.03593
1393.95132,0.03599
1392.92105,0.03606
1391.89078,0.03613
1390.86052,0.03630
1389.83025,0.03651
1388.79998,0.03671
1387.76972,0.03698
1386.73945,0.03731
1385.70918,0.03769
1384.67892,0.03813
1383.64865,0.03848
1382.61838,0.03878
1381.58811,0.03913
1380.55785,0.03951
1379.52758,0.04001
1378.49731,0.04071
1377.46705,0.04150
1376.43678,0.04233
1375.40651,0.04333
1374.37624,0.04442
1373.34598,0.04541
1372.31571,0.04644
1371.28544,0.04761
1370.25518,0.04878
1369.22491,0.05013
1368.19464,0.05184
1367.16438,0.05375
1366.13411,0.05578
1365.10384,0.05793
1364.07357,0.06037
1363.04331,0.06338
1362.01304,0.06656
1360.98277,0.06968
1359.95251,0.07314
1358.92224,0.07708
1357.89197,0.08140
1356.86171,0.08582
1355.83144,0.09045
1354.80117,0.09559
1353.77090,0.10114
1352.74064,0.10661
1351.71037,0.11152
1350.68010,0.11569
1349.64984,0.11899
1348.61957,0.12054
1347.58930,0.11896
1346.55903,0.11350
1345.52877,0.10433
1344.49850,0.09274
1343.46823,0.08091
1342.43797,0.07091
1341.40770,0.06350
1340.37743,0.05832
1339.34717,0.05507
1338.31690,0.05326
1337.28663,0.05228
1336.25636,0.05179
1335.22610,0.05178
1334.19583,0.05223
1333.16556,0.05282
1332.13530,0.05355
1331.10503,0.05455
1330.07476,0.05551
1329.04449,0.05588
1328.01423,0.05573
1326.98396,0.05541
1325.95369,0.05485
1324.92343,0.05387
1323.89316,0.05250
1322.86289,0.05105
1321.83263,0.04992
1320.80236,0.04910
1319.77209,0.04859
1318.74182,0.04856
1317.71156,0.04903
1316.68129,0.04997
1315.65102,0.05134
1314.62076,0.05300
1313.59049,0.05495
1312.56022,0.05713
1311.52995,0.05925
1310.49969,0.06166
1309.46942,0.06461
1308.43915,0.06754
1307.40889,0.07010
1306.37862,0.07244
1305.34835,0.07460
1304.31809,0.07659
1303.28782,0.07836
1302.25755,0.07982
1301.22728,0.08082
1300.19702,0.08133
1299.16675,0.08161
1298.13648,0.08181
1297.10622,0.08198
1296.07595,0.08224
1295.04568,0.08247
1294.01542,0.08230
1292.98515,0.08185
1291.95488,0.08142
1290.92461,0.08107
1289.89435,0.08083
1288.86408,0.08060
1287.83381,0.08022
1286.80355,0.07956
1285.77328,0.07868
1284.74301,0.07779
1283.71274,0.07688
1282.68248,0.07573
1281.65221,0.07430
1280.62194,0.07286
1279.59168,0.07160
1278.56141,0.07028
1277.53114,0.06866
1276.50088,0.06700
1275.47061,0.06577
1274.44034,0.06480
1273.41007,0.06372
1272.37981,0.06263
1271.34954,0.06170
1270.31927,0.06093
1269.28901,0.06059
1268.25874,0.06086
1267.22847,0.06159
1266.19820,0.06263
1265.16794,0.06386
1264.13767,0.06525
1263.10740,0.06709
1262.07714,0.06963
1261.04687,0.07262
1260.01660,0.07564
1258.98634,0.07847
1257.95607,0.08100
1256.92580,0.08359
1255.89553,0.08653
1254.86527,0.08937
1253.83500,0.09179
1252.80473,0.09390
1251.77447,0.09560
1250.74420,0.09676
1249.71393,0.09740
1248.68366,0.09740
1247.65340,0.09662
1246.62313,0.09529
1245.59286,0.09350
1244.56260,0.09116
1243.53233,0.08828
1242.50206,0.08503
1241.47180,0.08201
1240.44153,0.07939
1239.41126,0.07656
1238.38099,0.07341
1237.35073,0.07041
1236.32046,0.06777
1235.29019,0.06527
1234.25993,0.06270
1233.22966,0.06014
1232.19939,0.05767
1231.16912,0.05531
1230.13886,0.05320
1229.10859,0.05138
1228.07832,0.04975
1227.04806,0.04846
1226.01779,0.04742
1224.98752,0.04633
1223.95726,0.04528
1222.92699,0.04436
1221.89672,0.04345
1220.86645,0.04265
1219.83619,0.04205
1218.80592,0.04141
1217.77565,0.04069
1216.74539,0.03990
1215.71512,0.03888
1214.68485,0.03793
1213.65459,0.03732
1212.62432,0.03690
1211.59405,0.03646
1210.56378,0.03589
1209.53352,0.03533
1208.50325,0.03490
1207.47298,0.03456
1206.44272,0.03430
1205.41245,0.03404
1204.38218,0.03379
1203.35191,0.03366
1202.32165,0.03354
1201.29138,0.03333
1200.26111,0.03334
1199.23085,0.03359
1198.20058,0.03369
1197.17031,0.03343
1196.14005,0.03307
1195.10978,0.03298
1194.07951,0.03310
1193.04924,0.03332
1192.01898,0.03356
1190.98871,0.03380
1189.95844,0.03404
1188.92818,0.03413
1187.89791,0.03413
1186.86764,0.03435
1185.83737,0.03491
1184.80711,0.03557
1183.77684,0.03597
1182.74657,0.03614
1181.71631,0.03631
1180.68604,0.03659
1179.65577,0.03720
1178.62551,0.03812
1177.59524,0.03919
1176.56497,0.04034
1175.53470,0.04144
1174.50444,0.04235
1173.47417,0.04328
1172.44390,0.04444
1171.41364,0.04565
1170.38337,0.04687
1169.35310,0.04826
1168.32283,0.04996
1167.29257,0.05200
1166.26230,0.05441
1165.23203,0.05719
1164.20177,0.06042
1163.17150,0.06407
1162.14123,0.06804
1161.11097,0.07253
1160.08070,0.07768
1159.05043,0.08328
1158.02016,0.08912
1156.98990,0.09538
1155.95963,0.10230
1154.92936,0.10982
1153.89910,0.11781
1152.86883,0.12601
1151.83856,0.13403
1150.80830,0.14205
1149.77803,0.15027
1148.74776,0.15853
1147.71749,0.16686
1146.68723,0.17485
1145.65696,0.18203
1144.62669,0.18894
1143.59643,0.19627
1142.56616,0.20367
1141.53589,0.21013
1140.50562,0.21566
1139.47536,0.22103
1138.44509,0.22614
1137.41482,0.23064
1136.38456,0.23488
1135.35429,0.23928
1134.32402,0.24356
1133.29376,0.24739
1132.26349,0.25108
1131.23322,0.25456
1130.20295,0.25794
1129.17269,0.26168
1128.14242,0.26548
1127.11215,0.26938
1126.08189,0.27395
1125.05162,0.27900
1124.02135,0.28416
1122.99108,0.28973
1121.96082,0.29577
1120.93055,0.30159
1119.90028,0.30725
1118.87002,0.31343
1117.83975,0.31995
1116.80948,0.32638
1115.77922,0.33286
1114.74895,0.33952
1113.71868,0.34625
1112.68841,0.35312
1111.65815,0.36041
1110.62788,0.36772
1109.59761,0.37453
1108.56735,0.38142
1107.53708,0.38900
1106.50681,0.39674
1105.47654,0.40429
1104.44628,0.41200
1103.41601,0.41998
1102.38574,0.42830
1101.35548,0.43673
1100.32521,0.44472
1099.29494,0.45237
1098.26468,0.45990
1097.23441,0.46661
1096.20414,0.47197
1095.17387,0.47689
1094.14361,0.48247
1093.11334,0.48850
1092.08307,0.49321
1091.05281,0.49601
1090.02254,0.49846
1088.99227,0.50147
1087.96201,0.50386
1086.93174,0.50463
1085.90147,0.50492
1084.87120,0.50504
1083.84094,0.50327
1082.81067,0.50035
1081.78040,0.49803
1080.75014,0.49517
1079.71987,0.49096
1078.68960,0.48659
1077.65933,0.48282
1076.62907,0.47935
1075.59880,0.47568
1074.56853,0.47134
1073.53827,0.46648
1072.50800,0.46188
1071.47773,0.45728
1070.44747,0.45245
1069.41720,0.44752
1068.38693,0.44227
1067.35666,0.43731
1066.32640,0.43226
1065.29613,0.42575
1064.26586,0.41814
1063.23560,0.40977
1062.20533,0.40000
1061.17506,0.38930
1060.14479,0.37845
1059.11453,0.36708
1058.08426,0.35516
1057.05399,0.34286
1056.02373,0.33018
1054.99346,0.31756
1053.96319,0.30530
1052.93293,0.29359
1051.90266,0.28252
1050.87239,0.27226
1049.84212,0.26308
1048.81186,0.25502
1047.78159,0.24817
1046.75132,0.24299
1045.72106,0.23958
1044.69079,0.23698
1043.66052,0.23427
1042.63025,0.23209
1041.59999,0.23086
1040.56972,0.23005
1039.53945,0.22934
1038.50919,0.22869
1037.47892,0.22800
1036.44865,0.22686
1035.41839,0.22521
1034.38812,0.22318
1033.35785,0.22075
1032.32758,0.21810
1031.29732,0.21507
1030.26705,0.21132
1029.23678,0.20692
1028.20652,0.20195
1027.17625,0.19647
1026.14598,0.19056
1025.11571,0.18440
1024.08545,0.17828
1023.05518,0.17212
1022.02491,0.16580
1020.99465,0.15920
1019.96438,0.15247
1018.93411,0.14619
1017.90385,0.14048
1016.87358,0.13518
1015.84331,0.13033
1014.81304,0.12555
1013.78278,0.12072
1012.75251,0.11652
1011.72224,0.11322
1010.69198,0.11025
1009.66171,0.10736
1008.63144,0.10497
1007.60118,0.10319
1006.57091,0.10173
1005.54064,0.10041
1004.51037,0.09917
1003.48011,0.09817
1002.44984,0.09740
1001.41957,0.09682
1000.38931,0.09645
999.35904,0.09618
998.32877,0.09580
997.29850,0.09528
996.26824,0.09471
995.23797,0.09425
994.20770,0.09383
993.17744,0.09329
992.14717,0.09279
991.11690,0.09197
990.08664,0.09062
989.05637,0.08930
988.02610,0.08817
986.99583,0.08707
985.96557,0.08584
984.93530,0.08440
983.90503,0.08281
982.87477,0.08122
981.84450,0.07987
980.81423,0.07879
979.78396,0.07783
978.75370,0.07718
977.72343,0.07674
976.69316,0.07601
975.66290,0.07505
974.63263,0.07459
973.60236,0.07480
972.57210,0.07516
971.54183,0.07582
970.51156,0.07704
969.48129,0.07861
968.45103,0.08063
967.42076,0.08341
966.39049,0.08682
965.36023,0.09040
964.32996,0.09441
963.29969,0.09947
962.26942,0.10545
961.23916,0.11167
960.20889,0.11794
959.17862,0.12501
958.14836,0.13307
957.11809,0.14121
956.08782,0.14904
955.05756,0.15677
954.02729,0.16427
952.99702,0.17122
951.96675,0.17725
950.93649,0.18201
949.90622,0.18574
948.87595,0.18878
947.84569,0.19094
946.81542,0.19203
945.78515,0.19216
944.75489,0.19144
943.72462,0.19018
942.69435,0.18860
941.66408,0.18645
940.63382,0.18366
939.60355,0.18067
938.57328,0.17789
937.54302,0.17525
936.51275,0.17258
935.48248,0.16991
934.45221,0.16697
933.42195,0.16343
932.39168,0.15983
931.36141,0.15671
930.33115,0.15380
929.30088,0.15073
928.27061,0.14723
927.24035,0.14366
926.21008,0.14082
925.17981,0.13860
924.14954,0.13631
923.11928,0.13389
922.08901,0.13149
921.05874,0.12914
920.02848,0.12702
918.99821,0.12513
917.96794,0.12318
916.93767,0.12111
915.90741,0.11932
914.87714,0.11775
913.84687,0.11585
912.81661,0.11375
911.78634,0.11152
910.75607,0.10898
909.72581,0.10654
908.69554,0.10445
907.66527,0.10231
906.63500,0.09997
905.60474,0.09789
904.57447,0.09612
903.54420,0.09443
902.51394,0.09284
901.48367,0.09161
900.45340,0.09086
899.42313,0.09055
898.39287,0.09092
897.36260,0.09193
896.33233,0.09299
895.30207,0.09404
894.27180,0.09554
893.24153,0.09750
892.21127,0.09982
891.18100,0.10246
890.15073,0.10505
889.12046,0.10750
888.09020,0.10999
887.05993,0.11213
886.02966,0.11332
884.99940,0.11355
883.96913,0.11344
882.93886,0.11342
881.90859,0.11297
880.87833,0.11156
879.84806,0.10954
878.81779,0.10729
877.78753,0.10519
876.75726,0.10363
875.72699,0.10273
874.69673,0.10265
873.66646,0.10312
872.63619,0.10383
871.60592,0.10464
870.57566,0.10532
869.54539,0.10623
868.51512,0.10755
867.48486,0.10893
866.45459,0.11014
865.42432,0.11112
864.39406,0.11174
863.36379,0.11243
862.33352,0.11345
861.30325,0.11443
860.27299,0.11561
859.24272,0.11738
858.21245,0.11970
857.18219,0.12212
856.15192,0.12403
855.12165,0.12534
854.09138,0.12669
853.06112,0.12882
852.03085,0.13156
851.00058,0.13387
849.97032,0.13559
848.94005,0.13772
847.90978,0.14047
846.87952,0.14275
845.84925,0.14394
844.81898,0.14476
843.78871,0.14578
842.75845,0.14666
841.72818,0.14760
840.69791,0.14910
839.66765,0.15053
838.63738,0.15101
837.60711,0.15084
836.57684,0.15023
835.54658,0.14917
834.51631,0.14836
833.48604,0.14798
832.45578,0.14711
831.42551,0.14523
830.39524,0.14310
829.36498,0.14152
828.33471,0.14011
827.30444,0.13856
826.27417,0.13686
825.24391,0.13486
824.21364,0.13306
823.18337,0.13169
822.15311,0.13033
821.12284,0.12939
820.09257,0.12897
819.06230,0.12836
818.03204,0.12783
817.00177,0.12763
815.97150,0.12714
814.94124,0.12632
813.91097,0.12581
812.88070,0.12562
811.85044,0.12524
810.82017,0.12471
809.78990,0.12447
808.75963,0.12445
807.72937,0.12452
806.69910,0.12456
805.66883,0.12386
804.63857,0.12272
803.60830,0.12231
802.57803,0.12264
801.54777,0.12266
800.51750,0.12222
799.48723,0.12210
798.45696,0.12194
797.42670,0.12110
796.39643,0.12054
795.36616,0.12087
794.33590,0.12109
793.30563,0.12108
792.27536,0.12119
791.24509,0.12109
790.21483,0.12092
789.18456,0.12092
788.15429,0.12103
787.12403,0.12118
786.09376,0.12141
785.06349,0.12197
784.03323,0.12281
783.00296,0.12308
781.97269,0.12285
780.94242,0.12323
779.91216,0.12388
778.88189,0.12407
777.85162,0.12404
776.82136,0.12402
775.79109,0.12419
774.76082,0.12445
773.73055,0.12476
772.70029,0.12555
771.67002,0.12644
770.63975,0.12712
769.60949,0.12807
768.57922,0.12930
767.54895,0.13033
766.51869,0.13098
765.48842,0.13162
764.45815,0.13232
763.42788,0.13274
762.39762,0.13338
761.36735,0.13476
760.33708,0.13610
759.30682,0.13676
758.27655,0.13719
757.24628,0.13748
756.21601,0.13782
755.18575,0.13864
754.15548,0.13974
753.12521,0.14109
752.09495,0.14262
751.06468,0.14362
750.03441,0.14417
749.00415,0.14497
747.97388,0.14602
746.94361,0.14714
745.91334,0.14843
744.88308,0.14981
743.85281,0.15105
742.82254,0.15225
741.79228,0.15342
740.76201,0.15443
739.73174,0.15515
738.70147,0.15567
737.67121,0.15641
736.64094,0.15717
735.61067,0.15776
734.58041,0.15911
733.55014,0.16139
732.51987,0.16288
731.48961,0.16304
730.45934,0.16324
729.42907,0.16413
728.39880,0.16519
727.36854,0.16608
726.33827,0.16729
725.30800,0.16864
724.27774,0.16960
723.24747,0.17076
722.21720,0.17238
721.18694,0.17366
720.15667,0.17461
719.12640,0.17559
718.09613,0.17639
717.06587,0.17686
716.03560,0.17709
715.00533,0.17772
713.97507,0.17882
712.94480,0.17992
711.91453,0.18082
710.88426,0.18127
709.85400,0.18198
708.82373,0.18363
707.79346,0.18562
706.76320,0.18725
705.73293,0.18810
704.70266,0.18862
703.67240,0.18981
702.64213,0.19168
701.61186,0.19297
700.58159,0.19315
699.55133,0.19338
698.52106,0.19442
697.49079,0.19574
696.46053,0.19663
695.43026,0.19685
694.39999,0.19691
693.36972,0.19763
692.33946,0.19876
691.30919,0.19995
690.27892,0.20147
689.24866,0.20309
688.21839,0.20478
687.18812,0.20640
686.15786,0.20708
685.12759,0.20703
684.09732,0.20740
683.06705,0.20865
682.03679,0.21047
681.00652,0.21233
679.97625,0.21334
678.94599,0.21310
677.91572,0.21305
676.88545,0.21392
675.85518,0.21471
674.82492,0.21580
673.79465,0.21729
672.76438,0.21835
671.73412,0.21984
670.70385,0.22238
669.67358,0.22485
668.64332,0.22535
667.61305,0.22259
666.58278,0.22260
665.55251,0.22444
664.52225,0.22583
663.49198,0.22673
662.46171,0.22776
661.43145,0.22828
660.40118,0.22843
659.37091,0.22977
658.34065,0.23167
657.31038,0.23215
656.28011,0.23166
655.24984,0.23187
654.21958,0.23289
653.18931,0.23388
652.15904,0.23462
651.12878,0.23551
650.09851,0.23700
649.06824,0.23866
648.03797,0.23950
647.00771,0.23957
645.97744,0.24021
644.94717,0.24178
643.91691,0.24320
642.88664,0.24399
641.85637,0.24425
640.82611,0.24497
639.79584,0.24625
638.76557,0.24657
637.73530,0.24654
636.70504,0.24721
635.67477,0.24762
634.64450,0.24826
633.61424,0.24954
632.58397,0.25049
631.55370,0.25172
630.52343,0.25330
629.49317,0.25395
628.46290,0.25333
627.43263,0.25298
626.40237,0.25427
625.37210,0.25573
624.34183,0.25639
623.31157,0.25681
622.28130,0.25717
621.25103,0.25840
620.22076,0.26027
619.19050,0.26066
618.16023,0.26066
617.12996,0.26276
616.09970,0.26501
615.06943,0.26515
614.03916,0.26478
613.00889,0.26522
611.97863,0.26565
610.94836,0.26615
609.91809,0.26752
608.88783,0.26860
607.85756,0.26859
606.82729,0.26895
605.79703,0.27093
604.76676,0.27331
603.73649,0.27392
602.70622,0.27360
601.67596,0.27444
600.64569,0.27545
599.61542,0.27526
598.58516,0.27580
597.55489,0.27782
596.52462,0.27934
595.49436,0.28015
594.46409,0.28120
593.43382,0.28272
592.40355,0.28420
591.37329,0.28481
590.34302,0.28496
589.31275,0.28574
588.28249,0.28727
587.25222,0.28875
586.22195,0.28983
585.19168,0.29102
584.16142,0.29181
583.13115,0.29229
582.10088,0.29356
581.07062,0.29393
580.04035,0.29350
579.01008,0.29475
577.97982,0.29618
576.94955,0.29635
575.91928,0.29675
574.88901,0.29713
573.85875,0.29652
572.82848,0.29636
571.79821,0.29751
570.76795,0.29895
569.73768,0.30023
568.70741,0.30141
567.67714,0.30215
566.64688,0.30289
565.61661,0.30411
564.58634,0.30546
563.55608,0.30614
562.52581,0.30547
561.49554,0.30520
560.46528,0.30683
559.43501,0.30851
558.40474,0.30975
557.37447,0.31073
556.34421,0.31042
555.31394,0.31068
554.28367,0.31202
553.25341,0.31266
552.22314,0.31412
551.19287,0.31773
550.16260,0.31918
549.13234,0.31575
548.10207,0.31305
547.07180,0.31382
546.04154,0.31495
545.01127,0.31535
543.98100,0.31590
542.95074,0.31694
541.92047,0.31825
540.89020,0.31900
539.85993,0.31853
538.82967,0.31874
537.79940,0.32107
536.76913,0.32358
535.73887,0.32476
534.70860,0.32470
533.67833,0.32375
532.64806,0.32360
531.61780,0.32461
530.58753,0.32522
529.55726,0.32547
528.52700,0.32571
527.49673,0.32585
526.46646,0.32707
525.43620,0.32965
524.40593,0.33113
523.37566,0.33109
522.34539,0.33067
521.31513,0.33096
520.28486,0.33409
519.25459,0.33897
518.22433,0.34132
517.19406,0.33965
516.16379,0.33622
515.13353,0.33466
514.10326,0.33549
513.07299,0.33634
512.04272,0.33656
511.01246,0.33584
509.98219,0.33286
508.95192,0.33036
507.92166,0.33091
506.89139,0.33153
505.86112,0.33083
504.83085,0.33166
503.80059,0.33468
502.77032,0.33642
501.74005,0.33541
500.70979,0.33357
499.67952,0.33151
498.64925,0.33012
497.61899,0.32994
496.58872,0.33068
495.55845,0.33118
494.52818,0.32969
493.49792,0.32709
492.46765,0.32646
491.43738,0.32782
490.40712,0.32784
489.37685,0.32655
488.34658,0.32721
487.31631,0.32981
486.28605,0.33066
485.25578,0.32972
484.22551,0.32822
483.19525,0.32554
482.16498,0.32433
481.13471,0.32566
480.10445,0.32675
479.07418,0.32719
478.04391,0.32690
477.01364,0.32514
475.98338,0.32408
474.95311,0.32469
473.92284,0.32526
472.89258,0.32497
471.86231,0.32456
470.83204,0.32501
469.80177,0.32605
468.77151,0.32621
467.74124,0.32517
466.71097,0.32387
465.68071,0.32218
464.65044,0.32101
463.62017,0.32083
462.58991,0.32149
461.55964,0.32169
460.52937,0.32051
459.49910,0.32172
458.46884,0.32561
457.43857,0.32724
456.40830,0.32487
455.37804,0.32166
454.34777,0.31954
453.31750,0.31684
452.28724,0.31546
451.25697,0.31884
450.22670,0.32305
449.19643,0.32469
448.16617,0.32400
447.13590,0.32211
446.10563,0.31829
445.07537,0.31250
444.04510,0.30955
443.01483,0.31141
441.98456,0.31272
440.95430,0.31284
439.92403,0.31673
438.89376,0.32072
437.86350,0.32111
436.83323,0.32107
435.80296,0.31952
434.77270,0.31632
433.74243,0.31499
432.71216,0.31464
431.68189,0.31268
430.65163,0.30848
429.62136,0.30543
428.59109,0.30749
427.56083,0.31152
426.53056,0.31315
425.50029,0.31497
424.47002,0.31718
423.43976,0.31672
422.40949,0.31748
421.37922,0.31908
420.34896,0.31611
419.31869,0.31123
418.28842,0.31295
417.25816,0.31549
416.22789,0.31343
415.19762,0.31147
414.16735,0.31106
413.13709,0.31026
412.10682,0.30946
411.07655,0.31107
410.04629,0.31094
409.01602,0.30174
407.98575,0.29055
406.95548,0.28851
405.92522,0.29409
404.89495,0.29558
403.86468,0.29168
402.83442,0.29269
401.80415,0.29996
400.77388,0.30864
399.74362,0.31320
