4998.85573,0.00104
4997.82546,0.00057
4996.79519,0.00037
4995.76493,0.00069
4994.73466,0.00105
4993.70439,0.00151
4992.67413,0.00235
4991.64386,0.00268
4990.61359,0.00161
4989.58332,0.00028
4988.55306,0.00010
4987.52279,0.00078
4986.49252,0.00123
4985.46226,0.00071
4984.43199,-0.00020
4983.40172,-0.00064
4982.37145,-0.00022
4981.34119,0.00085
4980.31092,0.00165
4979.28065,0.00184
4978.25039,0.00143
4977.22012,0.00095
4976.18985,0.00131
4975.15959,0.00202
4974.12932,0.00222
4973.09905,0.00196
4972.06878,0.00110
4971.03852,0.00021
4970.00825,0.00019
4968.97798,0.00054
4967.94772,0.00087
4966.91745,0.00128
4965.88718,0.00136
4964.85691,0.00068
4963.82665,0.00004
4962.79638,0.00097
4961.76611,0.00266
4960.73585,0.00269
4959.70558,0.00119
4958.67531,0.00019
4957.64505,0.00064
4956.61478,0.00180
4955.58451,0.00229
4954.55424,0.00257
4953.52398,0.00308
4952.49371,0.00248
4951.46344,0.00151
4950.43318,0.00131
4949.40291,0.00094
4948.37264,0.00072
4947.34238,0.00145
4946.31211,0.00205
4945.28184,0.00133
4944.25157,0.00011
4943.22131,-0.00025
4942.19104,0.00050
4941.16077,0.00148
4940.13051,0.00116
4939.10024,0.00025
4938.06997,-0.00003
4937.03970,-0.00002
4936.00944,0.00047
4934.97917,0.00152
4933.94890,0.00242
4932.91864,0.00243
4931.88837,0.00167
4930.85810,0.00072
4929.82784,-0.00001
4928.79757,-0.00044
4927.76730,-0.00042
4926.73703,0.00045
4925.70677,0.00180
4924.67650,0.00278
4923.64623,0.00272
4922.61597,0.00213
4921.58570,0.00208
4920.55543,0.00207
4919.52516,0.00174
4918.49490,0.00152
4917.46463,0.00165
4916.43436,0.00193
4915.40410,0.00101
4914.37383,-0.00065
4913.34356,-0.00062
4912.31330,0.00098
4911.28303,0.00167
4910.25276,0.00108
4909.22249,0.00111
4908.19223,0.00169
4907.16196,0.00181
4906.13169,0.00173
4905.10143,0.00223
4904.07116,0.00331
4903.04089,0.00329
4902.01062,0.00227
4900.98036,0.00197
4899.95009,0.00185
4898.91982,0.00124
4897.88956,0.00149
4896.85929,0.00273
4895.82902,0.00328
4894.79876,0.00279
4893.76849,0.00244
4892.73822,0.00284
4891.70795,0.00345
4890.67769,0.00350
4889.64742,0.00297
4888.61715,0.00241
4887.58689,0.00243
4886.55662,0.00248
4885.52635,0.00160
4884.49609,0.00072
4883.46582,0.00068
4882.43555,0.00080
4881.40528,0.00029
4880.37502,-0.00022
4879.34475,0.00028
4878.31448,0.00118
4877.28422,0.00167
4876.25395,0.00161
4875.22368,0.00112
4874.19341,0.00105
4873.16315,0.00138
4872.13288,0.00147
4871.10261,0.00140
4870.07235,0.00111
4869.04208,0.00152
4868.01181,0.00269
4866.98155,0.00295
4865.95128,0.00226
4864.92101,0.00137
4863.89074,0.00043
4862.86048,-0.00025
4861.83021,-0.00009
4860.79994,0.00063
4859.76968,0.00100
4858.73941,0.00108
4857.70914,0.00136
4856.67887,0.00137
4855.64861,0.00125
4854.61834,0.00152
4853.58807,0.00196
4852.55781,0.00253
4851.52754,0.00249
4850.49727,0.00198
4849.46701,0.00221
4848.43674,0.00247
4847.40647,0.00175
4846.37620,0.00096
4845.34594,0.00154
4844.31567,0.00265
4843.28540,0.00230
4842.25514,0.00108
4841.22487,0.00080
4840.19460,0.00161
4839.16433,0.00195
4838.13407,0.00129
4837.10380,0.00118
4836.07353,0.00181
4835.04327,0.00175
4834.01300,0.00118
4832.98273,0.00098
4831.95247,0.00140
4830.92220,0.00231
4829.89193,0.00332
4828.86166,0.00401
4827.83140,0.00350
4826.80113,0.00212
4825.77086,0.00202
4824.74060,0.00327
4823.71033,0.00386
4822.68006,0.00313
4821.64979,0.00225
4820.61953,0.00214
4819.58926,0.00181
4818.55899,0.00115
4817.52873,0.00122
4816.49846,0.00150
4815.46819,0.00144
4814.43793,0.00130
4813.40766,0.00097
4812.37739,0.00054
4811.34712,0.00072
4810.31686,0.00166
4809.28659,0.00237
4808.25632,0.00251
4807.22606,0.00260
4806.19579,0.00285
4805.16552,0.00317
4804.13526,0.00295
4803.10499,0.00216
4802.07472,0.00151
4801.04445,0.00159
4800.01419,0.00189
4798.98392,0.00148
4797.95365,0.00090
4796.92339,0.00071
4795.89312,0.00080
4794.86285,0.00119
4793.83258,0.00154
4792.80232,0.00171
4791.77205,0.00194
4790.74178,0.00223
4789.71152,0.00217
4788.68125,0.00160
4787.65098,0.00099
4786.62072,0.00082
4785.59045,0.00097
4784.56018,0.00104
4783.52991,0.00103
4782.49965,0.00120
4781.46938,0.00182
4780.43911,0.00222
4779.40885,0.00196
4778.37858,0.00184
4777.34831,0.00153
4776.31804,0.00064
4775.28778,0.00057
4774.25751,0.00147
4773.22724,0.00205
4772.19698,0.00197
4771.16671,0.00180
4770.13644,0.00172
4769.10618,0.00174
4768.07591,0.00211
4767.04564,0.00255
4766.01537,0.00251
4764.98511,0.00224
4763.95484,0.00215
4762.92457,0.00206
4761.89431,0.00170
4760.86404,0.00122
4759.83377,0.00090
4758.80350,0.00093
4757.77324,0.00122
4756.74297,0.00160
4755.71270,0.00215
4754.68244,0.00241
4753.65217,0.00217
4752.62190,0.00198
4751.59164,0.00193
4750.56137,0.00211
4749.53110,0.00189
4748.50083,0.00089
4747.47057,0.00025
4746.44030,0.00084
4745.41003,0.00212
4744.37977,0.00308
4743.34950,0.00375
4742.31923,0.00381
4741.28897,0.00306
4740.25870,0.00234
4739.22843,0.00176
4738.19816,0.00126
4737.16790,0.00133
4736.13763,0.00201
4735.10736,0.00222
4734.07710,0.00136
4733.04683,0.00059
4732.01656,0.00069
4730.98629,0.00136
4729.95603,0.00202
4728.92576,0.00207
4727.89549,0.00131
4726.86523,0.00104
4725.83496,0.00217
4724.80469,0.00263
4723.77443,0.00154
4722.74416,0.00077
4721.71389,0.00089
4720.68362,0.00131
4719.65336,0.00129
4718.62309,0.00021
4717.59282,-0.00087
4716.56256,-0.00027
4715.53229,0.00143
4714.50202,0.00223
4713.47175,0.00191
4712.44149,0.00156
4711.41122,0.00139
4710.38095,0.00085
4709.35069,0.00025
4708.32042,0.00033
4707.29015,0.00052
4706.25989,0.00028
4705.22962,0.00022
4704.19935,0.00036
4703.16908,0.00047
4702.13882,0.00111
4701.10855,0.00234
4700.07828,0.00357
4699.04802,0.00422
4698.01775,0.00355
4696.98748,0.00199
4695.95721,0.00142
4694.92695,0.00207
4693.89668,0.00234
4692.86641,0.00171
4691.83615,0.00108
4690.80588,0.00107
4689.77561,0.00146
4688.74535,0.00193
4687.71508,0.00209
4686.68481,0.00191
4685.65454,0.00190
4684.62428,0.00198
4683.59401,0.00184
4682.56374,0.00198
4681.53348,0.00240
4680.50321,0.00198
4679.47294,0.00123
4678.44267,0.00111
4677.41241,0.00079
4676.38214,0.00023
4675.35187,0.00024
4674.32161,0.00051
4673.29134,0.00095
4672.26107,0.00165
4671.23081,0.00211
4670.20054,0.00196
4669.17027,0.00132
4668.14000,0.00078
4667.10974,0.00077
4666.07947,0.00128
4665.04920,0.00221
4664.01894,0.00299
4662.98867,0.00306
4661.95840,0.00298
4660.92814,0.00286
4659.89787,0.00185
4658.86760,0.00080
4657.83733,0.00095
4656.80707,0.00150
4655.77680,0.00136
4654.74653,0.00097
4653.71627,0.00121
4652.68600,0.00181
4651.65573,0.00232
4650.62546,0.00256
4649.59520,0.00241
4648.56493,0.00224
4647.53466,0.00240
4646.50440,0.00247
4645.47413,0.00200
4644.44386,0.00177
4643.41360,0.00227
4642.38333,0.00230
4641.35306,0.00114
4640.32279,-0.00016
4639.29253,-0.00002
4638.26226,0.00137
4637.23199,0.00218
4636.20173,0.00143
4635.17146,0.00036
4634.14119,0.00047
4633.11092,0.00131
4632.08066,0.00224
4631.05039,0.00287
4630.02012,0.00290
4628.98986,0.00250
4627.95959,0.00166
4626.92932,0.00106
4625.89906,0.00152
4624.86879,0.00219
4623.83852,0.00201
4622.80825,0.00155
4621.77799,0.00153
4620.74772,0.00152
4619.71745,0.00154
4618.68719,0.00169
4617.65692,0.00158
4616.62665,0.00128
4615.59638,0.00109
4614.56612,0.00111
4613.53585,0.00137
4612.50558,0.00164
4611.47532,0.00197
4610.44505,0.00280
4609.41478,0.00374
4608.38452,0.00353
4607.35425,0.00197
4606.32398,0.00067
4605.29371,0.00102
4604.26345,0.00213
4603.23318,0.00235
4602.20291,0.00211
4601.17265,0.00227
4600.14238,0.00223
4599.11211,0.00135
4598.08185,0.00022
4597.05158,0.00021
4596.02131,0.00123
4594.99104,0.00184
4593.96078,0.00173
4592.93051,0.00157
4591.90024,0.00139
4590.86998,0.00102
4589.83971,0.00112
4588.80944,0.00151
4587.77917,0.00114
4586.74891,0.00057
4585.71864,0.00083
4584.68837,0.00140
4583.65811,0.00156
4582.62784,0.00151
4581.59757,0.00153
4580.56731,0.00186
4579.53704,0.00220
4578.50677,0.00208
4577.47650,0.00187
4576.44624,0.00175
4575.41597,0.00151
4574.38570,0.00092
4573.35544,0.00018
4572.32517,0.00011
4571.29490,0.00038
4570.26463,0.00039
4569.23437,0.00064
4568.20410,0.00130
4567.17383,0.00174
4566.14357,0.00123
4565.11330,0.00079
4564.08303,0.00125
4563.05277,0.00133
4562.02250,0.00095
4560.99223,0.00066
4559.96196,0.00011
4558.93170,0.00012
4557.90143,0.00120
4556.87116,0.00206
4555.84090,0.00203
4554.81063,0.00188
4553.78036,0.00206
4552.75009,0.00225
4551.71983,0.00228
4550.68956,0.00221
4549.65929,0.00198
4548.62903,0.00151
4547.59876,0.00119
4546.56849,0.00144
4545.53823,0.00183
4544.50796,0.00154
4543.47769,0.00058
4542.44742,0.00025
4541.41716,0.00101
4540.38689,0.00156
4539.35662,0.00125
4538.32636,0.00053
4537.29609,0.00060
4536.26582,0.00180
4535.23556,0.00238
4534.20529,0.00198
4533.17502,0.00197
4532.14475,0.00192
4531.11449,0.00119
4530.08422,0.00091
4529.05395,0.00145
4528.02369,0.00182
4526.99342,0.00167
4525.96315,0.00136
4524.93288,0.00113
4523.90262,0.00108
4522.87235,0.00117
4521.84208,0.00130
4520.81182,0.00122
4519.78155,0.00115
4518.75128,0.00185
4517.72102,0.00312
4516.69075,0.00360
4515.66048,0.00277
4514.63021,0.00189
4513.59995,0.00188
4512.56968,0.00225
4511.53941,0.00212
4510.50915,0.00142
4509.47888,0.00099
4508.44861,0.00096
4507.41834,0.00098
4506.38808,0.00129
4505.35781,0.00177
4504.32754,0.00219
4503.29728,0.00286
4502.26701,0.00375
4501.23674,0.00418
4500.20648,0.00339
4499.17621,0.00195
4498.14594,0.00117
4497.11567,0.00141
4496.08541,0.00175
4495.05514,0.00159
4494.02487,0.00123
4492.99461,0.00089
4491.96434,0.00114
4490.93407,0.00203
4489.90380,0.00258
4488.87354,0.00232
4487.84327,0.00196
4486.81300,0.00216
4485.78274,0.00235
4484.75247,0.00201
4483.72220,0.00146
4482.69194,0.00111
4481.66167,0.00181
4480.63140,0.00319
4479.60113,0.00361
4478.57087,0.00290
4477.54060,0.00218
4476.51033,0.00231
4475.48007,0.00253
4474.44980,0.00197
4473.41953,0.00154
4472.38926,0.00176
4471.35900,0.00168
4470.32873,0.00117
4469.29846,0.00106
4468.26820,0.00151
4467.23793,0.00180
4466.20766,0.00152
4465.17740,0.00136
4464.14713,0.00131
4463.11686,0.00097
4462.08659,0.00091
4461.05633,0.00126
4460.02606,0.00167
4458.99579,0.00203
4457.96553,0.00218
4456.93526,0.00185
4455.90499,0.00125
4454.87473,0.00089
4453.84446,0.00097
4452.81419,0.00140
4451.78392,0.00157
4450.75366,0.00149
4449.72339,0.00167
4448.69312,0.00192
4447.66286,0.00222
4446.63259,0.00240
4445.60232,0.00206
4444.57205,0.00157
4443.54179,0.00156
4442.51152,0.00190
4441.48125,0.00187
4440.45099,0.00130
4439.42072,0.00086
4438.39045,0.00103
4437.36019,0.00109
4436.32992,0.00066
4435.29965,0.00073
4434.26938,0.00104
4433.23912,0.00113
4432.20885,0.00189
4431.17858,0.00302
4430.14832,0.00345
4429.11805,0.00320
4428.08778,0.00284
4427.05751,0.00288
4426.02725,0.00279
4424.99698,0.00228
4423.96671,0.00216
4422.93645,0.00216
4421.90618,0.00151
4420.87591,0.00094
4419.84565,0.00158
4418.81538,0.00275
4417.78511,0.00294
4416.75484,0.00241
4415.72458,0.00202
4414.69431,0.00190
4413.66404,0.00173
4412.63378,0.00116
4411.60351,0.00060
4410.57324,0.00070
4409.54297,0.00139
4408.51271,0.00189
4407.48244,0.00169
4406.45217,0.00140
4405.42191,0.00143
4404.39164,0.00165
4403.36137,0.00250
4402.33111,0.00350
4401.30084,0.00343
4400.27057,0.00267
4399.24030,0.00245
4398.21004,0.00274
4397.17977,0.00274
4396.14950,0.00259
4395.11924,0.00273
4394.08897,0.00263
4393.05870,0.00192
4392.02844,0.00151
4390.99817,0.00195
4389.96790,0.00232
4388.93763,0.00222
4387.90737,0.00230
4386.87710,0.00264
4385.84683,0.00291
4384.81657,0.00335
4383.78630,0.00378
4382.75603,0.00352
4381.72576,0.00300
4380.69550,0.00283
4379.66523,0.00285
4378.63496,0.00287
4377.60470,0.00296
4376.57443,0.00327
4375.54416,0.00352
4374.51390,0.00337
4373.48363,0.00285
4372.45336,0.00230
4371.42309,0.00203
4370.39283,0.00204
4369.36256,0.00245
4368.33229,0.00313
4367.30203,0.00324
4366.27176,0.00298
4365.24149,0.00296
4364.21122,0.00246
4363.18096,0.00193
4362.15069,0.00235
4361.12042,0.00285
4360.09016,0.00269
4359.05989,0.00207
4358.02962,0.00160
4356.99936,0.00193
4355.96909,0.00266
4354.93882,0.00312
4353.90855,0.00326
4352.87829,0.00319
4351.84802,0.00282
4350.81775,0.00247
4349.78749,0.00263
4348.75722,0.00310
4347.72695,0.00331
4346.69668,0.00309
4345.66642,0.00312
4344.63615,0.00350
4343.60588,0.00354
4342.57562,0.00331
4341.54535,0.00324
4340.51508,0.00322
4339.48482,0.00301
4338.45455,0.00309
4337.42428,0.00349
4336.39401,0.00365
4335.36375,0.00359
4334.33348,0.00348
4333.30321,0.00331
4332.27295,0.00298
4331.24268,0.00286
4330.21241,0.00347
4329.18214,0.00387
4328.15188,0.00319
4327.12161,0.00255
4326.09134,0.00247
4325.06108,0.00244
4324.03081,0.00252
4323.00054,0.00282
4321.97028,0.00315
4320.94001,0.00321
4319.90974,0.00292
4318.87947,0.00274
4317.84921,0.00293
4316.81894,0.00295
4315.78867,0.00267
4314.75841,0.00269
4313.72814,0.00288
4312.69787,0.00299
4311.66761,0.00304
4310.63734,0.00278
4309.60707,0.00235
4308.57680,0.00222
4307.54654,0.00261
4306.51627,0.00296
4305.48600,0.00290
4304.45574,0.00316
4303.42547,0.00373
4302.39520,0.00357
4301.36493,0.00273
4300.33467,0.00232
4299.30440,0.00242
4298.27413,0.00239
4297.24387,0.00213
4296.21360,0.00203
4295.18333,0.00234
4294.15307,0.00262
4293.12280,0.00261
4292.09253,0.00280
4291.06226,0.00301
4290.03200,0.00270
4289.00173,0.00242
4287.97146,0.00258
4286.94120,0.00303
4285.91093,0.00349
4284.88066,0.00362
4283.85039,0.00328
4282.82013,0.00268
4281.78986,0.00212
4280.75959,0.00204
4279.72933,0.00240
4278.69906,0.00258
4277.66879,0.00248
4276.63853,0.00250
4275.60826,0.00243
4274.57799,0.00186
4273.54772,0.00168
4272.51746,0.00212
4271.48719,0.00231
4270.45692,0.00243
4269.42666,0.00293
4268.39639,0.00340
4267.36612,0.00340
4266.33585,0.00325
4265.30559,0.00295
4264.27532,0.00235
4263.24505,0.00234
4262.21479,0.00303
4261.18452,0.00319
4260.15425,0.00298
4259.12399,0.00305
4258.09372,0.00298
4257.06345,0.00288
4256.03318,0.00302
4255.00292,0.00261
4253.97265,0.00188
4252.94238,0.00177
4251.91212,0.00183
4250.88185,0.00173
4249.85158,0.00180
4248.82132,0.00182
4247.79105,0.00166
4246.76078,0.00166
4245.73051,0.00188
4244.70025,0.00204
4243.66998,0.00215
4242.63971,0.00242
4241.60945,0.00287
4240.57918,0.00303
4239.54891,0.00259
4238.51864,0.00196
4237.48838,0.00140
4236.45811,0.00141
4235.42784,0.00223
4234.39758,0.00277
4233.36731,0.00249
4232.33704,0.00212
4231.30678,0.00208
4230.27651,0.00229
4229.24624,0.00260
4228.21597,0.00275
4227.18571,0.00275
4226.15544,0.00269
4225.12517,0.00233
4224.09491,0.00186
4223.06464,0.00192
4222.03437,0.00236
4221.00410,0.00251
4219.97384,0.00233
4218.94357,0.00230
4217.91330,0.00251
4216.88304,0.00280
4215.85277,0.00298
4214.82250,0.00285
4213.79224,0.00255
4212.76197,0.00248
4211.73170,0.00284
4210.70143,0.00311
4209.67117,0.00279
4208.64090,0.00220
4207.61063,0.00195
4206.58037,0.00223
4205.55010,0.00233
4204.51983,0.00206
4203.48956,0.00217
4202.45930,0.00276
4201.42903,0.00322
4200.39876,0.00302
4199.36850,0.00280
4198.33823,0.00336
4197.30796,0.00397
4196.27770,0.00397
4195.24743,0.00372
4194.21716,0.00320
4193.18689,0.00234
4192.15663,0.00179
4191.12636,0.00176
4190.09609,0.00202
4189.06583,0.00216
4188.03556,0.00179
4187.00529,0.00165
4185.97502,0.00200
4184.94476,0.00227
4183.91449,0.00264
4182.88422,0.00280
4181.85396,0.00255
4180.82369,0.00252
4179.79342,0.00267
4178.76316,0.00258
4177.73289,0.00220
4176.70262,0.00174
4175.67235,0.00148
4174.64209,0.00137
4173.61182,0.00150
4172.58155,0.00208
4171.55129,0.00278
4170.52102,0.00316
4169.49075,0.00327
4168.46049,0.00351
4167.43022,0.00387
4166.39995,0.00374
4165.36968,0.00319
4164.33942,0.00290
4163.30915,0.00269
4162.27888,0.00207
4161.24862,0.00165
4160.21835,0.00189
4159.18808,0.00219
4158.15781,0.00223
4157.12755,0.00226
4156.09728,0.00245
4155.06701,0.00276
4154.03675,0.00280
4153.00648,0.00270
4151.97621,0.00277
4150.94595,0.00290
4149.91568,0.00295
4148.88541,0.00267
4147.85514,0.00216
4146.82488,0.00213
4145.79461,0.00243
4144.76434,0.00234
4143.73408,0.00236
4142.70381,0.00271
4141.67354,0.00261
4140.64327,0.00212
4139.61301,0.00180
4138.58274,0.00191
4137.55247,0.00243
4136.52221,0.00297
4135.49194,0.00304
4134.46167,0.00250
4133.43141,0.00208
4132.40114,0.00249
4131.37087,0.00300
4130.34060,0.00285
4129.31034,0.00246
4128.28007,0.00232
4127.24980,0.00236
4126.21954,0.00254
4125.18927,0.00275
4124.15900,0.00279
4123.12873,0.00289
4122.09847,0.00294
4121.06820,0.00244
4120.03793,0.00197
4119.00767,0.00203
4117.97740,0.00212
4116.94713,0.00210
4115.91687,0.00225
4114.88660,0.00261
4113.85633,0.00290
4112.82606,0.00270
4111.79580,0.00226
4110.76553,0.00214
4109.73526,0.00234
4108.70500,0.00253
4107.67473,0.00243
4106.64446,0.00194
4105.61420,0.00154
4104.58393,0.00180
4103.55366,0.00227
4102.52339,0.00239
4101.49313,0.00238
4100.46286,0.00242
4099.43259,0.00244
4098.40233,0.00241
4097.37206,0.00250
4096.34179,0.00275
4095.31152,0.00302
4094.28126,0.00313
4093.25099,0.00303
4092.22072,0.00289
4091.19046,0.00307
4090.16019,0.00389
4089.12992,0.00463
4088.09966,0.00453
4087.06939,0.00403
4086.03912,0.00396
4085.00885,0.00427
4083.97859,0.00443
4082.94832,0.00449
4081.91805,0.00443
4080.88779,0.00409
4079.85752,0.00376
4078.82725,0.00369
4077.79698,0.00381
4076.76672,0.00397
4075.73645,0.00383
4074.70618,0.00343
4073.67592,0.00318
4072.64565,0.00296
4071.61538,0.00290
4070.58512,0.00311
4069.55485,0.00316
4068.52458,0.00317
4067.49431,0.00339
4066.46405,0.00356
4065.43378,0.00358
4064.40351,0.00337
4063.37325,0.00318
4062.34298,0.00317
4061.31271,0.00299
4060.28244,0.00258
4059.25218,0.00250
4058.22191,0.00327
4057.19164,0.00431
4056.16138,0.00475
4055.13111,0.00454
4054.10084,0.00401
4053.07058,0.00344
4052.04031,0.00314
4051.01004,0.00359
4049.97977,0.00423
4048.94951,0.00437
4047.91924,0.00457
4046.88897,0.00504
4045.85871,0.00500
4044.82844,0.00451
4043.79817,0.00433
4042.76791,0.00434
4041.73764,0.00430
4040.70737,0.00443
4039.67710,0.00444
4038.64684,0.00421
4037.61657,0.00411
4036.58630,0.00405
4035.55604,0.00406
4034.52577,0.00411
4033.49550,0.00368
4032.46523,0.00318
4031.43497,0.00344
4030.40470,0.00412
4029.37443,0.00447
4028.34417,0.00432
4027.31390,0.00404
4026.28363,0.00404
4025.25337,0.00413
4024.22310,0.00385
4023.19283,0.00372
4022.16256,0.00402
4021.13230,0.00401
4020.10203,0.00382
4019.07176,0.00397
4018.04150,0.00392
4017.01123,0.00348
4015.98096,0.00354
4014.95069,0.00414
4013.92043,0.00462
4012.89016,0.00483
4011.85989,0.00477
4010.82963,0.00443
4009.79936,0.00380
4008.76909,0.00322
4007.73883,0.00316
4006.70856,0.00345
4005.67829,0.00379
4004.64802,0.00411
4003.61776,0.00448
4002.58749,0.00466
4001.55722,0.00449
4000.52696,0.00459
3999.49669,0.00495
3998.46642,0.00472
3997.43615,0.00394
3996.40589,0.00354
3995.37562,0.00368
3994.34535,0.00397
3993.31509,0.00418
3992.28482,0.00395
3991.25455,0.00355
3990.22429,0.00358
3989.19402,0.00380
3988.16375,0.00390
3987.13348,0.00378
3986.10322,0.00350
3985.07295,0.00337
3984.04268,0.00360
3983.01242,0.00399
3981.98215,0.00425
3980.95188,0.00441
3979.92161,0.00462
3978.89135,0.00467
3977.86108,0.00427
3976.83081,0.00383
3975.80055,0.00387
3974.77028,0.00401
3973.74001,0.00393
3972.70975,0.00394
3971.67948,0.00407
3970.64921,0.00416
3969.61894,0.00421
3968.58868,0.00421
3967.55841,0.00422
3966.52814,0.00423
3965.49788,0.00415
3964.46761,0.00418
3963.43734,0.00437
3962.40708,0.00440
3961.37681,0.00386
3960.34654,0.00318
3959.31627,0.00307
3958.28601,0.00313
3957.25574,0.00297
3956.22547,0.00305
3955.19521,0.00323
3954.16494,0.00338
3953.13467,0.00399
3952.10440,0.00470
3951.07414,0.00469
3950.04387,0.00441
3949.01360,0.00433
3947.98334,0.00413
3946.95307,0.00398
3945.92280,0.00392
3944.89254,0.00375
3943.86227,0.00391
3942.83200,0.00408
3941.80173,0.00366
3940.77147,0.00309
3939.74120,0.00298
3938.71093,0.00345
3937.68067,0.00396
3936.65040,0.00418
3935.62013,0.00414
3934.58986,0.00395
3933.55960,0.00401
3932.52933,0.00413
3931.49906,0.00410
3930.46880,0.00397
3929.43853,0.00368
3928.40826,0.00368
3927.37800,0.00384
3926.34773,0.00348
3925.31746,0.00274
3924.28719,0.00228
3923.25693,0.00226
3922.22666,0.00251
3921.19639,0.00298
3920.16613,0.00323
3919.13586,0.00308
3918.10559,0.00306
3917.07532,0.00308
3916.04506,0.00313
3915.01479,0.00347
3913.98452,0.00365
3912.95426,0.00354
3911.92399,0.00354
3910.89372,0.00359
3909.86346,0.00344
3908.83319,0.00329
3907.80292,0.00317
3906.77265,0.00323
3905.74239,0.00362
3904.71212,0.00362
3903.68185,0.00303
3902.65159,0.00314
3901.62132,0.00386
3900.59105,0.00396
3899.56079,0.00354
3898.53052,0.00336
3897.50025,0.00358
3896.46998,0.00371
3895.43972,0.00376
3894.40945,0.00393
3893.37918,0.00396
3892.34892,0.00389
3891.31865,0.00365
3890.28838,0.00314
3889.25811,0.00282
3888.22785,0.00270
3887.19758,0.00262
3886.16731,0.00256
3885.13705,0.00256
3884.10678,0.00287
3883.07651,0.00333
3882.04625,0.00374
3881.01598,0.00412
3879.98571,0.00390
3878.95544,0.00321
3877.92518,0.00287
3876.89491,0.00295
3875.86464,0.00318
3874.83438,0.00321
3873.80411,0.00335
3872.77384,0.00360
3871.74357,0.00337
3870.71331,0.00299
3869.68304,0.00319
3868.65277,0.00352
3867.62251,0.00322
3866.59224,0.00254
3865.56197,0.00213
3864.53171,0.00245
3863.50144,0.00281
3862.47117,0.00288
3861.44090,0.00291
3860.41064,0.00287
3859.38037,0.00290
3858.35010,0.00315
3857.31984,0.00344
3856.28957,0.00344
3855.25930,0.00283
3854.22903,0.00168
3853.19877,0.00147
3852.16850,0.00222
3851.13823,0.00268
3850.10797,0.00279
3849.07770,0.00276
3848.04743,0.00262
3847.01717,0.00260
3845.98690,0.00293
3844.95663,0.00331
3843.92636,0.00329
3842.89610,0.00295
3841.86583,0.00289
3840.83556,0.00325
3839.80530,0.00372
3838.77503,0.00394
3837.74476,0.00395
3836.71449,0.00369
3835.68423,0.00302
3834.65396,0.00257
3833.62369,0.00255
3832.59343,0.00237
3831.56316,0.00217
3830.53289,0.00241
3829.50263,0.00277
3828.47236,0.00290
3827.44209,0.00277
3826.41182,0.00268
3825.38156,0.00292
3824.35129,0.00322
3823.32102,0.00325
3822.29076,0.00297
3821.26049,0.00276
3820.23022,0.00286
3819.19996,0.00292
3818.16969,0.00290
3817.13942,0.00306
3816.10915,0.00334
3815.07889,0.00320
3814.04862,0.00300
3813.01835,0.00289
3811.98809,0.00269
3810.95782,0.00288
3809.92755,0.00331
3808.89728,0.00332
3807.86702,0.00317
3806.83675,0.00294
3805.80648,0.00250
3804.77622,0.00249
3803.74595,0.00293
3802.71568,0.00338
3801.68542,0.00367
3800.65515,0.00374
3799.62488,0.00368
3798.59461,0.00363
3797.56435,0.00374
3796.53408,0.00424
3795.50381,0.00446
3794.47355,0.00394
3793.44328,0.00349
3792.41301,0.00348
3791.38274,0.00314
3790.35248,0.00244
3789.32221,0.00250
3788.29194,0.00301
3787.26168,0.00291
3786.23141,0.00263
3785.20114,0.00269
3784.17088,0.00265
3783.14061,0.00247
3782.11034,0.00274
3781.08007,0.00344
3780.04981,0.00403
3779.01954,0.00406
3777.98927,0.00377
3776.95901,0.00349
3775.92874,0.00304
3774.89847,0.00265
3773.86820,0.00257
3772.83794,0.00272
3771.80767,0.00278
3770.77740,0.00252
3769.74714,0.00239
3768.71687,0.00256
3767.68660,0.00287
3766.65634,0.00305
3765.62607,0.00288
3764.59580,0.00291
3763.56553,0.00323
3762.53527,0.00345
3761.50500,0.00345
3760.47473,0.00333
3759.44447,0.00296
3758.41420,0.00261
3757.38393,0.00316
3756.35367,0.00398
3755.32340,0.00380
3754.29313,0.00323
3753.26286,0.00286
3752.23260,0.00272
3751.20233,0.00329
3750.17206,0.00380
3749.14180,0.00382
3748.11153,0.00372
3747.08126,0.00385
3746.05099,0.00427
3745.02073,0.00481
3743.99046,0.00515
3742.96019,0.00468
3741.92993,0.00407
3740.89966,0.00406
3739.86939,0.00435
3738.83913,0.00428
3737.80886,0.00400
3736.77859,0.00412
3735.74832,0.00499
3734.71806,0.00529
3733.68779,0.00439
3732.65752,0.00381
3731.62726,0.00401
3730.59699,0.00419
3729.56672,0.00404
3728.53645,0.00380
3727.50619,0.00366
3726.47592,0.00349
3725.44565,0.00338
3724.41539,0.00374
3723.38512,0.00431
3722.35485,0.00456
3721.32459,0.00453
3720.29432,0.00469
3719.26405,0.00490
3718.23378,0.00475
3717.20352,0.00432
3716.17325,0.00359
3715.14298,0.00318
3714.11272,0.00388
3713.08245,0.00487
3712.05218,0.00518
3711.02191,0.00468
3709.99165,0.00425
3708.96138,0.00475
3707.93111,0.00528
3706.90085,0.00513
3705.87058,0.00463
3704.84031,0.00404
3703.81005,0.00429
3702.77978,0.00536
3701.74951,0.00558
3700.71924,0.00494
3699.68898,0.00473
3698.65871,0.00509
3697.62844,0.00542
3696.59818,0.00534
3695.56791,0.00511
3694.53764,0.00486
3693.50737,0.00485
3692.47711,0.00546
3691.44684,0.00619
3690.41657,0.00632
3689.38631,0.00641
3688.35604,0.00693
3687.32577,0.00734
3686.29551,0.00751
3685.26524,0.00737
3684.23497,0.00702
3683.20470,0.00672
3682.17444,0.00676
3681.14417,0.00737
3680.11390,0.00806
3679.08364,0.00839
3678.05337,0.00875
3677.02310,0.00909
3675.99284,0.00932
3674.96257,0.00960
3673.93230,0.00949
3672.90203,0.00899
3671.87177,0.00850
3670.84150,0.00910
3669.81123,0.01078
3668.78097,0.01115
3667.75070,0.01030
3666.72043,0.00969
3665.69016,0.00960
3664.65990,0.00997
3663.62963,0.01047
3662.59936,0.01068
3661.56910,0.01115
3660.53883,0.01204
3659.50856,0.01270
3658.47830,0.01309
3657.44803,0.01345
3656.41776,0.01350
3655.38749,0.01365
3654.35723,0.01418
3653.32696,0.01462
3652.29669,0.01462
3651.26643,0.01437
3650.23616,0.01479
3649.20589,0.01593
3648.17562,0.01689
3647.14536,0.01703
3646.11509,0.01658
3645.08482,0.01658
3644.05456,0.01696
3643.02429,0.01725
3641.99402,0.01762
3640.96376,0.01813
3639.93349,0.01883
3638.90322,0.01953
3637.87295,0.01976
3636.84269,0.01986
3635.81242,0.02059
3634.78215,0.02174
3633.75189,0.02242
3632.72162,0.02252
3631.69135,0.02278
3630.66108,0.02367
3629.63082,0.02500
3628.60055,0.02575
3627.57028,0.02580
3626.54002,0.02591
3625.50975,0.02603
3624.47948,0.02648
3623.44922,0.02725
3622.41895,0.02785
3621.38868,0.02871
3620.35841,0.02992
3619.32815,0.03030
3618.29788,0.02989
3617.26761,0.02995
3616.23735,0.03097
3615.20708,0.03263
3614.17681,0.03409
3613.14655,0.03459
3612.11628,0.03462
3611.08601,0.03506
3610.05574,0.03566
3609.02548,0.03621
3607.99521,0.03691
3606.96494,0.03767
3605.93468,0.03837
3604.90441,0.03902
3603.87414,0.03971
3602.84387,0.04047
3601.81361,0.04136
3600.78334,0.04202
3599.75307,0.04205
3598.72281,0.04221
3597.69254,0.04318
3596.66227,0.04432
3595.63201,0.04506
3594.60174,0.04598
3593.57147,0.04723
3592.54120,0.04799
3591.51094,0.04815
3590.48067,0.04834
3589.45040,0.04913
3588.42014,0.05048
3587.38987,0.05178
3586.35960,0.05259
3585.32933,0.05283
3584.29907,0.05296
3583.26880,0.05337
3582.23853,0.05421
3581.20827,0.05530
3580.17800,0.05632
3579.14773,0.05714
3578.11747,0.05805
3577.08720,0.05911
3576.05693,0.05997
3575.02666,0.06101
3573.99640,0.06198
3572.96613,0.06198
3571.93586,0.06178
3570.90560,0.06259
3569.87533,0.06412
3568.84506,0.06555
3567.81479,0.06644
3566.78453,0.06678
3565.75426,0.06700
3564.72399,0.06736
3563.69373,0.06822
3562.66346,0.06933
3561.63319,0.06977
3560.60293,0.06993
3559.57266,0.07080
3558.54239,0.07199
3557.51212,0.07316
3556.48186,0.07422
3555.45159,0.07492
3554.42132,0.07556
3553.39106,0.07619
3552.36079,0.07663
3551.33052,0.07700
3550.30026,0.07738
3549.26999,0.07815
3548.23972,0.07908
3547.20945,0.07926
3546.17919,0.07912
3545.14892,0.07969
3544.11865,0.08060
3543.08839,0.08123
3542.05812,0.08183
3541.02785,0.08257
3539.99758,0.08322
3538.96732,0.08357
3537.93705,0.08375
3536.90678,0.08416
3535.87652,0.08478
3534.84625,0.08546
3533.81598,0.08612
3532.78572,0.08671
3531.75545,0.08731
3530.72518,0.08791
3529.69491,0.08837
3528.66465,0.08880
3527.63438,0.08945
3526.60411,0.09008
3525.57385,0.09066
3524.54358,0.09132
3523.51331,0.09169
3522.48304,0.09194
3521.45278,0.09234
3520.42251,0.09264
3519.39224,0.09308
3518.36198,0.09382
3517.33171,0.09452
3516.30144,0.09511
3515.27118,0.09556
3514.24091,0.09584
3513.21064,0.09606
3512.18037,0.09629
3511.15011,0.09661
3510.11984,0.09678
3509.08957,0.09708
3508.05931,0.09789
3507.02904,0.09851
3505.99877,0.09855
3504.96850,0.09855
3503.93824,0.09907
3502.90797,0.09957
3501.87770,0.09962
3500.84744,0.09993
3499.81717,0.10021
3498.78690,0.09999
3497.75664,0.09971
3496.72637,0.09964
3495.69610,0.09993
3494.66583,0.10049
3493.63557,0.10105
3492.60530,0.10147
3491.57503,0.10135
3490.54477,0.10110
3489.51450,0.10163
3488.48423,0.10267
3487.45396,0.10328
3486.42370,0.10332
3485.39343,0.10307
3484.36316,0.10268
3483.33290,0.10246
3482.30263,0.10255
3481.27236,0.10282
3480.24210,0.10285
3479.21183,0.10267
3478.18156,0.10295
3477.15129,0.10367
3476.12103,0.10388
3475.09076,0.10338
3474.06049,0.10288
3473.03023,0.10275
3471.99996,0.10306
3470.96969,0.10372
3469.93943,0.10418
3468.90916,0.10434
3467.87889,0.10474
3466.84862,0.10531
3465.81836,0.10548
3464.78809,0.10553
3463.75782,0.10595
3462.72756,0.10612
3461.69729,0.10574
3460.66702,0.10569
3459.63675,0.10590
3458.60649,0.10585
3457.57622,0.10583
3456.54595,0.10594
3455.51569,0.10595
3454.48542,0.10597
3453.45515,0.10625
3452.42489,0.10647
3451.39462,0.10628
3450.36435,0.10594
3449.33408,0.10615
3448.30382,0.10683
3447.27355,0.10721
3446.24328,0.10718
3445.21302,0.10710
3444.18275,0.10719
3443.15248,0.10741
3442.12221,0.10728
3441.09195,0.10672
3440.06168,0.10644
3439.03141,0.10661
3438.00115,0.10654
3436.97088,0.10624
3435.94061,0.10614
3434.91035,0.10591
3433.88008,0.10544
3432.84981,0.10552
3431.81954,0.10640
3430.78928,0.10702
3429.75901,0.10691
3428.72874,0.10690
3427.69848,0.10741
3426.66821,0.10803
3425.63794,0.10791
3424.60767,0.10717
3423.57741,0.10666
3422.54714,0.10653
3421.51687,0.10666
3420.48661,0.10686
3419.45634,0.10674
3418.42607,0.10658
3417.39581,0.10668
3416.36554,0.10660
3415.33527,0.10630
3414.30500,0.10613
3413.27474,0.10605
3412.24447,0.10590
3411.21420,0.10573
3410.18394,0.10555
3409.15367,0.10518
3408.12340,0.10501
3407.09314,0.10535
3406.06287,0.10572
3405.03260,0.10571
3404.00233,0.10532
3402.97207,0.10483
3401.94180,0.10427
3400.91153,0.10356
3399.88127,0.10302
3398.85100,0.10285
3397.82073,0.10313
3396.79046,0.10323
3395.76020,0.10257
3394.72993,0.10197
3393.69966,0.10181
3392.66940,0.10168
3391.63913,0.10143
3390.60886,0.10124
3389.57860,0.10113
3388.54833,0.10085
3387.51806,0.10055
3386.48779,0.10054
3385.45753,0.10032
3384.42726,0.09974
3383.39699,0.09927
3382.36673,0.09887
3381.33646,0.09853
3380.30619,0.09833
3379.27592,0.09775
3378.24566,0.09687
3377.21539,0.09651
3376.18512,0.09696
3375.15486,0.09735
3374.12459,0.09670
3373.09432,0.09553
3372.06406,0.09497
3371.03379,0.09499
3370.00352,0.09489
3368.97325,0.09420
3367.94299,0.09335
3366.91272,0.09303
3365.88245,0.09290
3364.85219,0.09254
3363.82192,0.09195
3362.79165,0.09114
3361.76138,0.09043
3360.73112,0.08981
3359.70085,0.08934
3358.67058,0.08892
3357.64032,0.08844
3356.61005,0.08821
3355.57978,0.08795
3354.54952,0.08755
3353.51925,0.08714
3352.48898,0.08639
3351.45871,0.08571
3350.42845,0.08575
3349.39818,0.08600
3348.36791,0.08588
3347.33765,0.08553
3346.30738,0.08504
3345.27711,0.08443
3344.24684,0.08387
3343.21658,0.08348
3342.18631,0.08303
3341.15604,0.08247
3340.12578,0.08219
3339.09551,0.08200
3338.06524,0.08160
3337.03498,0.08109
3336.00471,0.08085
3334.97444,0.08087
3333.94417,0.08062
3332.91391,0.07983
3331.88364,0.07875
3330.85337,0.07821
3329.82311,0.07840
3328.79284,0.07849
3327.76257,0.07837
3326.73231,0.07811
3325.70204,0.07753
3324.67177,0.07691
3323.64150,0.07659
3322.61124,0.07647
3321.58097,0.07614
3320.55070,0.07556
3319.52044,0.07520
3318.49017,0.07519
3317.45990,0.07526
3316.42963,0.07503
3315.39937,0.07455
3314.36910,0.07417
3313.33883,0.07388
3312.30857,0.07354
3311.27830,0.07318
3310.24803,0.07302
3309.21777,0.07309
3308.18750,0.07307
3307.15723,0.07266
3306.12696,0.07221
3305.09670,0.07202
3304.06643,0.07167
3303.03616,0.07096
3302.00590,0.07025
3300.97563,0.07007
3299.94536,0.07039
3298.91509,0.07064
3297.88483,0.07057
3296.85456,0.07024
3295.82429,0.06986
3294.79403,0.06953
3293.76376,0.06914
3292.73349,0.06909
3291.70323,0.06947
3290.67296,0.06922
3289.64269,0.06838
3288.61242,0.06786
3287.58216,0.06763
3286.55189,0.06770
3285.52162,0.06776
3284.49136,0.06733
3283.46109,0.06682
3282.43082,0.06671
3281.40055,0.06684
3280.37029,0.06659
3279.34002,0.06584
3278.30975,0.06527
3277.27949,0.06506
3276.24922,0.06488
3275.21895,0.06488
3274.18869,0.06516
3273.15842,0.06534
3272.12815,0.06502
3271.09788,0.06458
3270.06762,0.06465
3269.03735,0.06469
3268.00708,0.06416
3266.97682,0.06357
3265.94655,0.06326
3264.91628,0.06302
3263.88602,0.06280
3262.85575,0.06277
3261.82548,0.06266
3260.79521,0.06206
3259.76495,0.06160
3258.73468,0.06147
3257.70441,0.06108
3256.67415,0.06074
3255.64388,0.06057
3254.61361,0.06024
3253.58334,0.05997
3252.55308,0.05983
3251.52281,0.05954
3250.49254,0.05902
3249.46228,0.05847
3248.43201,0.05820
3247.40174,0.05811
3246.37148,0.05775
3245.34121,0.05719
3244.31094,0.05672
3243.28067,0.05619
3242.25041,0.05570
3241.22014,0.05550
3240.18987,0.05543
3239.15961,0.05531
3238.12934,0.05518
3237.09907,0.05514
3236.06880,0.05464
3235.03854,0.05348
3234.00827,0.05243
3232.97800,0.05194
3231.94774,0.05176
3230.91747,0.05156
3229.88720,0.05119
3228.85694,0.05082
3227.82667,0.05077
3226.79640,0.05103
3225.76613,0.05097
3224.73587,0.05025
3223.70560,0.04970
3222.67533,0.04964
3221.64507,0.04949
3220.61480,0.04908
3219.58453,0.04852
3218.55426,0.04800
3217.52400,0.04743
3216.49373,0.04667
3215.46346,0.04611
3214.43320,0.04583
3213.40293,0.04533
3212.37266,0.04458
3211.34240,0.04392
3210.31213,0.04375
3209.28186,0.04409
3208.25159,0.04426
3207.22133,0.04375
3206.19106,0.04277
3205.16079,0.04193
3204.13053,0.04161
3203.10026,0.04174
3202.06999,0.04166
3201.03972,0.04099
3200.00946,0.04012
3198.97919,0.03952
3197.94892,0.03937
3196.91866,0.03923
3195.88839,0.03862
3194.85812,0.03806
3193.82786,0.03785
3192.79759,0.03743
3191.76732,0.03668
3190.73705,0.03612
3189.70679,0.03604
3188.67652,0.03627
3187.64625,0.03622
3186.61599,0.03577
3185.58572,0.03510
3184.55545,0.03426
3183.52519,0.03378
3182.49492,0.03384
3181.46465,0.03375
3180.43438,0.03339
3179.40412,0.03329
3178.37385,0.03340
3177.34358,0.03314
3176.31332,0.03250
3175.28305,0.03198
3174.25278,0.03165
3173.22251,0.03144
3172.19225,0.03122
3171.16198,0.03087
3170.13171,0.03051
3169.10145,0.02999
3168.07118,0.02943
3167.04091,0.02931
3166.01065,0.02951
3164.98038,0.02957
3163.95011,0.02936
3162.91984,0.02896
3161.88958,0.02835
3160.85931,0.02770
3159.82904,0.02737
3158.79878,0.02727
3157.76851,0.02716
3156.73824,0.02684
3155.70797,0.02624
3154.67771,0.02576
3153.64744,0.02547
3152.61717,0.02536
3151.58691,0.02544
3150.55664,0.02511
3149.52637,0.02441
3148.49611,0.02417
3147.46584,0.02435
3146.43557,0.02447
3145.40530,0.02444
3144.37504,0.02405
3143.34477,0.02332
3142.31450,0.02275
3141.28424,0.02251
3140.25397,0.02233
3139.22370,0.02211
3138.19343,0.02206
3137.16317,0.02219
3136.13290,0.02214
3135.10263,0.02203
3134.07237,0.02208
3133.04210,0.02194
3132.01183,0.02146
3130.98157,0.02084
3129.95130,0.02021
3128.92103,0.01990
3127.89076,0.02008
3126.86050,0.02032
3125.83023,0.02019
3124.79996,0.01994
3123.76970,0.01967
3122.73943,0.01917
3121.70916,0.01879
3120.67890,0.01869
3119.64863,0.01861
3118.61836,0.01849
3117.58809,0.01831
3116.55783,0.01807
3115.52756,0.01782
3114.49729,0.01782
3113.46703,0.01809
3112.43676,0.01808
3111.40649,0.01766
3110.37622,0.01717
3109.34596,0.01703
3108.31569,0.01727
3107.28542,0.01735
3106.25516,0.01713
3105.22489,0.01697
3104.19462,0.01707
3103.16436,0.01721
3102.13409,0.01695
3101.10382,0.01647
3100.07355,0.01619
3099.04329,0.01617
3098.01302,0.01633
3096.98275,0.01632
3095.95249,0.01597
3094.92222,0.01568
3093.89195,0.01566
3092.86168,0.01563
3091.83142,0.01537
3090.80115,0.01522
3089.77088,0.01526
3088.74062,0.01538
3087.71035,0.01554
3086.68008,0.01542
3085.64982,0.01502
3084.61955,0.01496
3083.58928,0.01507
3082.55901,0.01475
3081.52875,0.01414
3080.49848,0.01351
3079.46821,0.01316
3078.43795,0.01331
3077.40768,0.01366
3076.37741,0.01387
3075.34714,0.01393
3074.31688,0.01390
3073.28661,0.01390
3072.25634,0.01382
3071.22608,0.01345
3070.19581,0.01300
3069.16554,0.01297
3068.13528,0.01309
3067.10501,0.01302
3066.07474,0.01306
3065.04447,0.01326
3064.01421,0.01332
3062.98394,0.01315
3061.95367,0.01300
3060.92341,0.01283
3059.89314,0.01259
3058.86287,0.01241
3057.83261,0.01236
3056.80234,0.01233
3055.77207,0.01222
3054.74180,0.01227
3053.71154,0.01243
3052.68127,0.01228
3051.65100,0.01193
3050.62074,0.01172
3049.59047,0.01178
3048.56020,0.01198
3047.52993,0.01211
3046.49967,0.01193
3045.46940,0.01146
3044.43913,0.01119
3043.40887,0.01139
3042.37860,0.01172
3041.34833,0.01187
3040.31807,0.01188
3039.28780,0.01175
3038.25753,0.01126
3037.22726,0.01073
3036.19700,0.01069
3035.16673,0.01107
3034.13646,0.01139
3033.10620,0.01149
3032.07593,0.01125
3031.04566,0.01088
3030.01539,0.01090
3028.98513,0.01117
3027.95486,0.01139
3026.92459,0.01141
3025.89433,0.01110
3024.86406,0.01079
3023.83379,0.01067
3022.80353,0.01072
3021.77326,0.01094
3020.74299,0.01118
3019.71272,0.01119
3018.68246,0.01101
3017.65219,0.01088
3016.62192,0.01098
3015.59166,0.01140
3014.56139,0.01161
3013.53112,0.01129
3012.50085,0.01104
3011.47059,0.01108
3010.44032,0.01115
3009.41005,0.01118
3008.37979,0.01126
3007.34952,0.01144
3006.31925,0.01147
3005.28899,0.01136
3004.25872,0.01137
3003.22845,0.01134
3002.19818,0.01125
3001.16792,0.01131
3000.13765,0.01155
2999.10738,0.01195
2998.07712,0.01227
2997.04685,0.01235
2996.01658,0.01256
2994.98631,0.01305
2993.95605,0.01360
2992.92578,0.01393
2991.89551,0.01408
2990.86525,0.01451
2989.83498,0.01511
2988.80471,0.01547
2987.77445,0.01585
2986.74418,0.01652
2985.71391,0.01731
2984.68364,0.01814
2983.65338,0.01894
2982.62311,0.01977
2981.59284,0.02076
2980.56258,0.02175
2979.53231,0.02264
2978.50204,0.02358
2977.47178,0.02459
2976.44151,0.02570
2975.41124,0.02707
2974.38097,0.02867
2973.35071,0.03039
2972.32044,0.03194
2971.29017,0.03318
2970.25991,0.03464
2969.22964,0.03660
2968.19937,0.03846
2967.16910,0.03998
2966.13884,0.04141
2965.10857,0.04307
2964.07830,0.04500
2963.04804,0.04698
2962.01777,0.04890
2960.98750,0.05060
2959.95724,0.05223
2958.92697,0.05410
2957.89670,0.05606
2956.86643,0.05814
2955.83617,0.06037
2954.80590,0.06231
2953.77563,0.06389
2952.74537,0.06550
2951.71510,0.06726
2950.68483,0.06891
2949.65456,0.07033
2948.62430,0.07168
2947.59403,0.07294
2946.56376,0.07391
2945.53350,0.07480
2944.50323,0.07579
2943.47296,0.07690
2942.44270,0.07792
2941.41243,0.07859
2940.38216,0.07909
2939.35189,0.07959
2938.32163,0.08041
2937.29136,0.08173
2936.26109,0.08294
2935.23083,0.08362
2934.20056,0.08401
2933.17029,0.08474
2932.14002,0.08596
2931.10976,0.08716
2930.07949,0.08835
2929.04922,0.08978
2928.01896,0.09118
2926.98869,0.09216
2925.95842,0.09289
2924.92816,0.09377
2923.89789,0.09500
2922.86762,0.09644
2921.83735,0.09784
2920.80709,0.09931
2919.77682,0.10092
2918.74655,0.10247
2917.71629,0.10375
2916.68602,0.10492
2915.65575,0.10634
2914.62549,0.10784
2913.59522,0.10909
2912.56495,0.11013
2911.53468,0.11116
2910.50442,0.11226
2909.47415,0.11356
2908.44388,0.11482
2907.41362,0.11556
2906.38335,0.11603
2905.35308,0.11682
2904.32281,0.11810
2903.29255,0.11945
2902.26228,0.12025
2901.23201,0.12049
2900.20175,0.12076
2899.17148,0.12148
2898.14121,0.12233
2897.11095,0.12312
2896.08068,0.12440
2895.05041,0.12619
2894.02014,0.12747
2892.98988,0.12791
2891.95961,0.12850
2890.92934,0.12967
2889.89908,0.13089
2888.86881,0.13206
2887.83854,0.13347
2886.80827,0.13521
2885.77801,0.13706
2884.74774,0.13884
2883.71747,0.14043
2882.68721,0.14196
2881.65694,0.14384
2880.62667,0.14584
2879.59641,0.14733
2878.56614,0.14854
2877.53587,0.14984
2876.50560,0.15138
2875.47534,0.15321
2874.44507,0.15468
2873.41480,0.15548
2872.38454,0.15626
2871.35427,0.15726
2870.32400,0.15798
2869.29373,0.15785
2868.26347,0.15708
2867.23320,0.15625
2866.20293,0.15538
2865.17267,0.15441
2864.14240,0.15302
2863.11213,0.15076
2862.08187,0.14809
2861.05160,0.14551
2860.02133,0.14263
2858.99106,0.13901
2857.96080,0.13503
2856.93053,0.13117
2855.90026,0.12748
2854.87000,0.12377
2853.83973,0.11955
2852.80946,0.11492
2851.77919,0.11073
2850.74893,0.10713
2849.71866,0.10356
2848.68839,0.09983
2847.65813,0.09618
2846.62786,0.09281
2845.59759,0.08984
2844.56733,0.08708
2843.53706,0.08420
2842.50679,0.08116
2841.47652,0.07802
2840.44626,0.07493
2839.41599,0.07231
2838.38572,0.07040
2837.35546,0.06872
2836.32519,0.06676
2835.29492,0.06484
2834.26466,0.06315
2833.23439,0.06146
2832.20412,0.05978
2831.17385,0.05828
2830.14359,0.05716
2829.11332,0.05597
2828.08305,0.05440
2827.05279,0.05311
2826.02252,0.05229
2824.99225,0.05141
2823.96198,0.05024
2822.93172,0.04915
2821.90145,0.04836
2820.87118,0.04770
2819.84092,0.04708
2818.81065,0.04635
2817.78038,0.04545
2816.75012,0.04458
2815.71985,0.04372
2814.68958,0.04281
2813.65931,0.04197
2812.62905,0.04124
2811.59878,0.04065
2810.56851,0.04009
2809.53825,0.03938
2808.50798,0.03849
2807.47771,0.03750
2806.44744,0.03665
2805.41718,0.03598
2804.38691,0.03532
2803.35664,0.03466
2802.32638,0.03389
2801.29611,0.03317
2800.26584,0.03265
2799.23558,0.03206
2798.20531,0.03135
2797.17504,0.03070
2796.14477,0.03006
2795.11451,0.02939
2794.08424,0.02879
2793.05397,0.02829
2792.02371,0.02770
2790.99344,0.02710
2789.96317,0.02663
2788.93290,0.02633
2787.90264,0.02601
2786.87237,0.02547
2785.84210,0.02501
2784.81184,0.02478
2783.78157,0.02450
2782.75130,0.02415
2781.72104,0.02391
2780.69077,0.02364
2779.66050,0.02310
2778.63023,0.02248
2777.59997,0.02205
2776.56970,0.02186
2775.53943,0.02190
2774.50917,0.02187
2773.47890,0.02146
2772.44863,0.02091
2771.41837,0.02048
2770.38810,0.02003
2769.35783,0.01971
2768.32756,0.01963
2767.29730,0.01957
2766.26703,0.01946
2765.23676,0.01929
2764.20650,0.01900
2763.17623,0.01864
2762.14596,0.01840
2761.11569,0.01832
2760.08543,0.01817
2759.05516,0.01798
2758.02489,0.01792
2756.99463,0.01801
2755.96436,0.01817
2754.93409,0.01823
2753.90383,0.01801
2752.87356,0.01789
2751.84329,0.01802
2750.81302,0.01812
2749.78276,0.01812
2748.75249,0.01801
2747.72222,0.01795
2746.69196,0.01812
2745.66169,0.01818
2744.63142,0.01790
2743.60115,0.01773
2742.57089,0.01771
2741.54062,0.01739
2740.51035,0.01702
2739.48009,0.01697
2738.44982,0.01709
2737.41955,0.01714
2736.38929,0.01702
2735.35902,0.01682
2734.32875,0.01672
2733.29848,0.01678
2732.26822,0.01683
2731.23795,0.01671
2730.20768,0.01641
2729.17742,0.01610
2728.14715,0.01592
2727.11688,0.01589
2726.08661,0.01586
2725.05635,0.01561
2724.02608,0.01522
2722.99581,0.01495
2721.96555,0.01477
2720.93528,0.01472
2719.90501,0.01486
2718.87475,0.01482
2717.84448,0.01445
2716.81421,0.01406
2715.78394,0.01366
2714.75368,0.01333
2713.72341,0.01345
2712.69314,0.01380
2711.66288,0.01397
2710.63261,0.01393
2709.60234,0.01375
2708.57207,0.01347
2707.54181,0.01324
2706.51154,0.01305
2705.48127,0.01281
2704.45101,0.01272
2703.42074,0.01275
2702.39047,0.01258
2701.36021,0.01241
2700.32994,0.01230
2699.29967,0.01208
2698.26940,0.01185
2697.23914,0.01166
2696.20887,0.01140
2695.17860,0.01101
2694.14834,0.01061
2693.11807,0.01048
2692.08780,0.01057
2691.05754,0.01050
2690.02727,0.01017
2688.99700,0.00989
2687.96673,0.00981
2686.93647,0.00977
2685.90620,0.00945
2684.87593,0.00893
2683.84567,0.00873
2682.81540,0.00880
2681.78513,0.00876
2680.75486,0.00860
2679.72460,0.00842
2678.69433,0.00812
2677.66406,0.00775
2676.63380,0.00763
2675.60353,0.00765
2674.57326,0.00762
2673.54300,0.00763
2672.51273,0.00772
2671.48246,0.00773
2670.45219,0.00742
2669.42193,0.00710
2668.39166,0.00714
2667.36139,0.00712
2666.33113,0.00679
2665.30086,0.00661
2664.27059,0.00670
2663.24032,0.00676
2662.21006,0.00672
2661.17979,0.00656
2660.14952,0.00628
2659.11926,0.00616
2658.08899,0.00643
2657.05872,0.00675
2656.02846,0.00667
2654.99819,0.00630
2653.96792,0.00599
2652.93765,0.00593
2651.90739,0.00601
2650.87712,0.00598
2649.84685,0.00580
2648.81659,0.00568
2647.78632,0.00578
2646.75605,0.00593
2645.72578,0.00584
2644.69552,0.00559
2643.66525,0.00562
2642.63498,0.00579
2641.60472,0.00551
2640.57445,0.00505
2639.54418,0.00501
2638.51392,0.00541
2637.48365,0.00579
2636.45338,0.00590
2635.42311,0.00590
2634.39285,0.00590
2633.36258,0.00590
2632.33231,0.00579
2631.30205,0.00550
2630.27178,0.00537
2629.24151,0.00543
2628.21125,0.00558
2627.18098,0.00581
2626.15071,0.00599
2625.12044,0.00595
2624.09018,0.00551
2623.05991,0.00501
2622.02964,0.00497
2620.99938,0.00497
2619.96911,0.00485
2618.93884,0.00492
2617.90857,0.00495
2616.87831,0.00484
2615.84804,0.00470
2614.81777,0.00459
2613.78751,0.00483
2612.75724,0.00519
2611.72697,0.00523
2610.69671,0.00522
2609.66644,0.00522
2608.63617,0.00518
2607.60590,0.00511
2606.57564,0.00479
2605.54537,0.00451
2604.51510,0.00453
2603.48484,0.00454
2602.45457,0.00436
2601.42430,0.00433
2600.39403,0.00472
2599.36377,0.00492
2598.33350,0.00472
2597.30323,0.00469
2596.27297,0.00472
2595.24270,0.00472
2594.21243,0.00484
2593.18217,0.00493
2592.15190,0.00486
2591.12163,0.00451
2590.09136,0.00441
2589.06110,0.00504
2588.03083,0.00557
2587.00056,0.00535
2585.97030,0.00470
2584.94003,0.00404
2583.90976,0.00396
2582.87949,0.00443
2581.84923,0.00475
2580.81896,0.00494
2579.78869,0.00466
2578.75843,0.00382
2577.72816,0.00355
2576.69789,0.00403
2575.66763,0.00444
2574.63736,0.00470
2573.60709,0.00494
2572.57682,0.00488
2571.54656,0.00463
2570.51629,0.00453
2569.48602,0.00430
2568.45576,0.00383
2567.42549,0.00372
2566.39522,0.00410
2565.36496,0.00446
2564.33469,0.00439
2563.30442,0.00394
2562.27415,0.00360
2561.24389,0.00335
2560.21362,0.00301
2559.18335,0.00267
2558.15309,0.00268
2557.12282,0.00320
2556.09255,0.00384
2555.06228,0.00415
2554.03202,0.00401
2553.00175,0.00364
2551.97148,0.00341
2550.94122,0.00366
2549.91095,0.00405
2548.88068,0.00409
2547.85042,0.00401
2546.82015,0.00407
2545.78988,0.00401
2544.75961,0.00397
2543.72935,0.00420
2542.69908,0.00420
2541.66881,0.00371
2540.63855,0.00341
2539.60828,0.00377
2538.57801,0.00444
2537.54774,0.00478
2536.51748,0.00472
2535.48721,0.00476
2534.45694,0.00497
2533.42668,0.00527
2532.39641,0.00541
2531.36614,0.00513
2530.33588,0.00480
2529.30561,0.00478
2528.27534,0.00464
2527.24507,0.00401
2526.21481,0.00333
2525.18454,0.00340
2524.15427,0.00399
2523.12401,0.00421
2522.09374,0.00405
2521.06347,0.00388
2520.03320,0.00360
2519.00294,0.00337
2517.97267,0.00358
2516.94240,0.00422
2515.91214,0.00455
2514.88187,0.00415
2513.85160,0.00359
2512.82134,0.00363
2511.79107,0.00429
2510.76080,0.00472
2509.73053,0.00457
2508.70027,0.00424
2507.67000,0.00413
2506.63973,0.00413
2505.60947,0.00408
2504.57920,0.00406
2503.54893,0.00392
2502.51866,0.00374
2501.48840,0.00402
2500.45813,0.00436
2499.42786,0.00406
2498.39760,0.00368
2497.36733,0.00371
2496.33706,0.00386
2495.30680,0.00410
2494.27653,0.00439
2493.24626,0.00432
2492.21599,0.00406
2491.18573,0.00380
2490.15546,0.00365
2489.12519,0.00396
2488.09493,0.00441
2487.06466,0.00435
2486.03439,0.00393
2485.00413,0.00349
2483.97386,0.00296
2482.94359,0.00243
2481.91332,0.00268
2480.88306,0.00365
2479.85279,0.00423
2478.82252,0.00438
2477.79226,0.00432
2476.76199,0.00390
2475.73172,0.00368
2474.70145,0.00387
2473.67119,0.00396
2472.64092,0.00384
2471.61065,0.00370
2470.58039,0.00342
2469.55012,0.00299
2468.51985,0.00284
2467.48959,0.00314
2466.45932,0.00357
2465.42905,0.00409
2464.39878,0.00436
2463.36852,0.00412
2462.33825,0.00386
2461.30798,0.00376
2460.27772,0.00370
2459.24745,0.00374
2458.21718,0.00377
2457.18691,0.00364
2456.15665,0.00340
2455.12638,0.00312
2454.09611,0.00296
2453.06585,0.00328
2452.03558,0.00374
2451.00531,0.00366
2449.97505,0.00324
2448.94478,0.00293
2447.91451,0.00280
2446.88424,0.00286
2445.85398,0.00287
2444.82371,0.00290
2443.79344,0.00347
2442.76318,0.00439
2441.73291,0.00486
2440.70264,0.00454
2439.67237,0.00385
2438.64211,0.00358
2437.61184,0.00384
2436.58157,0.00393
2435.55131,0.00373
2434.52104,0.00373
2433.49077,0.00374
2432.46051,0.00368
2431.43024,0.00405
2430.39997,0.00456
2429.36970,0.00477
2428.33944,0.00470
2427.30917,0.00443
2426.27890,0.00424
2425.24864,0.00433
2424.21837,0.00440
2423.18810,0.00428
2422.15784,0.00430
2421.12757,0.00425
2420.09730,0.00384
2419.06703,0.00361
2418.03677,0.00402
2417.00650,0.00448
2415.97623,0.00438
2414.94597,0.00403
2413.91570,0.00398
2412.88543,0.00426
2411.85516,0.00449
2410.82490,0.00445
2409.79463,0.00416
2408.76436,0.00401
2407.73410,0.00438
2406.70383,0.00451
2405.67356,0.00399
2404.64330,0.00376
2403.61303,0.00404
2402.58276,0.00439
2401.55249,0.00476
2400.52223,0.00493
2399.49196,0.00460
2398.46169,0.00408
2397.43143,0.00404
2396.40116,0.00412
2395.37089,0.00389
2394.34062,0.00380
2393.31036,0.00387
2392.28009,0.00404
2391.24982,0.00443
2390.21956,0.00454
2389.18929,0.00427
2388.15902,0.00412
2387.12876,0.00407
2386.09849,0.00389
2385.06822,0.00363
2384.03795,0.00352
2383.00769,0.00343
2381.97742,0.00315
2380.94715,0.00329
2379.91689,0.00406
2378.88662,0.00481
2377.85635,0.00523
2376.82608,0.00495
2375.79582,0.00420
2374.76555,0.00413
2373.73528,0.00490
2372.70502,0.00597
2371.67475,0.00668
2370.64448,0.00657
2369.61422,0.00620
2368.58395,0.00601
2367.55368,0.00607
2366.52341,0.00568
2365.49315,0.00466
2364.46288,0.00469
2363.43261,0.00585
2362.40235,0.00660
2361.37208,0.00608
2360.34181,0.00451
2359.31154,0.00396
2358.28128,0.00563
2357.25101,0.00722
2356.22074,0.00737
2355.19048,0.00693
2354.16021,0.00596
2353.12994,0.00501
2352.09968,0.00495
2351.06941,0.00557
2350.03914,0.00614
2349.00887,0.00607
2347.97861,0.00564
2346.94834,0.00559
2345.91807,0.00619
2344.88781,0.00677
2343.85754,0.00708
2342.82727,0.00723
2341.79701,0.00689
2340.76674,0.00632
2339.73647,0.00613
2338.70620,0.00621
2337.67594,0.00613
2336.64567,0.00565
2335.61540,0.00526
2334.58514,0.00534
2333.55487,0.00535
2332.52460,0.00526
2331.49433,0.00509
2330.46407,0.00461
2329.43380,0.00488
2328.40353,0.00595
2327.37327,0.00630
2326.34300,0.00538
2325.31273,0.00435
2324.28247,0.00435
2323.25220,0.00506
2322.22193,0.00586
2321.19166,0.00608
2320.16140,0.00573
2319.13113,0.00555
2318.10086,0.00549
2317.07060,0.00525
2316.04033,0.00495
2315.01006,0.00482
2313.97979,0.00473
2312.94953,0.00436
2311.91926,0.00408
2310.88899,0.00447
2309.85873,0.00507
2308.82846,0.00521
2307.79819,0.00482
2306.76793,0.00428
2305.73766,0.00415
2304.70739,0.00423
2303.67712,0.00437
2302.64686,0.00483
2301.61659,0.00500
2300.58632,0.00457
2299.55606,0.00432
2298.52579,0.00439
2297.49552,0.00442
2296.46525,0.00436
2295.43499,0.00415
2294.40472,0.00380
2293.37445,0.00402
2292.34419,0.00490
2291.31392,0.00542
2290.28365,0.00525
2289.25339,0.00444
2288.22312,0.00360
2287.19285,0.00331
2286.16258,0.00343
2285.13232,0.00403
2284.10205,0.00461
2283.07178,0.00442
2282.04152,0.00396
2281.01125,0.00389
2279.98098,0.00400
2278.95072,0.00389
2277.92045,0.00354
2276.89018,0.00323
2275.85991,0.00307
2274.82965,0.00319
2273.79938,0.00389
2272.76911,0.00446
2271.73885,0.00444
2270.70858,0.00445
2269.67831,0.00470
2268.64804,0.00478
2267.61778,0.00439
2266.58751,0.00406
2265.55724,0.00432
2264.52698,0.00498
2263.49671,0.00521
2262.46644,0.00479
2261.43618,0.00430
2260.40591,0.00395
2259.37564,0.00379
2258.34537,0.00376
2257.31511,0.00409
2256.28484,0.00455
2255.25457,0.00382
2254.22431,0.00264
2253.19404,0.00286
2252.16377,0.00373
2251.13350,0.00379
2250.10324,0.00283
2249.07297,0.00188
2248.04270,0.00204
2247.01244,0.00306
2245.98217,0.00427
2244.95190,0.00491
2243.92164,0.00430
2242.89137,0.00359
2241.86110,0.00373
2240.83083,0.00364
2239.80057,0.00329
2238.77030,0.00338
2237.74003,0.00342
2236.70977,0.00352
2235.67950,0.00402
2234.64923,0.00379
2233.61896,0.00247
2232.58870,0.00165
2231.55843,0.00224
2230.52816,0.00333
2229.49790,0.00412
2228.46763,0.00372
2227.43736,0.00223
2226.40710,0.00207
2225.37683,0.00333
2224.34656,0.00385
2223.31629,0.00413
2222.28603,0.00481
2221.25576,0.00466
2220.22549,0.00362
2219.19523,0.00225
2218.16496,0.00133
2217.13469,0.00154
2216.10442,0.00178
2215.07416,0.00149
2214.04389,0.00169
2213.01362,0.00283
2211.98336,0.00361
2210.95309,0.00313
2209.92282,0.00262
2208.89256,0.00223
2207.86229,0.00150
2206.83202,0.00147
2205.80175,0.00224
2204.77149,0.00246
2203.74122,0.00241
2202.71095,0.00274
2201.68069,0.00301
2200.65042,0.00386
2199.62015,0.00467
2198.58989,0.00435
2197.55962,0.00354
2196.52935,0.00203
2195.49908,0.00053
2194.46882,0.00048
2193.43855,0.00087
2192.40828,0.00091
2191.37802,0.00121
2190.34775,0.00235
2189.31748,0.00362
2188.28721,0.00362
2187.25695,0.00281
2186.22668,0.00231
2185.19641,0.00285
2184.16615,0.00335
2183.13588,0.00251
2182.10561,0.00201
2181.07535,0.00259
2180.04508,0.00432
2179.01481,0.00696
2177.98454,0.00773
2176.95428,0.00572
2175.92401,0.00380
2174.89374,0.00328
2173.86348,0.00301
2172.83321,0.00352
2171.80294,0.00440
2170.77267,0.00383
2169.74241,0.00192
2168.71214,0.00003
2167.68187,-0.00125
2166.65161,-0.00158
2165.62134,-0.00056
2164.59107,0.00117
2163.56081,0.00379
2162.53054,0.00574
2161.50027,0.00398
2160.47000,0.00105
2159.43974,0.00075
2158.40947,0.00194
2157.37920,0.00139
2156.34894,-0.00122
2155.31867,-0.00147
2154.28840,0.00110
2153.25813,0.00223
2152.22787,0.00204
2151.19760,0.00113
2150.16733,-0.00038
2149.13707,-0.00032
2148.10680,0.00092
2147.07653,0.00142
2146.04627,0.00171
2145.01600,0.00359
2143.98573,0.00577
2142.95546,0.00617
2141.92520,0.00548
2140.89493,0.00478
2139.86466,0.00448
2138.83440,0.00440
2137.80413,0.00456
2136.77386,0.00558
2135.74360,0.00713
2134.71333,0.00728
2133.68306,0.00589
2132.65279,0.00519
2131.62253,0.00532
2130.59226,0.00547
2129.56199,0.00579
2128.53173,0.00567
2127.50146,0.00524
2126.47119,0.00518
2125.44092,0.00549
2124.41066,0.00591
2123.38039,0.00578
2122.35012,0.00528
2121.31986,0.00545
2120.28959,0.00650
2119.25932,0.00725
2118.22906,0.00704
2117.19879,0.00671
2116.16852,0.00683
2115.13825,0.00717
2114.10799,0.00744
2113.07772,0.00703
2112.04745,0.00610
2111.01719,0.00584
2109.98692,0.00603
2108.95665,0.00587
2107.92638,0.00577
2106.89612,0.00597
2105.86585,0.00601
2104.83558,0.00617
2103.80532,0.00694
2102.77505,0.00739
2101.74478,0.00728
2100.71452,0.00769
2099.68425,0.00824
2098.65398,0.00824
2097.62371,0.00806
2096.59345,0.00719
2095.56318,0.00585
2094.53291,0.00551
2093.50265,0.00570
2092.47238,0.00595
2091.44211,0.00692
2090.41184,0.00824
2089.38158,0.00883
2088.35131,0.00841
2087.32104,0.00737
2086.29078,0.00627
2085.26051,0.00551
2084.23024,0.00503
2083.19998,0.00502
2082.16971,0.00521
2081.13944,0.00527
2080.10917,0.00503
2079.07891,0.00434
2078.04864,0.00427
2077.01837,0.00511
2075.98811,0.00571
2074.95784,0.00613
2073.92757,0.00645
2072.89731,0.00538
2071.86704,0.00355
2070.83677,0.00359
2069.80650,0.00445
2068.77624,0.00382
2067.74597,0.00344
2066.71570,0.00429
2065.68544,0.00493
2064.65517,0.00534
2063.62490,0.00583
2062.59463,0.00609
2061.56437,0.00604
2060.53410,0.00575
2059.50383,0.00531
2058.47357,0.00441
2057.44330,0.00342
2056.41303,0.00304
2055.38277,0.00306
2054.35250,0.00368
2053.32223,0.00496
2052.29196,0.00604
2051.26170,0.00664
2050.23143,0.00712
2049.20116,0.00697
2048.17090,0.00644
2047.14063,0.00695
2046.11036,0.00704
2045.08009,0.00564
2044.04983,0.00529
2043.01956,0.00597
2041.98929,0.00531
2040.95903,0.00359
2039.92876,0.00223
2038.89849,0.00222
2037.86823,0.00367
2036.83796,0.00580
2035.80769,0.00700
2034.77742,0.00616
2033.74716,0.00479
2032.71689,0.00348
2031.68662,0.00191
2030.65636,0.00108
2029.62609,0.00155
2028.59582,0.00303
2027.56555,0.00418
2026.53529,0.00414
2025.50502,0.00357
2024.47475,0.00300
2023.44449,0.00186
2022.41422,0.00103
2021.38395,0.00250
2020.35369,0.00423
2019.32342,0.00485
2018.29315,0.00597
2017.26288,0.00677
2016.23262,0.00656
2015.20235,0.00590
2014.17208,0.00497
2013.14182,0.00442
2012.11155,0.00399
2011.08128,0.00324
2010.05101,0.00283
2009.02075,0.00307
2007.99048,0.00353
2006.96021,0.00387
2005.92995,0.00416
2004.89968,0.00526
2003.86941,0.00710
2002.83915,0.00674
2001.80888,0.00381
2000.77861,0.00260
1999.74834,0.00401
1998.71808,0.00484
1997.68781,0.00488
1996.65754,0.00579
1995.62728,0.00686
1994.59701,0.00696
1993.56674,0.00653
1992.53648,0.00597
1991.50621,0.00551
1990.47594,0.00567
1989.44567,0.00612
1988.41541,0.00650
1987.38514,0.00623
1986.35487,0.00558
1985.32461,0.00595
1984.29434,0.00685
1983.26407,0.00775
1982.23380,0.00834
1981.20354,0.00759
1980.17327,0.00572
1979.14300,0.00411
1978.11274,0.00460
1977.08247,0.00611
1976.05220,0.00589
1975.02194,0.00508
1973.99167,0.00549
1972.96140,0.00642
1971.93113,0.00641
1970.90087,0.00602
1969.87060,0.00658
1968.84033,0.00688
1967.81007,0.00667
1966.77980,0.00723
1965.74953,0.00798
1964.71926,0.00764
1963.68900,0.00638
1962.65873,0.00564
1961.62846,0.00575
1960.59820,0.00671
1959.56793,0.00869
1958.53766,0.00914
1957.50740,0.00741
1956.47713,0.00700
1955.44686,0.00850
1954.41659,0.00941
1953.38633,0.00881
1952.35606,0.00768
1951.32579,0.00723
1950.29553,0.00702
1949.26526,0.00686
1948.23499,0.00787
1947.20472,0.00856
1946.17446,0.00750
1945.14419,0.00698
1944.11392,0.00751
1943.08366,0.00712
1942.05339,0.00651
1941.02312,0.00724
1939.99286,0.00804
1938.96259,0.00782
1937.93232,0.00741
1936.90205,0.00771
1935.87179,0.00856
1934.84152,0.00901
1933.81125,0.00849
1932.78099,0.00782
1931.75072,0.00797
1930.72045,0.00881
1929.69019,0.00921
1928.65992,0.00852
1927.62965,0.00737
1926.59938,0.00678
1925.56912,0.00713
1924.53885,0.00753
1923.50858,0.00697
1922.47832,0.00596
1921.44805,0.00576
1920.41778,0.00633
1919.38751,0.00675
1918.35725,0.00652
1917.32698,0.00608
1916.29671,0.00583
1915.26645,0.00587
1914.23618,0.00633
1913.20591,0.00665
1912.17565,0.00642
1911.14538,0.00626
1910.11511,0.00655
1909.08484,0.00677
1908.05458,0.00648
1907.02431,0.00586
1905.99404,0.00539
1904.96378,0.00524
1903.93351,0.00564
1902.90324,0.00622
1901.87297,0.00611
1900.84271,0.00513
1899.81244,0.00398
1898.78217,0.00393
1897.75191,0.00450
1896.72164,0.00417
1895.69137,0.00340
1894.66111,0.00348
1893.63084,0.00402
1892.60057,0.00424
1891.57030,0.00434
1890.54004,0.00428
1889.50977,0.00396
1888.47950,0.00395
1887.44924,0.00457
1886.41897,0.00537
1885.38870,0.00562
1884.35843,0.00537
1883.32817,0.00501
1882.29790,0.00459
1881.26763,0.00442
1880.23737,0.00462
1879.20710,0.00456
1878.17683,0.00398
1877.14657,0.00366
1876.11630,0.00402
1875.08603,0.00429
1874.05576,0.00430
1873.02550,0.00419
1871.99523,0.00384
1870.96496,0.00366
1869.93470,0.00414
1868.90443,0.00469
1867.87416,0.00454
1866.84389,0.00432
1865.81363,0.00451
1864.78336,0.00460
1863.75309,0.00410
1862.72283,0.00351
1861.69256,0.00346
1860.66229,0.00398
1859.63203,0.00443
1858.60176,0.00447
1857.57149,0.00446
1856.54122,0.00428
1855.51096,0.00389
1854.48069,0.00379
1853.45042,0.00411
1852.42016,0.00451
1851.38989,0.00462
1850.35962,0.00425
1849.32936,0.00378
1848.29909,0.00360
1847.26882,0.00369
1846.23855,0.00398
1845.20829,0.00417
1844.17802,0.00411
1843.14775,0.00395
1842.11749,0.00387
1841.08722,0.00398
1840.05695,0.00392
1839.02668,0.00361
1837.99642,0.00395
1836.96615,0.00462
1835.93588,0.00438
1834.90562,0.00380
1833.87535,0.00367
1832.84508,0.00376
1831.81482,0.00397
1830.78455,0.00430
1829.75428,0.00439
1828.72401,0.00415
1827.69375,0.00390
1826.66348,0.00391
1825.63321,0.00423
1824.60295,0.00457
1823.57268,0.00485
1822.54241,0.00499
1821.51214,0.00479
1820.48188,0.00433
1819.45161,0.00408
1818.42134,0.00438
1817.39108,0.00475
1816.36081,0.00505
1815.33054,0.00515
1814.30028,0.00469
1813.27001,0.00409
1812.23974,0.00397
1811.20947,0.00460
1810.17921,0.00540
1809.14894,0.00540
1808.11867,0.00507
1807.08841,0.00525
1806.05814,0.00568
1805.02787,0.00571
1803.99760,0.00539
1802.96734,0.00513
1801.93707,0.00496
1800.90680,0.00491
1799.87654,0.00523
1798.84627,0.00561
1797.81600,0.00564
1796.78574,0.00550
1795.75547,0.00543
1794.72520,0.00545
1793.69493,0.00544
1792.66467,0.00550
1791.63440,0.00587
1790.60413,0.00622
1789.57387,0.00613
1788.54360,0.00582
1787.51333,0.00550
1786.48307,0.00535
1785.45280,0.00550
1784.42253,0.00579
1783.39226,0.00599
1782.36200,0.00607
1781.33173,0.00618
1780.30146,0.00620
1779.27120,0.00609
1778.24093,0.00611
1777.21066,0.00633
1776.18039,0.00670
1775.15013,0.00682
1774.11986,0.00658
1773.08959,0.00639
1772.05933,0.00634
1771.02906,0.00629
1769.99879,0.00637
1768.96853,0.00663
1767.93826,0.00690
1766.90799,0.00700
1765.87772,0.00688
1764.84746,0.00671
1763.81719,0.00676
1762.78692,0.00693
1761.75666,0.00701
1760.72639,0.00716
1759.69612,0.00742
1758.66585,0.00762
1757.63559,0.00759
1756.60532,0.00732
1755.57505,0.00702
1754.54479,0.00685
1753.51452,0.00691
1752.48425,0.00729
1751.45399,0.00763
1750.42372,0.00766
1749.39345,0.00778
1748.36318,0.00790
1747.33292,0.00777
1746.30265,0.00771
1745.27238,0.00786
1744.24212,0.00813
1743.21185,0.00825
1742.18158,0.00814
1741.15131,0.00799
1740.12105,0.00787
1739.09078,0.00806
1738.06051,0.00843
1737.03025,0.00861
1735.99998,0.00869
1734.96971,0.00890
1733.93945,0.00907
1732.90918,0.00876
1731.87891,0.00857
1730.84864,0.00873
1729.81838,0.00889
1728.78811,0.00888
1727.75784,0.00888
1726.72758,0.00896
1725.69731,0.00915
1724.66704,0.00946
1723.63677,0.00977
1722.60651,0.00994
1721.57624,0.00992
1720.54597,0.01014
1719.51571,0.01092
1718.48544,0.01184
1717.45517,0.01201
1716.42491,0.01154
1715.39464,0.01129
1714.36437,0.01142
1713.33410,0.01167
1712.30384,0.01188
1711.27357,0.01209
1710.24330,0.01228
1709.21304,0.01244
1708.18277,0.01262
1707.15250,0.01305
1706.12224,0.01378
1705.09197,0.01424
1704.06170,0.01422
1703.03143,0.01414
1702.00117,0.01434
1700.97090,0.01493
1699.94063,0.01595
1698.91037,0.01661
1697.88010,0.01687
1696.84983,0.01703
1695.81956,0.01745
1694.78930,0.01801
1693.75903,0.01836
1692.72876,0.01888
1691.69850,0.01969
1690.66823,0.02063
1689.63796,0.02143
1688.60770,0.02202
1687.57743,0.02257
1686.54716,0.02318
1685.51689,0.02416
1684.48663,0.02560
1683.45636,0.02657
1682.42609,0.02736
1681.39583,0.02837
1680.36556,0.02930
1679.33529,0.03020
1678.30502,0.03130
1677.27476,0.03246
1676.24449,0.03346
1675.21422,0.03459
1674.18396,0.03579
1673.15369,0.03685
1672.12342,0.03804
1671.09316,0.03941
1670.06289,0.04069
1669.03262,0.04211
1668.00235,0.04369
1666.97209,0.04509
1665.94182,0.04637
1664.91155,0.04762
1663.88129,0.04909
1662.85102,0.05067
1661.82075,0.05187
1660.79048,0.05298
1659.76022,0.05438
1658.72995,0.05591
1657.69968,0.05727
1656.66942,0.05851
1655.63915,0.05985
1654.60888,0.06138
1653.57862,0.06284
1652.54835,0.06312
1651.51808,0.06327
1650.48781,0.06413
1649.45755,0.06526
1648.42728,0.06628
1647.39701,0.06674
1646.36675,0.06649
1645.33648,0.06594
1644.30621,0.06588
1643.27595,0.06596
1642.24568,0.06575
1641.21541,0.06526
1640.18514,0.06488
1639.15488,0.06477
1638.12461,0.06447
1637.09434,0.06382
1636.06408,0.06298
1635.03381,0.06154
1634.00354,0.06028
1632.97327,0.05944
1631.94301,0.05851
1630.91274,0.05754
1629.88247,0.05663
1628.85221,0.05566
1627.82194,0.05426
1626.79167,0.05276
1625.76141,0.05177
1624.73114,0.05077
1623.70087,0.04895
1622.67060,0.04684
1621.64034,0.04556
1620.61007,0.04445
1619.57980,0.04306
1618.54954,0.04173
1617.51927,0.04027
1616.48900,0.03804
1615.45873,0.03631
1614.42847,0.03525
1613.39820,0.03399
1612.36793,0.03269
1611.33767,0.03173
1610.30740,0.03095
1609.27713,0.03007
1608.24687,0.02924
1607.21660,0.02846
1606.18633,0.02755
1605.15606,0.02652
1604.12580,0.02560
1603.09553,0.02494
1602.06526,0.02442
1601.03500,0.02391
1600.00473,0.02340
1598.97446,0.02262
1597.94419,0.02177
1596.91393,0.02128
1595.88366,0.02090
1594.85339,0.02046
1593.82313,0.01993
1592.79286,0.01938
1591.76259,0.01897
1590.73233,0.01857
1589.70206,0.01816
1588.67179,0.01777
1587.64152,0.01734
1586.61126,0.01691
1585.58099,0.01655
1584.55072,0.01624
1583.52046,0.01588
1582.49019,0.01545
1581.45992,0.01504
1580.42966,0.01470
1579.39939,0.01452
1578.36912,0.01455
1577.33885,0.01480
1576.30859,0.01500
1575.27832,0.01476
1574.24805,0.01429
1573.21779,0.01377
1572.18752,0.01339
1571.15725,0.01326
1570.12698,0.01326
1569.09672,0.01318
1568.06645,0.01295
1567.03618,0.01267
1566.00592,0.01254
1564.97565,0.01277
1563.94538,0.01309
1562.91512,0.01315
1561.88485,0.01306
1560.85458,0.01291
1559.82431,0.01284
1558.79405,0.01316
1557.76378,0.01287
1556.73351,0.01226
1555.70325,0.01222
1554.67298,0.01240
1553.64271,0.01220
1552.61244,0.01195
1551.58218,0.01190
1550.55191,0.01189
1549.52164,0.01185
1548.49138,0.01181
1547.46111,0.01182
1546.43084,0.01192
1545.40058,0.01201
1544.37031,0.01197
1543.34004,0.01214
1542.30977,0.01242
1541.27951,0.01241
1540.24924,0.01238
1539.21897,0.01229
1538.18871,0.01169
1537.15844,0.01108
1536.12817,0.01078
1535.09790,0.01080
1534.06764,0.01106
1533.03737,0.01150
1532.00710,0.01192
1530.97684,0.01217
1529.94657,0.01233
1528.91630,0.01249
1527.88604,0.01259
1526.85577,0.01273
1525.82550,0.01282
1524.79523,0.01258
1523.76497,0.01239
1522.73470,0.01252
1521.70443,0.01282
1520.67417,0.01309
1519.64390,0.01315
1518.61363,0.01320
1517.58336,0.01341
1516.55310,0.01361
1515.52283,0.01353
1514.49256,0.01325
1513.46230,0.01292
1512.43203,0.01275
1511.40176,0.01280
1510.37150,0.01315
1509.34123,0.01387
1508.31096,0.01463
1507.28069,0.01479
1506.25043,0.01417
1505.22016,0.01391
1504.18989,0.01425
1503.15963,0.01461
1502.12936,0.01480
1501.09909,0.01515
1500.06883,0.01581
1499.03856,0.01655
1498.00829,0.01734
1496.97802,0.01840
1495.94776,0.01979
1494.91749,0.02104
1493.88722,0.02243
1492.85696,0.02402
1491.82669,0.02565
1490.79642,0.02777
1489.76615,0.03000
1488.73589,0.03125
1487.70562,0.03207
1486.67535,0.03306
1485.64509,0.03396
1484.61482,0.03485
1483.58455,0.03596
1482.55429,0.03731
1481.52402,0.03888
1480.49375,0.04084
1479.46348,0.04328
1478.43322,0.04608
1477.40295,0.04925
1476.37268,0.05313
1475.34242,0.05694
1474.31215,0.06010
1473.28188,0.06341
1472.25161,0.06634
1471.22135,0.06798
1470.19108,0.06880
1469.16081,0.06943
1468.13055,0.06993
1467.10028,0.07054
1466.07001,0.07145
1465.03975,0.07247
1464.00948,0.07321
1462.97921,0.07388
1461.94894,0.07484
1460.91868,0.07586
1459.88841,0.07678
1458.85814,0.07769
1457.82788,0.07866
1456.79761,0.07917
1455.76734,0.07927
1454.73707,0.07925
1453.70681,0.07900
1452.67654,0.07844
1451.64627,0.07745
1450.61601,0.07581
1449.58574,0.07367
1448.55547,0.07125
1447.52521,0.06860
1446.49494,0.06615
1445.46467,0.06401
1444.43440,0.06226
1443.40414,0.06092
1442.37387,0.05949
1441.34360,0.05756
1440.31334,0.05540
1439.28307,0.05342
1438.25280,0.05163
1437.22254,0.04938
1436.19227,0.04596
1435.16200,0.04327
1434.13173,0.04158
1433.10147,0.04001
1432.07120,0.03851
1431.04093,0.03739
1430.01067,0.03640
1428.98040,0.03550
1427.95013,0.03502
1426.91986,0.03478
1425.88960,0.03452
1424.85933,0.03419
1423.82906,0.03382
1422.79880,0.03349
1421.76853,0.03326
1420.73826,0.03321
1419.70800,0.03326
1418.67773,0.03336
1417.64746,0.03344
1416.61719,0.03320
1415.58693,0.03273
1414.55666,0.03256
1413.52639,0.03276
1412.49613,0.03295
1411.46586,0.03302
1410.43559,0.03304
1409.40532,0.03305
1408.37506,0.03312
1407.34479,0.03329
1406.31452,0.03347
1405.28426,0.03366
1404.25399,0.03372
1403.22372,0.03355
1402.19346,0.03335
1401.16319,0.03340
1400.13292,0.03365
1399.10265,0.03388
1398.07239,0.03390
1397.04212,0.03399
1396.01185,0.03426
1394.98159,0.03442
1393.95132,0.03451
1392.92105,0.03473
1391.89078,0.03490
1390.86052,0.03504
1389.83025,0.03523
1388.79998,0.03539
1387.76972,0.03564
1386.73945,0.03599
1385.70918,0.03649
1384.67892,0.03712
1383.64865,0.03762
1382.61838,0.03794
1381.58811,0.03829
1380.55785,0.03878
1379.52758,0.03956
1378.49731,0.04046
1377.46705,0.04113
1376.43678,0.04176
1375.40651,0.04265
1374.37624,0.04371
1373.34598,0.04481
1372.31571,0.04609
1371.28544,0.04744
1370.25518,0.04862
1369.22491,0.04974
1368.19464,0.05121
1367.16438,0.05317
1366.13411,0.05540
1365.10384,0.05779
1364.07357,0.06040
1363.04331,0.06335
1362.01304,0.06646
1360.98277,0.06967
1359.95251,0.07320
1358.92224,0.07720
1357.89197,0.08168
1356.86171,0.08640
1355.83144,0.09128
1354.80117,0.09669
1353.77090,0.10277
1352.74064,0.10886
1351.71037,0.11422
1350.68010,0.11858
1349.64984,0.12189
1348.61957,0.12364
1347.58930,0.12253
1346.55903,0.11760
1345.52877,0.10885
1344.49850,0.09723
1343.46823,0.08464
1342.43797,0.07350
1341.40770,0.06507
1340.37743,0.05901
1339.34717,0.05506
1338.31690,0.05292
1337.28663,0.05189
1336.25636,0.05142
1335.22610,0.05151
1334.19583,0.05203
1333.16556,0.05269
1332.13530,0.05355
1331.10503,0.05471
1330.07476,0.05602
1329.04449,0.05721
1328.01423,0.05800
1326.98396,0.05830
1325.95369,0.05803
1324.92343,0.05718
1323.89316,0.05595
1322.86289,0.05454
1321.83263,0.05301
1320.80236,0.05157
1319.77209,0.05056
1318.74182,0.05020
1317.71156,0.05042
1316.68129,0.05102
1315.65102,0.05198
1314.62076,0.05341
1313.59049,0.05526
1312.56022,0.05745
1311.52995,0.05988
1310.49969,0.06262
1309.46942,0.06580
1308.43915,0.06903
1307.40889,0.07195
1306.37862,0.07468
1305.34835,0.07731
1304.31809,0.07978
1303.28782,0.08178
1302.25755,0.08320
1301.22728,0.08423
1300.19702,0.08499
1299.16675,0.08562
1298.13648,0.08606
1297.10622,0.08620
1296.07595,0.08612
1295.04568,0.08599
1294.01542,0.08586
1292.98515,0.08563
1291.95488,0.08529
1290.92461,0.08485
1289.89435,0.08436
1288.86408,0.08394
1287.83381,0.08340
1286.80355,0.08270
1285.77328,0.08199
1284.74301,0.08117
1283.71274,0.07991
1282.68248,0.07838
1281.65221,0.07703
1280.62194,0.07582
1279.59168,0.07445
1278.56141,0.07272
1277.53114,0.07076
1276.50088,0.06899
1275.47061,0.06734
1274.44034,0.06578
1273.41007,0.06456
1272.37981,0.06349
1271.34954,0.06250
1270.31927,0.06176
1269.28901,0.06147
1268.25874,0.06177
1267.22847,0.06240
1266.19820,0.06320
1265.16794,0.06433
1264.13767,0.06573
1263.10740,0.06747
1262.07714,0.06994
1261.04687,0.07302
1260.01660,0.07623
1258.98634,0.07941
1257.95607,0.08258
1256.92580,0.08577
1255.89553,0.08894
1254.86527,0.09193
1253.83500,0.09467
1252.80473,0.09703
1251.77447,0.09876
1250.74420,0.10001
1249.71393,0.10090
1248.68366,0.10120
1247.65340,0.10096
1246.62313,0.10006
1245.59286,0.09823
1244.56260,0.09574
1243.53233,0.09296
1242.50206,0.08994
1241.47180,0.08681
1240.44153,0.08371
1239.41126,0.08054
1238.38099,0.07722
1237.35073,0.07387
1236.32046,0.07067
1235.29019,0.06773
1234.25993,0.06501
1233.22966,0.06231
1232.19939,0.05951
1231.16912,0.05670
1230.13886,0.05426
1229.10859,0.05238
1228.07832,0.05082
1227.04806,0.04937
1226.01779,0.04789
1224.98752,0.04650
1223.95726,0.04529
1222.92699,0.04421
1221.89672,0.04338
1220.86645,0.04277
1219.83619,0.04213
1218.80592,0.04139
1217.77565,0.04055
1216.74539,0.03945
1215.71512,0.03826
1214.68485,0.03739
1213.65459,0.03671
1212.62432,0.03594
1211.59405,0.03513
1210.56378,0.03441
1209.53352,0.03383
1208.50325,0.03330
1207.47298,0.03276
1206.44272,0.03247
1205.41245,0.03245
1204.38218,0.03244
1203.35191,0.03224
1202.32165,0.03177
1201.29138,0.03138
1200.26111,0.03138
1199.23085,0.03154
1198.20058,0.03151
1197.17031,0.03122
1196.14005,0.03102
1195.10978,0.03111
1194.07951,0.03129
1193.04924,0.03142
1192.01898,0.03147
1190.98871,0.03162
1189.95844,0.03192
1188.92818,0.03207
1187.89791,0.03217
1186.86764,0.03248
1185.83737,0.03309
1184.80711,0.03396
1183.77684,0.03463
1182.74657,0.03494
1181.71631,0.03529
1180.68604,0.03582
1179.65577,0.03662
1178.62551,0.03760
1177.59524,0.03862
1176.56497,0.03979
1175.53470,0.04108
1174.50444,0.04230
1173.47417,0.04351
1172.44390,0.04494
1171.41364,0.04659
1170.38337,0.04833
1169.35310,0.05020
1168.32283,0.05228
1167.29257,0.05464
1166.26230,0.05765
1165.23203,0.06125
1164.20177,0.06518
1163.17150,0.06964
1162.14123,0.07479
1161.11097,0.08057
1160.08070,0.08691
1159.05043,0.09367
1158.02016,0.10090
1156.98990,0.10874
1155.95963,0.11705
1154.92936,0.12583
1153.89910,0.13519
1152.86883,0.14480
1151.83856,0.15420
1150.80830,0.16353
1149.77803,0.17288
1148.74776,0.18217
1147.71749,0.19141
1146.68723,0.20016
1145.65696,0.20824
1144.62669,0.21645
1143.59643,0.22487
1142.56616,0.23272
1141.53589,0.23970
1140.50562,0.24600
1139.47536,0.25166
1138.44509,0.25694
1137.41482,0.26224
1136.38456,0.26729
1135.35429,0.27176
1134.32402,0.27606
1133.29376,0.28058
1132.26349,0.28497
1131.23322,0.28893
1130.20295,0.29319
1129.17269,0.29813
1128.14242,0.30315
1127.11215,0.30816
1126.08189,0.31322
1125.05162,0.31842
1124.02135,0.32415
1122.99108,0.33054
1121.96082,0.33721
1120.93055,0.34362
1119.90028,0.34990
1118.87002,0.35637
1117.83975,0.36294
1116.80948,0.36986
1115.77922,0.37739
1114.74895,0.38515
1113.71868,0.39299
1112.68841,0.40061
1111.65815,0.40794
1110.62788,0.41549
1109.59761,0.42317
1108.56735,0.43091
1107.53708,0.43926
1106.50681,0.44808
1105.47654,0.45662
1104.44628,0.46512
1103.41601,0.47380
1102.38574,0.48202
1101.35548,0.49010
1100.32521,0.49820
1099.29494,0.50588
1098.26468,0.51344
1097.23441,0.52060
1096.20414,0.52690
1095.17387,0.53289
1094.14361,0.53872
1093.11334,0.54342
1092.08307,0.54601
1091.05281,0.54772
1090.02254,0.54990
1088.99227,0.55135
1087.96201,0.55132
1086.93174,0.55098
1085.90147,0.55041
1084.87120,0.54816
1083.84094,0.54429
1082.81067,0.54033
1081.78040,0.53682
1080.75014,0.53269
1079.71987,0.52756
1078.68960,0.52214
1077.65933,0.51689
1076.62907,0.51198
1075.59880,0.50707
1074.56853,0.50181
1073.53827,0.49678
1072.50800,0.49173
1071.47773,0.48619
1070.44747,0.48093
1069.41720,0.47623
1068.38693,0.47167
1067.35666,0.46684
1066.32640,0.46138
1065.29613,0.45518
1064.26586,0.44793
1063.23560,0.43936
1062.20533,0.42981
1061.17506,0.41972
1060.14479,0.40905
1059.11453,0.39763
1058.08426,0.38573
1057.05399,0.37335
1056.02373,0.36027
1054.99346,0.34720
1053.96319,0.33503
1052.93293,0.32382
1051.90266,0.31333
1050.87239,0.30339
1049.84212,0.29399
1048.81186,0.28580
1047.78159,0.27938
1046.75132,0.27440
1045.72106,0.27053
1044.69079,0.26745
1043.66052,0.26497
1042.63025,0.26344
1041.59999,0.26271
1040.56972,0.26230
1039.53945,0.26201
1038.50919,0.26140
1037.47892,0.26032
1036.44865,0.25888
1035.41839,0.25722
1034.38812,0.25573
1033.35785,0.25392
1032.32758,0.25103
1031.29732,0.24739
1030.26705,0.24288
1029.23678,0.23717
1028.20652,0.23110
1027.17625,0.22505
1026.14598,0.21846
1025.11571,0.21173
1024.08545,0.20500
1023.05518,0.19743
1022.02491,0.18936
1020.99465,0.18155
1019.96438,0.17411
1018.93411,0.16719
1017.90385,0.16086
1016.87358,0.15476
1015.84331,0.14867
1014.81304,0.14269
1013.78278,0.13705
1012.75251,0.13211
1011.72224,0.12809
1010.69198,0.12462
1009.66171,0.12142
1008.63144,0.11863
1007.60118,0.11627
1006.57091,0.11436
1005.54064,0.11276
1004.51037,0.11121
1003.48011,0.10984
1002.44984,0.10894
1001.41957,0.10866
1000.38931,0.10879
999.35904,0.10878
998.32877,0.10837
997.29850,0.10792
996.26824,0.10784
995.23797,0.10795
994.20770,0.10754
993.17744,0.10639
992.14717,0.10525
991.11690,0.10418
990.08664,0.10278
989.05637,0.10117
988.02610,0.09954
986.99583,0.09769
985.96557,0.09546
984.93530,0.09326
983.90503,0.09155
982.87477,0.09003
981.84450,0.08834
980.81423,0.08648
979.78396,0.08465
978.75370,0.08323
977.72343,0.08224
976.69316,0.08123
975.66290,0.08008
974.63263,0.07940
973.60236,0.07962
972.57210,0.08023
971.54183,0.08089
970.51156,0.08185
969.48129,0.08331
968.45103,0.08528
967.42076,0.08784
966.39049,0.09108
965.36023,0.09502
964.32996,0.09956
963.29969,0.10475
962.26942,0.11099
961.23916,0.11787
960.20889,0.12473
959.17862,0.13211
958.14836,0.14042
957.11809,0.14888
956.08782,0.15709
955.05756,0.16519
954.02729,0.17286
952.99702,0.17968
951.96675,0.18569
950.93649,0.19096
949.90622,0.19550
948.87595,0.19893
947.84569,0.20054
946.81542,0.20092
945.78515,0.20090
944.75489,0.20048
943.72462,0.19992
942.69435,0.19901
941.66408,0.19716
940.63382,0.19444
939.60355,0.19161
938.57328,0.18892
937.54302,0.18608
936.51275,0.18328
935.48248,0.18057
934.45221,0.17763
933.42195,0.17436
932.39168,0.17084
931.36141,0.16722
930.33115,0.16401
929.30088,0.16106
928.27061,0.15759
927.24035,0.15416
926.21008,0.15144
925.17981,0.14881
924.14954,0.14589
923.11928,0.14283
922.08901,0.13981
921.05874,0.13702
920.02848,0.13480
918.99821,0.13307
917.96794,0.13095
916.93767,0.12836
915.90741,0.12588
914.87714,0.12355
913.84687,0.12116
912.81661,0.11884
911.78634,0.11637
910.75607,0.11336
909.72581,0.11022
908.69554,0.10771
907.66527,0.10576
906.63500,0.10358
905.60474,0.10097
904.57447,0.09836
903.54420,0.09629
902.51394,0.09494
901.48367,0.09395
900.45340,0.09303
899.42313,0.09222
898.39287,0.09217
897.36260,0.09326
896.33233,0.09480
895.30207,0.09633
894.27180,0.09795
893.24153,0.09975
892.21127,0.10216
891.18100,0.10527
890.15073,0.10836
889.12046,0.11120
888.09020,0.11414
887.05993,0.11672
886.02966,0.11832
884.99940,0.11885
883.96913,0.11858
882.93886,0.11835
881.90859,0.11776
880.87833,0.11571
879.84806,0.11283
878.81779,0.11017
877.78753,0.10799
876.75726,0.10634
875.72699,0.10530
874.69673,0.10491
873.66646,0.10505
872.63619,0.10561
871.60592,0.10662
870.57566,0.10797
869.54539,0.10930
868.51512,0.11057
867.48486,0.11194
866.45459,0.11344
865.42432,0.11483
864.39406,0.11532
863.36379,0.11530
862.33352,0.11599
861.30325,0.11734
860.27299,0.11920
859.24272,0.12145
858.21245,0.12335
857.18219,0.12451
856.15192,0.12548
855.12165,0.12675
854.09138,0.12846
853.06112,0.13070
852.03085,0.13310
851.00058,0.13506
849.97032,0.13696
848.94005,0.13936
847.90978,0.14157
846.87952,0.14314
845.84925,0.14438
844.81898,0.14524
843.78871,0.14565
842.75845,0.14582
841.72818,0.14630
840.69791,0.14717
839.66765,0.14787
838.63738,0.14811
837.60711,0.14761
836.57684,0.14627
835.54658,0.14463
834.51631,0.14293
833.48604,0.14093
832.45578,0.13862
831.42551,0.13612
830.39524,0.13367
829.36498,0.13160
828.33471,0.12957
827.30444,0.12743
826.27417,0.12541
825.24391,0.12316
824.21364,0.12095
823.18337,0.11919
822.15311,0.11734
821.12284,0.11551
820.09257,0.11403
819.06230,0.11272
818.03204,0.11164
817.00177,0.11096
815.97150,0.11041
814.94124,0.10952
813.91097,0.10817
812.88070,0.10694
811.85044,0.10638
810.82017,0.10624
809.78990,0.10594
808.75963,0.10510
807.72937,0.10420
806.69910,0.10371
805.66883,0.10291
804.63857,0.10158
803.60830,0.10072
802.57803,0.10048
801.54777,0.09955
800.51750,0.09794
799.48723,0.09690
798.45696,0.09639
797.42670,0.09584
796.39643,0.09515
795.36616,0.09466
794.33590,0.09446
793.30563,0.09410
792.27536,0.09335
791.24509,0.09240
790.21483,0.09139
789.18456,0.09056
788.15429,0.09031
787.12403,0.09058
786.09376,0.09081
785.06349,0.09077
784.03323,0.09075
783.00296,0.09073
781.97269,0.09039
780.94242,0.08999
779.91216,0.08982
778.88189,0.08966
777.85162,0.08939
776.82136,0.08907
775.79109,0.08901
774.76082,0.08926
773.73055,0.08926
772.70029,0.08906
771.67002,0.08912
770.63975,0.08942
769.60949,0.08986
768.57922,0.09035
767.54895,0.09076
766.51869,0.09143
765.48842,0.09248
764.45815,0.09316
763.42788,0.09308
762.39762,0.09351
761.36735,0.09499
760.33708,0.09582
759.30682,0.09569
758.27655,0.09573
757.24628,0.09597
756.21601,0.09624
755.18575,0.09700
754.15548,0.09820
753.12521,0.09932
752.09495,0.10018
751.06468,0.10077
750.03441,0.10104
749.00415,0.10141
747.97388,0.10232
746.94361,0.10364
745.91334,0.10478
744.88308,0.10548
743.85281,0.10621
742.82254,0.10704
741.79228,0.10726
740.76201,0.10746
739.73174,0.10861
738.70147,0.10975
737.67121,0.11022
736.64094,0.11056
735.61067,0.11126
734.58041,0.11253
733.55014,0.11394
732.51987,0.11465
731.48961,0.11471
730.45934,0.11510
729.42907,0.11597
728.39880,0.11684
727.36854,0.11750
726.33827,0.11835
725.30800,0.11967
724.27774,0.12071
723.24747,0.12127
722.21720,0.12183
721.18694,0.12239
720.15667,0.12306
719.12640,0.12395
718.09613,0.12468
717.06587,0.12524
716.03560,0.12618
715.00533,0.12770
713.97507,0.12886
712.94480,0.12921
711.91453,0.12960
710.88426,0.13015
709.85400,0.13054
708.82373,0.13126
707.79346,0.13254
706.76320,0.13379
705.73293,0.13444
704.70266,0.13530
703.67240,0.13668
702.64213,0.13737
701.61186,0.13747
700.58159,0.13782
699.55133,0.13857
698.52106,0.13950
697.49079,0.13996
696.46053,0.14039
695.43026,0.14163
694.39999,0.14262
693.36972,0.14274
692.33946,0.14327
691.30919,0.14452
690.27892,0.14578
689.24866,0.14695
688.21839,0.14793
687.18812,0.14870
686.15786,0.14965
685.12759,0.15032
684.09732,0.15010
683.06705,0.15003
682.03679,0.15098
681.00652,0.15205
679.97625,0.15276
678.94599,0.15393
677.91572,0.15504
676.88545,0.15541
675.85518,0.15614
674.82492,0.15757
673.79465,0.15881
672.76438,0.15944
671.73412,0.15998
670.70385,0.16115
669.67358,0.16308
668.64332,0.16499
667.61305,0.16395
666.58278,0.16305
665.55251,0.16412
664.52225,0.16523
663.49198,0.16564
662.46171,0.16601
661.43145,0.16632
660.40118,0.16673
659.37091,0.16803
658.34065,0.16970
657.31038,0.17069
656.28011,0.17102
655.24984,0.17106
654.21958,0.17111
653.18931,0.17190
652.15904,0.17376
651.12878,0.17552
650.09851,0.17579
649.06824,0.17557
648.03797,0.17602
647.00771,0.17608
645.97744,0.17620
644.94717,0.17752
643.91691,0.17892
642.88664,0.17937
641.85637,0.17928
640.82611,0.17983
639.79584,0.18127
638.76557,0.18209
637.73530,0.18214
636.70504,0.18285
635.67477,0.18394
634.64450,0.18479
633.61424,0.18571
632.58397,0.18683
631.55370,0.18812
630.52343,0.18941
629.49317,0.18991
628.46290,0.18962
627.43263,0.18940
626.40237,0.18930
625.37210,0.18981
624.34183,0.19133
623.31157,0.19273
622.28130,0.19323
621.25103,0.19350
620.22076,0.19445
619.19050,0.19532
618.16023,0.19588
617.12996,0.19644
616.09970,0.19649
615.06943,0.19704
614.03916,0.19826
613.00889,0.19901
611.97863,0.19889
610.94836,0.19878
609.91809,0.20064
608.88783,0.20307
607.85756,0.20294
606.82729,0.20225
605.79703,0.20390
604.76676,0.20585
603.73649,0.20641
602.70622,0.20694
601.67596,0.20842
600.64569,0.21004
599.61542,0.21067
598.58516,0.21130
597.55489,0.21231
596.52462,0.21239
595.49436,0.21212
594.46409,0.21298
593.43382,0.21486
592.40355,0.21650
591.37329,0.21753
590.34302,0.21821
589.31275,0.21848
588.28249,0.21911
587.25222,0.22105
586.22195,0.22330
585.19168,0.22407
584.16142,0.22420
583.13115,0.22513
582.10088,0.22657
581.07062,0.22826
580.04035,0.22988
579.01008,0.23117
577.97982,0.23215
576.94955,0.23296
575.91928,0.23421
574.88901,0.23575
573.85875,0.23648
572.82848,0.23607
571.79821,0.23566
570.76795,0.23605
569.73768,0.23689
568.70741,0.23760
567.67714,0.23868
566.64688,0.24039
565.61661,0.24146
564.58634,0.24160
563.55608,0.24129
562.52581,0.24158
561.49554,0.24276
560.46528,0.24365
559.43501,0.24493
558.40474,0.24664
557.37447,0.24681
556.34421,0.24619
555.31394,0.24707
554.28367,0.24914
553.25341,0.25038
552.22314,0.25092
551.19287,0.25204
550.16260,0.25237
549.13234,0.25104
548.10207,0.25028
547.07180,0.25105
546.04154,0.25169
545.01127,0.25189
543.98100,0.25318
542.95074,0.25519
541.92047,0.25602
540.89020,0.25521
539.85993,0.25410
538.82967,0.25349
537.79940,0.25376
536.76913,0.25601
535.73887,0.25918
534.70860,0.26153
533.67833,0.26212
532.64806,0.26049
531.61780,0.25854
530.58753,0.25859
529.55726,0.26082
528.52700,0.26314
527.49673,0.26306
526.46646,0.26207
525.43620,0.26411
524.40593,0.26655
523.37566,0.26517
522.34539,0.26299
521.31513,0.26366
520.28486,0.26647
519.25459,0.26960
518.22433,0.27121
517.19406,0.27013
516.16379,0.26824
515.13353,0.26863
514.10326,0.27117
513.07299,0.27273
512.04272,0.27137
511.01246,0.26848
509.98219,0.26680
508.95192,0.26678
507.92166,0.26669
506.89139,0.26633
505.86112,0.26667
504.83085,0.26828
503.80059,0.27020
502.77032,0.27115
501.74005,0.27092
500.70979,0.26884
499.67952,0.26692
498.64925,0.26687
497.61899,0.26582
496.58872,0.26430
495.55845,0.26408
494.52818,0.26349
493.49792,0.26245
492.46765,0.26274
491.43738,0.26465
490.40712,0.26483
489.37685,0.26207
488.34658,0.26042
487.31631,0.26158
486.28605,0.26269
485.25578,0.26162
484.22551,0.25915
483.19525,0.25753
482.16498,0.25781
481.13471,0.25789
480.10445,0.25713
479.07418,0.25707
478.04391,0.25680
477.01364,0.25500
475.98338,0.25367
474.95311,0.25364
473.92284,0.25339
472.89258,0.25432
471.86231,0.25612
470.83204,0.25493
469.80177,0.25379
468.77151,0.25511
467.74124,0.25553
466.71097,0.25634
465.68071,0.25806
464.65044,0.25651
463.62017,0.25253
462.58991,0.24954
461.55964,0.24784
460.52937,0.24570
459.49910,0.24512
458.46884,0.24927
457.43857,0.25315
456.40830,0.25311
455.37804,0.25395
454.34777,0.25555
453.31750,0.25629
452.28724,0.25619
451.25697,0.25538
450.22670,0.25415
449.19643,0.25233
448.16617,0.25141
447.13590,0.25065
446.10563,0.24821
445.07537,0.24757
444.04510,0.24780
443.01483,0.24584
441.98456,0.24417
440.95430,0.24463
439.92403,0.24837
438.89376,0.25295
437.86350,0.25331
436.83323,0.24889
435.80296,0.24541
434.77270,0.24572
433.74243,0.24546
432.71216,0.24453
431.68189,0.24462
430.65163,0.24586
429.62136,0.24767
428.59109,0.24721
427.56083,0.24527
426.53056,0.24390
425.50029,0.24404
424.47002,0.24528
423.43976,0.24391
422.40949,0.24153
421.37922,0.24311
420.34896,0.24850
419.31869,0.25261
418.28842,0.24919
417.25816,0.24351
416.22789,0.23745
415.19762,0.23106
414.16735,0.22820
413.13709,0.23257
412.10682,0.24121
411.07655,0.24416
410.04629,0.24017
409.01602,0.23635
407.98575,0.23556
406.95548,0.23675
405.92522,0.23669
404.89495,0.23246
403.86468,0.22787
402.83442,0.22693
401.80415,0.23077
400.77388,0.23802
399.74362,0.24147
