4998.85573,0.00149
4997.82546,-0.00049
4996.79519,-0.00095
4995.76493,-0.00037
4994.73466,-0.00013
4993.70439,0.00018
4992.67413,0.00140
4991.64386,0.00222
4990.61359,0.00202
4989.58332,0.00157
4988.55306,0.00101
4987.52279,0.00106
4986.49252,0.00184
4985.46226,0.00211
4984.43199,0.00169
4983.40172,0.00096
4982.37145,0.00054
4981.34119,0.00123
4980.31092,0.00201
4979.28065,0.00209
4978.25039,0.00154
4977.22012,0.00034
4976.18985,0.00044
4975.15959,0.00201
4974.12932,0.00262
4973.09905,0.00225
4972.06878,0.00156
4971.03852,0.00061
4970.00825,0.00046
4968.97798,0.00122
4967.94772,0.00156
4966.91745,0.00150
4965.88718,0.00174
4964.85691,0.00136
4963.82665,0.00046
4962.79638,0.00064
4961.76611,0.00186
4960.73585,0.00238
4959.70558,0.00133
4958.67531,0.00011
4957.64505,0.00004
4956.61478,0.00069
4955.58451,0.00087
4954.55424,0.00087
4953.52398,0.00148
4952.49371,0.00161
4951.46344,0.00102
4950.43318,0.00068
4949.40291,0.00047
4948.37264,0.00029
4947.34238,0.00034
4946.31211,0.00033
4945.28184,0.00011
4944.25157,-0.00015
4943.22131,-0.00044
4942.19104,-0.00016
4941.16077,0.00084
4940.13051,0.00105
4939.10024,0.00037
4938.06997,0.00046
4937.03970,0.00130
4936.00944,0.00166
4934.97917,0.00169
4933.94890,0.00267
4932.91864,0.00366
4931.88837,0.00290
4930.85810,0.00154
4929.82784,0.00084
4928.79757,0.00023
4927.76730,-0.00008
4926.73703,0.00042
4925.70677,0.00131
4924.67650,0.00210
4923.64623,0.00235
4922.61597,0.00222
4921.58570,0.00183
4920.55543,0.00095
4919.52516,0.00036
4918.49490,0.00081
4917.46463,0.00198
4916.43436,0.00251
4915.40410,0.00142
4914.37383,0.00001
4913.34356,0.00000
4912.31330,0.00104
4911.28303,0.00137
4910.25276,0.00029
4909.22249,-0.00051
4908.19223,0.00004
4907.16196,0.00107
4906.13169,0.00177
4905.10143,0.00212
4904.07116,0.00268
4903.04089,0.00293
4902.01062,0.00223
4900.98036,0.00172
4899.95009,0.00184
4898.91982,0.00131
4897.88956,0.00079
4896.85929,0.00184
4895.82902,0.00322
4894.79876,0.00327
4893.76849,0.00256
4892.73822,0.00240
4891.70795,0.00272
4890.67769,0.00249
4889.64742,0.00144
4888.61715,0.00037
4887.58689,0.00035
4886.55662,0.00104
4885.52635,0.00136
4884.49609,0.00140
4883.46582,0.00098
4882.43555,0.00027
4881.40528,-0.00010
4880.37502,-0.00035
4879.34475,-0.00041
4878.31448,0.00006
4877.28422,0.00073
4876.25395,0.00079
4875.22368,0.00039
4874.19341,0.00030
4873.16315,0.00056
4872.13288,0.00087
4871.10261,0.00166
4870.07235,0.00246
4869.04208,0.00248
4868.01181,0.00232
4866.98155,0.00210
4865.95128,0.00168
4864.92101,0.00117
4863.89074,0.00089
4862.86048,0.00104
4861.83021,0.00101
4860.79994,0.00042
4859.76968,-0.00003
4858.73941,0.00078
4857.70914,0.00229
4856.67887,0.00271
4855.64861,0.00205
4854.61834,0.00154
4853.58807,0.00154
4852.55781,0.00235
4851.52754,0.00312
4850.49727,0.00290
4849.46701,0.00269
4848.43674,0.00239
4847.40647,0.00143
4846.37620,0.00101
4845.34594,0.00174
4844.31567,0.00251
4843.28540,0.00257
4842.25514,0.00210
4841.22487,0.00171
4840.19460,0.00187
4839.16433,0.00195
4838.13407,0.00131
4837.10380,0.00038
4836.07353,-0.00035
4835.04327,-0.00071
4834.01300,-0.00010
4832.98273,0.00108
4831.95247,0.00176
4830.92220,0.00205
4829.89193,0.00210
4828.86166,0.00207
4827.83140,0.00229
4826.80113,0.00221
4825.77086,0.00205
4824.74060,0.00247
4823.71033,0.00298
4822.68006,0.00255
4821.64979,0.00181
4820.61953,0.00235
4819.58926,0.00266
4818.55899,0.00176
4817.52873,0.00181
4816.49846,0.00258
4815.46819,0.00243
4814.43793,0.00189
4813.40766,0.00195
4812.37739,0.00218
4811.34712,0.00175
4810.31686,0.00115
4809.28659,0.00145
4808.25632,0.00239
4807.22606,0.00256
4806.19579,0.00213
4805.16552,0.00239
4804.13526,0.00263
4803.10499,0.00212
4802.07472,0.00157
4801.04445,0.00105
4800.01419,0.00071
4798.98392,0.00117
4797.95365,0.00243
4796.92339,0.00332
4795.89312,0.00283
4794.86285,0.00166
4793.83258,0.00091
4792.80232,0.00069
4791.77205,0.00101
4790.74178,0.00148
4789.71152,0.00115
4788.68125,0.00056
4787.65098,0.00088
4786.62072,0.00139
4785.59045,0.00115
4784.56018,0.00079
4783.52991,0.00097
4782.49965,0.00141
4781.46938,0.00184
4780.43911,0.00220
4779.40885,0.00265
4778.37858,0.00317
4777.34831,0.00279
4776.31804,0.00153
4775.28778,0.00086
4774.25751,0.00088
4773.22724,0.00091
4772.19698,0.00096
4771.16671,0.00084
4770.13644,0.00072
4769.10618,0.00127
4768.07591,0.00211
4767.04564,0.00237
4766.01537,0.00204
4764.98511,0.00157
4763.95484,0.00111
4762.92457,0.00099
4761.89431,0.00136
4760.86404,0.00165
4759.83377,0.00139
4758.80350,0.00100
4757.77324,0.00108
4756.74297,0.00093
4755.71270,0.00071
4754.68244,0.00092
4753.65217,0.00133
4752.62190,0.00204
4751.59164,0.00222
4750.56137,0.00200
4749.53110,0.00216
4748.50083,0.00188
4747.47057,0.00103
4746.44030,0.00079
4745.41003,0.00177
4744.37977,0.00290
4743.34950,0.00300
4742.31923,0.00264
4741.28897,0.00278
4740.25870,0.00281
4739.22843,0.00195
4738.19816,0.00097
4737.16790,0.00083
4736.13763,0.00129
4735.10736,0.00143
4734.07710,0.00116
4733.04683,0.00134
4732.01656,0.00201
4730.98629,0.00247
4729.95603,0.00245
4728.92576,0.00222
4727.89549,0.00186
4726.86523,0.00153
4725.83496,0.00195
4724.80469,0.00252
4723.77443,0.00244
4722.74416,0.00203
4721.71389,0.00190
4720.68362,0.00235
4719.65336,0.00238
4718.62309,0.00142
4717.59282,0.00056
4716.56256,0.00077
4715.53229,0.00146
4714.50202,0.00176
4713.47175,0.00212
4712.44149,0.00269
4711.41122,0.00308
4710.38095,0.00268
4709.35069,0.00140
4708.32042,0.00074
4707.29015,0.00118
4706.25989,0.00173
4705.22962,0.00206
4704.19935,0.00179
4703.16908,0.00118
4702.13882,0.00123
4701.10855,0.00181
4700.07828,0.00248
4699.04802,0.00303
4698.01775,0.00276
4696.98748,0.00180
4695.95721,0.00134
4694.92695,0.00148
4693.89668,0.00184
4692.86641,0.00227
4691.83615,0.00199
4690.80588,0.00108
4689.77561,0.00082
4688.74535,0.00128
4687.71508,0.00155
4686.68481,0.00132
4685.65454,0.00130
4684.62428,0.00208
4683.59401,0.00240
4682.56374,0.00173
4681.53348,0.00127
4680.50321,0.00107
4679.47294,0.00082
4678.44267,0.00081
4677.41241,0.00102
4676.38214,0.00114
4675.35187,0.00104
4674.32161,0.00085
4673.29134,0.00086
4672.26107,0.00107
4671.23081,0.00123
4670.20054,0.00147
4669.17027,0.00166
4668.14000,0.00137
4667.10974,0.00066
4666.07947,0.00031
4665.04920,0.00108
4664.01894,0.00232
4662.98867,0.00248
4661.95840,0.00173
4660.92814,0.00138
4659.89787,0.00139
4658.86760,0.00107
4657.83733,0.00101
4656.80707,0.00147
4655.77680,0.00163
4654.74653,0.00178
4653.71627,0.00228
4652.68600,0.00259
4651.65573,0.00294
4650.62546,0.00330
4649.59520,0.00302
4648.56493,0.00249
4647.53466,0.00230
4646.50440,0.00217
4645.47413,0.00156
4644.44386,0.00111
4643.41360,0.00149
4642.38333,0.00138
4641.35306,0.00020
4640.32279,-0.00060
4639.29253,0.00024
4638.26226,0.00195
4637.23199,0.00260
4636.20173,0.00194
4635.17146,0.00134
4634.14119,0.00135
4633.11092,0.00146
4632.08066,0.00196
4631.05039,0.00250
4630.02012,0.00198
4628.98986,0.00105
4627.95959,0.00079
4626.92932,0.00094
4625.89906,0.00108
4624.86879,0.00090
4623.83852,0.00035
4622.80825,0.00033
4621.77799,0.00101
4620.74772,0.00161
4619.71745,0.00182
4618.68719,0.00178
4617.65692,0.00173
4616.62665,0.00190
4615.59638,0.00208
4614.56612,0.00173
4613.53585,0.00162
4612.50558,0.00206
4611.47532,0.00210
4610.44505,0.00208
4609.41478,0.00213
4608.38452,0.00191
4607.35425,0.00185
4606.32398,0.00181
4605.29371,0.00186
4604.26345,0.00206
4603.23318,0.00198
4602.20291,0.00202
4601.17265,0.00214
4600.14238,0.00212
4599.11211,0.00202
4598.08185,0.00132
4597.05158,0.00070
4596.02131,0.00087
4594.99104,0.00098
4593.96078,0.00098
4592.93051,0.00133
4591.90024,0.00129
4590.86998,0.00073
4589.83971,0.00070
4588.80944,0.00141
4587.77917,0.00188
4586.74891,0.00164
4585.71864,0.00128
4584.68837,0.00124
4583.65811,0.00120
4582.62784,0.00113
4581.59757,0.00130
4580.56731,0.00151
4579.53704,0.00139
4578.50677,0.00105
4577.47650,0.00092
4576.44624,0.00088
4575.41597,0.00078
4574.38570,0.00063
4573.35544,0.00056
4572.32517,0.00050
4571.29490,0.00032
4570.26463,0.00026
4569.23437,0.00084
4568.20410,0.00217
4567.17383,0.00295
4566.14357,0.00239
4565.11330,0.00148
4564.08303,0.00086
4563.05277,0.00070
4562.02250,0.00127
4560.99223,0.00185
4559.96196,0.00174
4558.93170,0.00135
4557.90143,0.00096
4556.87116,0.00048
4555.84090,0.00011
4554.81063,0.00049
4553.78036,0.00137
4552.75009,0.00183
4551.71983,0.00162
4550.68956,0.00122
4549.65929,0.00121
4548.62903,0.00126
4547.59876,0.00102
4546.56849,0.00123
4545.53823,0.00178
4544.50796,0.00153
4543.47769,0.00105
4542.44742,0.00121
4541.41716,0.00143
4540.38689,0.00137
4539.35662,0.00137
4538.32636,0.00132
4537.29609,0.00140
4536.26582,0.00180
4535.23556,0.00170
4534.20529,0.00102
4533.17502,0.00070
4532.14475,0.00074
4531.11449,0.00068
4530.08422,0.00072
4529.05395,0.00101
4528.02369,0.00129
4526.99342,0.00129
4525.96315,0.00116
4524.93288,0.00121
4523.90262,0.00131
4522.87235,0.00128
4521.84208,0.00113
4520.81182,0.00095
4519.78155,0.00127
4518.75128,0.00214
4517.72102,0.00259
4516.69075,0.00244
4515.66048,0.00233
4514.63021,0.00251
4513.59995,0.00269
4512.56968,0.00240
4511.53941,0.00147
4510.50915,0.00055
4509.47888,0.00054
4508.44861,0.00103
4507.41834,0.00144
4506.38808,0.00165
4505.35781,0.00137
4504.32754,0.00148
4503.29728,0.00263
4502.26701,0.00367
4501.23674,0.00369
4500.20648,0.00303
4499.17621,0.00263
4498.14594,0.00265
4497.11567,0.00263
4496.08541,0.00221
4495.05514,0.00159
4494.02487,0.00133
4492.99461,0.00149
4491.96434,0.00203
4490.93407,0.00268
4489.90380,0.00274
4488.87354,0.00221
4487.84327,0.00179
4486.81300,0.00196
4485.78274,0.00223
4484.75247,0.00220
4483.72220,0.00196
4482.69194,0.00136
4481.66167,0.00119
4480.63140,0.00206
4479.60113,0.00269
4478.57087,0.00229
4477.54060,0.00174
4476.51033,0.00189
4475.48007,0.00201
4474.44980,0.00173
4473.41953,0.00177
4472.38926,0.00224
4471.35900,0.00238
4470.32873,0.00191
4469.29846,0.00143
4468.26820,0.00146
4467.23793,0.00161
4466.20766,0.00135
4465.17740,0.00136
4464.14713,0.00166
4463.11686,0.00159
4462.08659,0.00171
4461.05633,0.00221
4460.02606,0.00235
4458.99579,0.00216
4457.96553,0.00231
4456.93526,0.00277
4455.90499,0.00278
4454.87473,0.00193
4453.84446,0.00123
4452.81419,0.00147
4451.78392,0.00171
4450.75366,0.00161
4449.72339,0.00188
4448.69312,0.00236
4447.66286,0.00256
4446.63259,0.00236
4445.60232,0.00178
4444.57205,0.00127
4443.54179,0.00118
4442.51152,0.00150
4441.48125,0.00172
4440.45099,0.00152
4439.42072,0.00133
4438.39045,0.00134
4437.36019,0.00115
4436.32992,0.00080
4435.29965,0.00121
4434.26938,0.00242
4433.23912,0.00293
4432.20885,0.00240
4431.17858,0.00229
4430.14832,0.00279
4429.11805,0.00248
4428.08778,0.00159
4427.05751,0.00151
4426.02725,0.00169
4424.99698,0.00154
4423.96671,0.00181
4422.93645,0.00194
4421.90618,0.00120
4420.87591,0.00071
4419.84565,0.00106
4418.81538,0.00156
4417.78511,0.00175
4416.75484,0.00188
4415.72458,0.00226
4414.69431,0.00253
4413.66404,0.00210
4412.63378,0.00113
4411.60351,0.00042
4410.57324,0.00072
4409.54297,0.00166
4408.51271,0.00197
4407.48244,0.00148
4406.45217,0.00134
4405.42191,0.00167
4404.39164,0.00186
4403.36137,0.00227
4402.33111,0.00275
4401.30084,0.00268
4400.27057,0.00246
4399.24030,0.00252
4398.21004,0.00269
4397.17977,0.00258
4396.14950,0.00228
4395.11924,0.00225
4394.08897,0.00214
4393.05870,0.00185
4392.02844,0.00183
4390.99817,0.00197
4389.96790,0.00219
4388.93763,0.00259
4387.90737,0.00292
4386.87710,0.00299
4385.84683,0.00273
4384.81657,0.00260
4383.78630,0.00284
4382.75603,0.00261
4381.72576,0.00203
4380.69550,0.00200
4379.66523,0.00229
4378.63496,0.00238
4377.60470,0.00227
4376.57443,0.00259
4375.54416,0.00356
4374.51390,0.00410
4373.48363,0.00355
4372.45336,0.00289
4371.42309,0.00279
4370.39283,0.00291
4369.36256,0.00326
4368.33229,0.00369
4367.30203,0.00352
4366.27176,0.00303
4365.24149,0.00285
4364.21122,0.00263
4363.18096,0.00215
4362.15069,0.00201
4361.12042,0.00234
4360.09016,0.00240
4359.05989,0.00183
4358.02962,0.00161
4356.99936,0.00224
4355.96909,0.00282
4354.93882,0.00316
4353.90855,0.00376
4352.87829,0.00409
4351.84802,0.00366
4350.81775,0.00319
4349.78749,0.00303
4348.75722,0.00307
4347.72695,0.00312
4346.69668,0.00310
4345.66642,0.00318
4344.63615,0.00331
4343.60588,0.00371
4342.57562,0.00416
4341.54535,0.00403
4340.51508,0.00340
4339.48482,0.00292
4338.45455,0.00268
4337.42428,0.00261
4336.39401,0.00279
4335.36375,0.00295
4334.33348,0.00286
4333.30321,0.00287
4332.27295,0.00344
4331.24268,0.00409
4330.21241,0.00408
4329.18214,0.00351
4328.15188,0.00292
4327.12161,0.00277
4326.09134,0.00309
4325.06108,0.00364
4324.03081,0.00371
4323.00054,0.00325
4321.97028,0.00309
4320.94001,0.00306
4319.90974,0.00279
4318.87947,0.00267
4317.84921,0.00274
4316.81894,0.00270
4315.78867,0.00247
4314.75841,0.00256
4313.72814,0.00307
4312.69787,0.00315
4311.66761,0.00261
4310.63734,0.00221
4309.60707,0.00238
4308.57680,0.00293
4307.54654,0.00334
4306.51627,0.00312
4305.48600,0.00287
4304.45574,0.00320
4303.42547,0.00346
4302.39520,0.00300
4301.36493,0.00225
4300.33467,0.00207
4299.30440,0.00207
4298.27413,0.00195
4297.24387,0.00218
4296.21360,0.00269
4295.18333,0.00330
4294.15307,0.00364
4293.12280,0.00345
4292.09253,0.00315
4291.06226,0.00267
4290.03200,0.00223
4289.00173,0.00259
4287.97146,0.00301
4286.94120,0.00281
4285.91093,0.00265
4284.88066,0.00249
4283.85039,0.00224
4282.82013,0.00228
4281.78986,0.00200
4280.75959,0.00146
4279.72933,0.00195
4278.69906,0.00297
4277.66879,0.00314
4276.63853,0.00275
4275.60826,0.00241
4274.57799,0.00192
4273.54772,0.00166
4272.51746,0.00186
4271.48719,0.00191
4270.45692,0.00212
4269.42666,0.00268
4268.39639,0.00291
4267.36612,0.00284
4266.33585,0.00269
4265.30559,0.00224
4264.27532,0.00176
4263.24505,0.00195
4262.21479,0.00247
4261.18452,0.00261
4260.15425,0.00287
4259.12399,0.00344
4258.09372,0.00351
4257.06345,0.00308
4256.03318,0.00265
4255.00292,0.00202
4253.97265,0.00141
4252.94238,0.00168
4251.91212,0.00224
4250.88185,0.00225
4249.85158,0.00220
4248.82132,0.00238
4247.79105,0.00236
4246.76078,0.00201
4245.73051,0.00192
4244.70025,0.00220
4243.66998,0.00249
4242.63971,0.00281
4241.60945,0.00326
4240.57918,0.00361
4239.54891,0.00325
4238.51864,0.00218
4237.48838,0.00140
4236.45811,0.00169
4235.42784,0.00248
4234.39758,0.00279
4233.36731,0.00250
4232.33704,0.00207
4231.30678,0.00196
4230.27651,0.00225
4229.24624,0.00230
4228.21597,0.00196
4227.18571,0.00207
4226.15544,0.00251
4225.12517,0.00223
4224.09491,0.00144
4223.06464,0.00132
4222.03437,0.00195
4221.00410,0.00235
4219.97384,0.00230
4218.94357,0.00217
4217.91330,0.00201
4216.88304,0.00218
4215.85277,0.00265
4214.82250,0.00284
4213.79224,0.00281
4212.76197,0.00297
4211.73170,0.00315
4210.70143,0.00290
4209.67117,0.00250
4208.64090,0.00222
4207.61063,0.00203
4206.58037,0.00215
4205.55010,0.00210
4204.51983,0.00157
4203.48956,0.00166
4202.45930,0.00260
4201.42903,0.00347
4200.39876,0.00340
4199.36850,0.00268
4198.33823,0.00264
4197.30796,0.00327
4196.27770,0.00368
4195.24743,0.00332
4194.21716,0.00231
4193.18689,0.00173
4192.15663,0.00198
4191.12636,0.00209
4190.09609,0.00177
4189.06583,0.00154
4188.03556,0.00128
4187.00529,0.00131
4185.97502,0.00197
4184.94476,0.00238
4183.91449,0.00206
4182.88422,0.00162
4181.85396,0.00176
4180.82369,0.00246
4179.79342,0.00314
4178.76316,0.00323
4177.73289,0.00258
4176.70262,0.00209
4175.67235,0.00206
4174.64209,0.00182
4173.61182,0.00185
4172.58155,0.00248
4171.55129,0.00292
4170.52102,0.00279
4169.49075,0.00251
4168.46049,0.00268
4167.43022,0.00323
4166.39995,0.00336
4165.36968,0.00285
4164.33942,0.00267
4163.30915,0.00296
4162.27888,0.00296
4161.24862,0.00257
4160.21835,0.00224
4159.18808,0.00219
4158.15781,0.00230
4157.12755,0.00234
4156.09728,0.00220
4155.06701,0.00201
4154.03675,0.00191
4153.00648,0.00207
4151.97621,0.00264
4150.94595,0.00323
4149.91568,0.00331
4148.88541,0.00277
4147.85514,0.00222
4146.82488,0.00220
4145.79461,0.00233
4144.76434,0.00222
4143.73408,0.00234
4142.70381,0.00265
4141.67354,0.00267
4140.64327,0.00247
4139.61301,0.00215
4138.58274,0.00187
4137.55247,0.00187
4136.52221,0.00213
4135.49194,0.00252
4134.46167,0.00278
4133.43141,0.00301
4132.40114,0.00329
4131.37087,0.00319
4130.34060,0.00285
4129.31034,0.00250
4128.28007,0.00225
4127.24980,0.00239
4126.21954,0.00261
4125.18927,0.00247
4124.15900,0.00210
4123.12873,0.00193
4122.09847,0.00206
4121.06820,0.00221
4120.03793,0.00224
4119.00767,0.00244
4117.97740,0.00286
4116.94713,0.00315
4115.91687,0.00325
4114.88660,0.00323
4113.85633,0.00316
4112.82606,0.00314
4111.79580,0.00317
4110.76553,0.00306
4109.73526,0.00287
4108.70500,0.00261
4107.67473,0.00182
4106.64446,0.00084
4105.61420,0.00081
4104.58393,0.00195
4103.55366,0.00303
4102.52339,0.00319
4101.49313,0.00291
4100.46286,0.00274
4099.43259,0.00279
4098.40233,0.00293
4097.37206,0.00273
4096.34179,0.00236
4095.31152,0.00227
4094.28126,0.00232
4093.25099,0.00247
4092.22072,0.00267
4091.19046,0.00294
4090.16019,0.00346
4089.12992,0.00377
4088.09966,0.00363
4087.06939,0.00356
4086.03912,0.00375
4085.00885,0.00388
4083.97859,0.00391
4082.94832,0.00392
4081.91805,0.00358
4080.88779,0.00318
4079.85752,0.00329
4078.82725,0.00345
4077.79698,0.00341
4076.76672,0.00327
4075.73645,0.00294
4074.70618,0.00285
4073.67592,0.00311
4072.64565,0.00311
4071.61538,0.00293
4070.58512,0.00308
4069.55485,0.00328
4068.52458,0.00331
4067.49431,0.00346
4066.46405,0.00344
4065.43378,0.00328
4064.40351,0.00314
4063.37325,0.00296
4062.34298,0.00319
4061.31271,0.00367
4060.28244,0.00368
4059.25218,0.00351
4058.22191,0.00383
4057.19164,0.00431
4056.16138,0.00423
4055.13111,0.00366
4054.10084,0.00350
4053.07058,0.00365
4052.04031,0.00349
4051.01004,0.00365
4049.97977,0.00417
4048.94951,0.00426
4047.91924,0.00407
4046.88897,0.00400
4045.85871,0.00419
4044.82844,0.00413
4043.79817,0.00362
4042.76791,0.00338
4041.73764,0.00373
4040.70737,0.00430
4039.67710,0.00438
4038.64684,0.00407
4037.61657,0.00391
4036.58630,0.00377
4035.55604,0.00353
4034.52577,0.00330
4033.49550,0.00330
4032.46523,0.00370
4031.43497,0.00431
4030.40470,0.00466
4029.37443,0.00441
4028.34417,0.00387
4027.31390,0.00376
4026.28363,0.00414
4025.25337,0.00448
4024.22310,0.00431
4023.19283,0.00398
4022.16256,0.00408
4021.13230,0.00409
4020.10203,0.00379
4019.07176,0.00374
4018.04150,0.00380
4017.01123,0.00354
4015.98096,0.00335
4014.95069,0.00364
4013.92043,0.00400
4012.89016,0.00416
4011.85989,0.00431
4010.82963,0.00425
4009.79936,0.00384
4008.76909,0.00361
4007.73883,0.00371
4006.70856,0.00375
4005.67829,0.00374
4004.64802,0.00384
4003.61776,0.00421
4002.58749,0.00442
4001.55722,0.00420
4000.52696,0.00424
3999.49669,0.00438
3998.46642,0.00407
3997.43615,0.00360
3996.40589,0.00351
3995.37562,0.00376
3994.34535,0.00387
3993.31509,0.00387
3992.28482,0.00377
3991.25455,0.00374
3990.22429,0.00388
3989.19402,0.00398
3988.16375,0.00401
3987.13348,0.00393
3986.10322,0.00385
3985.07295,0.00383
3984.04268,0.00380
3983.01242,0.00395
3981.98215,0.00410
3980.95188,0.00422
3979.92161,0.00466
3978.89135,0.00499
3977.86108,0.00482
3976.83081,0.00466
3975.80055,0.00458
3974.77028,0.00419
3973.74001,0.00365
3972.70975,0.00322
3971.67948,0.00311
3970.64921,0.00352
3969.61894,0.00385
3968.58868,0.00378
3967.55841,0.00384
3966.52814,0.00405
3965.49788,0.00408
3964.46761,0.00397
3963.43734,0.00383
3962.40708,0.00365
3961.37681,0.00327
3960.34654,0.00293
3959.31627,0.00318
3958.28601,0.00368
3957.25574,0.00365
3956.22547,0.00339
3955.19521,0.00332
3954.16494,0.00316
3953.13467,0.00318
3952.10440,0.00373
3951.07414,0.00412
3950.04387,0.00404
3949.01360,0.00391
3947.98334,0.00391
3946.95307,0.00393
3945.92280,0.00370
3944.89254,0.00339
3943.86227,0.00364
3942.83200,0.00410
3941.80173,0.00394
3940.77147,0.00329
3939.74120,0.00292
3938.71093,0.00334
3937.68067,0.00393
3936.65040,0.00409
3935.62013,0.00409
3934.58986,0.00410
3933.55960,0.00398
3932.52933,0.00353
3931.49906,0.00312
3930.46880,0.00308
3929.43853,0.00312
3928.40826,0.00327
3927.37800,0.00350
3926.34773,0.00339
3925.31746,0.00299
3924.28719,0.00278
3923.25693,0.00272
3922.22666,0.00267
3921.19639,0.00262
3920.16613,0.00259
3919.13586,0.00267
3918.10559,0.00286
3917.07532,0.00301
3916.04506,0.00292
3915.01479,0.00267
3913.98452,0.00289
3912.95426,0.00353
3911.92399,0.00382
3910.89372,0.00361
3909.86346,0.00321
3908.83319,0.00289
3907.80292,0.00284
3906.77265,0.00301
3905.74239,0.00331
3904.71212,0.00334
3903.68185,0.00273
3902.65159,0.00250
3901.62132,0.00323
3900.59105,0.00365
3899.56079,0.00333
3898.53052,0.00314
3897.50025,0.00306
3896.46998,0.00275
3895.43972,0.00289
3894.40945,0.00336
3893.37918,0.00333
3892.34892,0.00329
3891.31865,0.00328
3890.28838,0.00282
3889.25811,0.00267
3888.22785,0.00287
3887.19758,0.00304
3886.16731,0.00331
3885.13705,0.00358
3884.10678,0.00357
3883.07651,0.00352
3882.04625,0.00373
3881.01598,0.00397
3879.98571,0.00327
3878.95544,0.00232
3877.92518,0.00241
3876.89491,0.00306
3875.86464,0.00349
3874.83438,0.00355
3873.80411,0.00339
3872.77384,0.00328
3871.74357,0.00323
3870.71331,0.00340
3869.68304,0.00366
3868.65277,0.00345
3867.62251,0.00298
3866.59224,0.00259
3865.56197,0.00244
3864.53171,0.00255
3863.50144,0.00260
3862.47117,0.00255
3861.44090,0.00229
3860.41064,0.00178
3859.38037,0.00187
3858.35010,0.00268
3857.31984,0.00336
3856.28957,0.00310
3855.25930,0.00207
3854.22903,0.00153
3853.19877,0.00247
3852.16850,0.00306
3851.13823,0.00270
3850.10797,0.00230
3849.07770,0.00210
3848.04743,0.00196
3847.01717,0.00195
3845.98690,0.00208
3844.95663,0.00230
3843.92636,0.00255
3842.89610,0.00294
3841.86583,0.00336
3840.83556,0.00352
3839.80530,0.00361
3838.77503,0.00381
3837.74476,0.00382
3836.71449,0.00333
3835.68423,0.00263
3834.65396,0.00219
3833.62369,0.00212
3832.59343,0.00211
3831.56316,0.00212
3830.53289,0.00229
3829.50263,0.00251
3828.47236,0.00264
3827.44209,0.00254
3826.41182,0.00218
3825.38156,0.00205
3824.35129,0.00242
3823.32102,0.00280
3822.29076,0.00296
3821.26049,0.00285
3820.23022,0.00255
3819.19996,0.00263
3818.16969,0.00305
3817.13942,0.00365
3816.10915,0.00403
3815.07889,0.00332
3814.04862,0.00262
3813.01835,0.00252
3811.98809,0.00215
3810.95782,0.00169
3809.92755,0.00181
3808.89728,0.00227
3807.86702,0.00268
3806.83675,0.00255
3805.80648,0.00205
3804.77622,0.00196
3803.74595,0.00220
3802.71568,0.00242
3801.68542,0.00279
3800.65515,0.00341
3799.62488,0.00358
3798.59461,0.00335
3797.56435,0.00325
3796.53408,0.00336
3795.50381,0.00313
3794.47355,0.00262
3793.44328,0.00245
3792.41301,0.00270
3791.38274,0.00272
3790.35248,0.00240
3789.32221,0.00224
3788.29194,0.00224
3787.26168,0.00223
3786.23141,0.00243
3785.20114,0.00275
3784.17088,0.00282
3783.14061,0.00251
3782.11034,0.00235
3781.08007,0.00285
3780.04981,0.00352
3779.01954,0.00336
3777.98927,0.00272
3776.95901,0.00240
3775.92874,0.00216
3774.89847,0.00194
3773.86820,0.00204
3772.83794,0.00243
3771.80767,0.00260
3770.77740,0.00254
3769.74714,0.00280
3768.71687,0.00293
3767.68660,0.00287
3766.65634,0.00278
3765.62607,0.00248
3764.59580,0.00214
3763.56553,0.00214
3762.53527,0.00244
3761.50500,0.00256
3760.47473,0.00281
3759.44447,0.00326
3758.41420,0.00312
3757.38393,0.00296
3756.35367,0.00321
3755.32340,0.00302
3754.29313,0.00260
3753.26286,0.00260
3752.23260,0.00296
3751.20233,0.00344
3750.17206,0.00344
3749.14180,0.00300
3748.11153,0.00323
3747.08126,0.00390
3746.05099,0.00449
3745.02073,0.00538
3743.99046,0.00578
3742.96019,0.00449
3741.92993,0.00326
3740.89966,0.00297
3739.86939,0.00347
3738.83913,0.00403
3737.80886,0.00384
3736.77859,0.00310
3735.74832,0.00319
3734.71806,0.00376
3733.68779,0.00379
3732.65752,0.00397
3731.62726,0.00419
3730.59699,0.00393
3729.56672,0.00353
3728.53645,0.00301
3727.50619,0.00258
3726.47592,0.00282
3725.44565,0.00314
3724.41539,0.00302
3723.38512,0.00287
3722.35485,0.00311
3721.32459,0.00380
3720.29432,0.00388
3719.26405,0.00307
3718.23378,0.00258
3717.20352,0.00259
3716.17325,0.00246
3715.14298,0.00265
3714.11272,0.00332
3713.08245,0.00383
3712.05218,0.00386
3711.02191,0.00339
3709.99165,0.00292
3708.96138,0.00322
3707.93111,0.00373
3706.90085,0.00357
3705.87058,0.00306
3704.84031,0.00303
3703.81005,0.00377
3702.77978,0.00450
3701.74951,0.00426
3700.71924,0.00344
3699.68898,0.00300
3698.65871,0.00298
3697.62844,0.00316
3696.59818,0.00336
3695.56791,0.00365
3694.53764,0.00394
3693.50737,0.00393
3692.47711,0.00416
3691.44684,0.00474
3690.41657,0.00486
3689.38631,0.00449
3688.35604,0.00434
3687.32577,0.00460
3686.29551,0.00456
3685.26524,0.00408
3684.23497,0.00364
3683.20470,0.00366
3682.17444,0.00403
3681.14417,0.00444
3680.11390,0.00484
3679.08364,0.00519
3678.05337,0.00516
3677.02310,0.00451
3675.99284,0.00401
3674.96257,0.00452
3673.93230,0.00503
3672.90203,0.00501
3671.87177,0.00486
3670.84150,0.00511
3669.81123,0.00578
3668.78097,0.00596
3667.75070,0.00542
3666.72043,0.00481
3665.69016,0.00457
3664.65990,0.00458
3663.62963,0.00440
3662.59936,0.00432
3661.56910,0.00494
3660.53883,0.00570
3659.50856,0.00594
3658.47830,0.00611
3657.44803,0.00655
3656.41776,0.00687
3655.38749,0.00683
3654.35723,0.00661
3653.32696,0.00634
3652.29669,0.00613
3651.26643,0.00629
3650.23616,0.00723
3649.20589,0.00821
3648.17562,0.00795
3647.14536,0.00704
3646.11509,0.00672
3645.08482,0.00700
3644.05456,0.00734
3643.02429,0.00774
3641.99402,0.00817
3640.96376,0.00834
3639.93349,0.00855
3638.90322,0.00893
3637.87295,0.00902
3636.84269,0.00898
3635.81242,0.00916
3634.78215,0.00955
3633.75189,0.00987
3632.72162,0.01008
3631.69135,0.01061
3630.66108,0.01162
3629.63082,0.01242
3628.60055,0.01193
3627.57028,0.01129
3626.54002,0.01100
3625.50975,0.01087
3624.47948,0.01161
3623.44922,0.01275
3622.41895,0.01322
3621.38868,0.01333
3620.35841,0.01347
3619.32815,0.01324
3618.29788,0.01247
3617.26761,0.01220
3616.23735,0.01333
3615.20708,0.01493
3614.17681,0.01582
3613.14655,0.01599
3612.11628,0.01587
3611.08601,0.01590
3610.05574,0.01619
3609.02548,0.01675
3607.99521,0.01735
3606.96494,0.01765
3605.93468,0.01768
3604.90441,0.01761
3603.87414,0.01786
3602.84387,0.01849
3601.81361,0.01904
3600.78334,0.01919
3599.75307,0.01901
3598.72281,0.01920
3597.69254,0.01997
3596.66227,0.02065
3595.63201,0.02098
3594.60174,0.02120
3593.57147,0.02152
3592.54120,0.02173
3591.51094,0.02167
3590.48067,0.02173
3589.45040,0.02222
3588.42014,0.02305
3587.38987,0.02381
3586.35960,0.02393
3585.32933,0.02352
3584.29907,0.02326
3583.26880,0.02347
3582.23853,0.02415
3581.20827,0.02509
3580.17800,0.02603
3579.14773,0.02670
3578.11747,0.02706
3577.08720,0.02711
3576.05693,0.02712
3575.02666,0.02733
3573.99640,0.02735
3572.96613,0.02711
3571.93586,0.02716
3570.90560,0.02758
3569.87533,0.02814
3568.84506,0.02873
3567.81479,0.02914
3566.78453,0.02911
3565.75426,0.02905
3564.72399,0.02970
3563.69373,0.03047
3562.66346,0.03057
3561.63319,0.03066
3560.60293,0.03132
3559.57266,0.03196
3558.54239,0.03209
3557.51212,0.03214
3556.48186,0.03230
3555.45159,0.03253
3554.42132,0.03297
3553.39106,0.03321
3552.36079,0.03332
3551.33052,0.03383
3550.30026,0.03411
3549.26999,0.03397
3548.23972,0.03413
3547.20945,0.03456
3546.17919,0.03506
3545.14892,0.03567
3544.11865,0.03593
3543.08839,0.03589
3542.05812,0.03629
3541.02785,0.03707
3539.99758,0.03750
3538.96732,0.03743
3537.93705,0.03748
3536.90678,0.03769
3535.87652,0.03755
3534.84625,0.03763
3533.81598,0.03839
3532.78572,0.03912
3531.75545,0.03966
3530.72518,0.04038
3529.69491,0.04099
3528.66465,0.04103
3527.63438,0.04092
3526.60411,0.04116
3525.57385,0.04157
3524.54358,0.04203
3523.51331,0.04277
3522.48304,0.04378
3521.45278,0.04434
3520.42251,0.04411
3519.39224,0.04378
3518.36198,0.04383
3517.33171,0.04431
3516.30144,0.04533
3515.27118,0.04616
3514.24091,0.04615
3513.21064,0.04613
3512.18037,0.04651
3511.15011,0.04675
3510.11984,0.04668
3509.08957,0.04667
3508.05931,0.04696
3507.02904,0.04756
3505.99877,0.04829
3504.96850,0.04864
3503.93824,0.04858
3502.90797,0.04871
3501.87770,0.04904
3500.84744,0.04930
3499.81717,0.04945
3498.78690,0.04942
3497.75664,0.04918
3496.72637,0.04878
3495.69610,0.04860
3494.66583,0.04888
3493.63557,0.04957
3492.60530,0.05037
3491.57503,0.05071
3490.54477,0.05075
3489.51450,0.05094
3488.48423,0.05113
3487.45396,0.05131
3486.42370,0.05182
3485.39343,0.05240
3484.36316,0.05227
3483.33290,0.05160
3482.30263,0.05109
3481.27236,0.05084
3480.24210,0.05085
3479.21183,0.05118
3478.18156,0.05127
3477.15129,0.05096
3476.12103,0.05057
3475.09076,0.05040
3474.06049,0.05068
3473.03023,0.05115
3471.99996,0.05151
3470.96969,0.05186
3469.93943,0.05215
3468.90916,0.05233
3467.87889,0.05275
3466.84862,0.05321
3465.81836,0.05295
3464.78809,0.05243
3463.75782,0.05256
3462.72756,0.05290
3461.69729,0.05291
3460.66702,0.05287
3459.63675,0.05289
3458.60649,0.05266
3457.57622,0.05219
3456.54595,0.05216
3455.51569,0.05251
3454.48542,0.05253
3453.45515,0.05219
3452.42489,0.05181
3451.39462,0.05152
3450.36435,0.05158
3449.33408,0.05192
3448.30382,0.05189
3447.27355,0.05133
3446.24328,0.05092
3445.21302,0.05110
3444.18275,0.05141
3443.15248,0.05144
3442.12221,0.05155
3441.09195,0.05156
3440.06168,0.05124
3439.03141,0.05104
3438.00115,0.05106
3436.97088,0.05095
3435.94061,0.05075
3434.91035,0.05067
3433.88008,0.05065
3432.84981,0.05060
3431.81954,0.05056
3430.78928,0.05045
3429.75901,0.05028
3428.72874,0.05036
3427.69848,0.05066
3426.66821,0.05063
3425.63794,0.04999
3424.60767,0.04927
3423.57741,0.04877
3422.54714,0.04855
3421.51687,0.04866
3420.48661,0.04883
3419.45634,0.04873
3418.42607,0.04845
3417.39581,0.04828
3416.36554,0.04825
3415.33527,0.04801
3414.30500,0.04758
3413.27474,0.04730
3412.24447,0.04742
3411.21420,0.04767
3410.18394,0.04743
3409.15367,0.04685
3408.12340,0.04669
3407.09314,0.04690
3406.06287,0.04707
3405.03260,0.04717
3404.00233,0.04684
3402.97207,0.04631
3401.94180,0.04624
3400.91153,0.04615
3399.88127,0.04562
3398.85100,0.04517
3397.82073,0.04506
3396.79046,0.04497
3395.76020,0.04487
3394.72993,0.04496
3393.69966,0.04512
3392.66940,0.04512
3391.63913,0.04475
3390.60886,0.04436
3389.57860,0.04418
3388.54833,0.04390
3387.51806,0.04356
3386.48779,0.04320
3385.45753,0.04255
3384.42726,0.04202
3383.39699,0.04187
3382.36673,0.04174
3381.33646,0.04157
3380.30619,0.04147
3379.27592,0.04127
3378.24566,0.04092
3377.21539,0.04092
3376.18512,0.04132
3375.15486,0.04136
3374.12459,0.04080
3373.09432,0.04013
3372.06406,0.03983
3371.03379,0.03967
3370.00352,0.03923
3368.97325,0.03872
3367.94299,0.03850
3366.91272,0.03844
3365.88245,0.03821
3364.85219,0.03790
3363.82192,0.03773
3362.79165,0.03727
3361.76138,0.03649
3360.73112,0.03596
3359.70085,0.03577
3358.67058,0.03565
3357.64032,0.03560
3356.61005,0.03585
3355.57978,0.03623
3354.54952,0.03639
3353.51925,0.03612
3352.48898,0.03543
3351.45871,0.03469
3350.42845,0.03418
3349.39818,0.03389
3348.36791,0.03383
3347.33765,0.03400
3346.30738,0.03404
3345.27711,0.03374
3344.24684,0.03338
3343.21658,0.03331
3342.18631,0.03323
3341.15604,0.03292
3340.12578,0.03280
3339.09551,0.03278
3338.06524,0.03255
3337.03498,0.03221
3336.00471,0.03182
3334.97444,0.03156
3333.94417,0.03163
3332.91391,0.03164
3331.88364,0.03112
3330.85337,0.03038
3329.82311,0.02992
3328.79284,0.02983
3327.76257,0.02977
3326.73231,0.02951
3325.70204,0.02941
3324.67177,0.02947
3323.64150,0.02935
3322.61124,0.02923
3321.58097,0.02927
3320.55070,0.02921
3319.52044,0.02891
3318.49017,0.02823
3317.45990,0.02750
3316.42963,0.02723
3315.39937,0.02717
3314.36910,0.02725
3313.33883,0.02751
3312.30857,0.02755
3311.27830,0.02720
3310.24803,0.02685
3309.21777,0.02696
3308.18750,0.02709
3307.15723,0.02670
3306.12696,0.02627
3305.09670,0.02608
3304.06643,0.02570
3303.03616,0.02527
3302.00590,0.02489
3300.97563,0.02480
3299.94536,0.02514
3298.91509,0.02529
3297.88483,0.02488
3296.85456,0.02435
3295.82429,0.02413
3294.79403,0.02432
3293.76376,0.02478
3292.73349,0.02508
3291.70323,0.02480
3290.67296,0.02400
3289.64269,0.02325
3288.61242,0.02275
3287.58216,0.02264
3286.55189,0.02322
3285.52162,0.02368
3284.49136,0.02337
3283.46109,0.02284
3282.43082,0.02256
3281.40055,0.02250
3280.37029,0.02237
3279.34002,0.02209
3278.30975,0.02185
3277.27949,0.02156
3276.24922,0.02150
3275.21895,0.02183
3274.18869,0.02191
3273.15842,0.02161
3272.12815,0.02144
3271.09788,0.02134
3270.06762,0.02113
3269.03735,0.02113
3268.00708,0.02122
3266.97682,0.02106
3265.94655,0.02077
3264.91628,0.02045
3263.88602,0.02022
3262.85575,0.02019
3261.82548,0.02028
3260.79521,0.02015
3259.76495,0.01992
3258.73468,0.02001
3257.70441,0.02019
3256.67415,0.02004
3255.64388,0.01951
3254.61361,0.01900
3253.58334,0.01889
3252.55308,0.01884
3251.52281,0.01854
3250.49254,0.01833
3249.46228,0.01822
3248.43201,0.01779
3247.40174,0.01738
3246.37148,0.01746
3245.34121,0.01770
3244.31094,0.01769
3243.28067,0.01754
3242.25041,0.01743
3241.22014,0.01733
3240.18987,0.01720
3239.15961,0.01729
3238.12934,0.01761
3237.09907,0.01768
3236.06880,0.01727
3235.03854,0.01670
3234.00827,0.01633
3232.97800,0.01602
3231.94774,0.01573
3230.91747,0.01568
3229.88720,0.01559
3228.85694,0.01552
3227.82667,0.01585
3226.79640,0.01643
3225.76613,0.01641
3224.73587,0.01548
3223.70560,0.01478
3222.67533,0.01495
3221.64507,0.01546
3220.61480,0.01555
3219.58453,0.01506
3218.55426,0.01459
3217.52400,0.01431
3216.49373,0.01395
3215.46346,0.01369
3214.43320,0.01374
3213.40293,0.01385
3212.37266,0.01370
3211.34240,0.01324
3210.31213,0.01290
3209.28186,0.01307
3208.25159,0.01343
3207.22133,0.01348
3206.19106,0.01327
3205.16079,0.01297
3204.13053,0.01269
3203.10026,0.01260
3202.06999,0.01253
3201.03972,0.01229
3200.00946,0.01211
3198.97919,0.01216
3197.94892,0.01214
3196.91866,0.01191
3195.88839,0.01181
3194.85812,0.01191
3193.82786,0.01195
3192.79759,0.01184
3191.76732,0.01149
3190.73705,0.01107
3189.70679,0.01090
3188.67652,0.01094
3187.64625,0.01114
3186.61599,0.01113
3185.58572,0.01063
3184.55545,0.01005
3183.52519,0.00995
3182.49492,0.01023
3181.46465,0.01026
3180.43438,0.00997
3179.40412,0.00988
3178.37385,0.01013
3177.34358,0.01028
3176.31332,0.01009
3175.28305,0.01011
3174.25278,0.01040
3173.22251,0.01029
3172.19225,0.00980
3171.16198,0.00939
3170.13171,0.00932
3169.10145,0.00941
3168.07118,0.00937
3167.04091,0.00927
3166.01065,0.00934
3164.98038,0.00958
3163.95011,0.00958
3162.91984,0.00922
3161.88958,0.00889
3160.85931,0.00880
3159.82904,0.00881
3158.79878,0.00870
3157.76851,0.00862
3156.73824,0.00866
3155.70797,0.00842
3154.67771,0.00796
3153.64744,0.00797
3152.61717,0.00827
3151.58691,0.00839
3150.55664,0.00821
3149.52637,0.00775
3148.49611,0.00747
3147.46584,0.00756
3146.43557,0.00766
3145.40530,0.00778
3144.37504,0.00784
3143.34477,0.00752
3142.31450,0.00726
3141.28424,0.00748
3140.25397,0.00770
3139.22370,0.00765
3138.19343,0.00781
3137.16317,0.00803
3136.13290,0.00794
3135.10263,0.00787
3134.07237,0.00818
3133.04210,0.00836
3132.01183,0.00791
3130.98157,0.00735
3129.95130,0.00720
3128.92103,0.00735
3127.89076,0.00729
3126.86050,0.00721
3125.83023,0.00736
3124.79996,0.00729
3123.76970,0.00699
3122.73943,0.00661
3121.70916,0.00610
3120.67890,0.00595
3119.64863,0.00650
3118.61836,0.00697
3117.58809,0.00679
3116.55783,0.00639
3115.52756,0.00611
3114.49729,0.00607
3113.46703,0.00644
3112.43676,0.00701
3111.40649,0.00711
3110.37622,0.00654
3109.34596,0.00621
3108.31569,0.00664
3107.28542,0.00711
3106.25516,0.00684
3105.22489,0.00631
3104.19462,0.00646
3103.16436,0.00687
3102.13409,0.00655
3101.10382,0.00610
3100.07355,0.00612
3099.04329,0.00613
3098.01302,0.00601
3096.98275,0.00607
3095.95249,0.00625
3094.92222,0.00644
3093.89195,0.00661
3092.86168,0.00662
3091.83142,0.00639
3090.80115,0.00612
3089.77088,0.00605
3088.74062,0.00611
3087.71035,0.00638
3086.68008,0.00677
3085.64982,0.00697
3084.61955,0.00692
3083.58928,0.00658
3082.55901,0.00612
3081.52875,0.00588
3080.49848,0.00584
3079.46821,0.00575
3078.43795,0.00566
3077.40768,0.00569
3076.37741,0.00576
3075.34714,0.00598
3074.31688,0.00630
3073.28661,0.00622
3072.25634,0.00571
3071.22608,0.00543
3070.19581,0.00562
3069.16554,0.00605
3068.13528,0.00630
3067.10501,0.00623
3066.07474,0.00636
3065.04447,0.00662
3064.01421,0.00661
3062.98394,0.00644
3061.95367,0.00628
3060.92341,0.00613
3059.89314,0.00610
3058.86287,0.00625
3057.83261,0.00636
3056.80234,0.00606
3055.77207,0.00557
3054.74180,0.00557
3053.71154,0.00603
3052.68127,0.00625
3051.65100,0.00603
3050.62074,0.00576
3049.59047,0.00587
3048.56020,0.00646
3047.52993,0.00698
3046.49967,0.00694
3045.46940,0.00653
3044.43913,0.00624
3043.40887,0.00612
3042.37860,0.00624
3041.34833,0.00636
3040.31807,0.00612
3039.28780,0.00594
3038.25753,0.00594
3037.22726,0.00586
3036.19700,0.00589
3035.16673,0.00623
3034.13646,0.00652
3033.10620,0.00646
3032.07593,0.00609
3031.04566,0.00576
3030.01539,0.00586
3028.98513,0.00622
3027.95486,0.00654
3026.92459,0.00673
3025.89433,0.00675
3024.86406,0.00663
3023.83379,0.00646
3022.80353,0.00650
3021.77326,0.00674
3020.74299,0.00693
3019.71272,0.00717
3018.68246,0.00748
3017.65219,0.00754
3016.62192,0.00749
3015.59166,0.00766
3014.56139,0.00794
3013.53112,0.00794
3012.50085,0.00757
3011.47059,0.00739
3010.44032,0.00756
3009.41005,0.00776
3008.37979,0.00786
3007.34952,0.00786
3006.31925,0.00785
3005.28899,0.00804
3004.25872,0.00836
3003.22845,0.00853
3002.19818,0.00855
3001.16792,0.00854
3000.13765,0.00857
2999.10738,0.00862
2998.07712,0.00895
2997.04685,0.00965
2996.01658,0.01024
2994.98631,0.01049
2993.95605,0.01062
2992.92578,0.01077
2991.89551,0.01115
2990.86525,0.01174
2989.83498,0.01216
2988.80471,0.01244
2987.77445,0.01291
2986.74418,0.01348
2985.71391,0.01418
2984.68364,0.01517
2983.65338,0.01604
2982.62311,0.01670
2981.59284,0.01769
2980.56258,0.01890
2979.53231,0.01983
2978.50204,0.02067
2977.47178,0.02190
2976.44151,0.02341
2975.41124,0.02509
2974.38097,0.02695
2973.35071,0.02867
2972.32044,0.03027
2971.29017,0.03191
2970.25991,0.03341
2969.22964,0.03485
2968.19937,0.03654
2967.16910,0.03841
2966.13884,0.04018
2965.10857,0.04188
2964.07830,0.04382
2963.04804,0.04616
2962.01777,0.04859
2960.98750,0.05068
2959.95724,0.05252
2958.92697,0.05450
2957.89670,0.05683
2956.86643,0.05940
2955.83617,0.06188
2954.80590,0.06399
2953.77563,0.06601
2952.74537,0.06823
2951.71510,0.07042
2950.68483,0.07242
2949.65456,0.07436
2948.62430,0.07629
2947.59403,0.07807
2946.56376,0.07946
2945.53350,0.08058
2944.50323,0.08184
2943.47296,0.08323
2942.44270,0.08447
2941.41243,0.08543
2940.38216,0.08638
2939.35189,0.08738
2938.32163,0.08823
2937.29136,0.08932
2936.26109,0.09052
2935.23083,0.09116
2934.20056,0.09153
2933.17029,0.09222
2932.14002,0.09299
2931.10976,0.09379
2930.07949,0.09491
2929.04922,0.09607
2928.01896,0.09704
2926.98869,0.09805
2925.95842,0.09909
2924.92816,0.09990
2923.89789,0.10066
2922.86762,0.10179
2921.83735,0.10324
2920.80709,0.10486
2919.77682,0.10654
2918.74655,0.10826
2917.71629,0.10997
2916.68602,0.11162
2915.65575,0.11334
2914.62549,0.11508
2913.59522,0.11676
2912.56495,0.11837
2911.53468,0.11995
2910.50442,0.12134
2909.47415,0.12266
2908.44388,0.12438
2907.41362,0.12585
2906.38335,0.12664
2905.35308,0.12755
2904.32281,0.12896
2903.29255,0.13046
2902.26228,0.13153
2901.23201,0.13239
2900.20175,0.13369
2899.17148,0.13527
2898.14121,0.13646
2897.11095,0.13754
2896.08068,0.13906
2895.05041,0.14080
2894.02014,0.14237
2892.98988,0.14353
2891.95961,0.14444
2890.92934,0.14592
2889.89908,0.14828
2888.86881,0.15076
2887.83854,0.15266
2886.80827,0.15428
2885.77801,0.15633
2884.74774,0.15882
2883.71747,0.16146
2882.68721,0.16408
2881.65694,0.16648
2880.62667,0.16897
2879.59641,0.17162
2878.56614,0.17389
2877.53587,0.17596
2876.50560,0.17852
2875.47534,0.18145
2874.44507,0.18404
2873.41480,0.18621
2872.38454,0.18829
2871.35427,0.19028
2870.32400,0.19220
2869.29373,0.19396
2868.26347,0.19558
2867.23320,0.19707
2866.20293,0.19782
2865.17267,0.19783
2864.14240,0.19738
2863.11213,0.19621
2862.08187,0.19467
2861.05160,0.19300
2860.02133,0.19069
2858.99106,0.18766
2857.96080,0.18395
2856.93053,0.17977
2855.90026,0.17581
2854.87000,0.17203
2853.83973,0.16760
2852.80946,0.16236
2851.77919,0.15687
2850.74893,0.15180
2849.71866,0.14715
2848.68839,0.14229
2847.65813,0.13707
2846.62786,0.13204
2845.59759,0.12744
2844.56733,0.12304
2843.53706,0.11862
2842.50679,0.11426
2841.47652,0.10977
2840.44626,0.10536
2839.41599,0.10161
2838.38572,0.09825
2837.35546,0.09475
2836.32519,0.09112
2835.29492,0.08779
2834.26466,0.08516
2833.23439,0.08281
2832.20412,0.08018
2831.17385,0.07745
2830.14359,0.07513
2829.11332,0.07310
2828.08305,0.07118
2827.05279,0.06966
2826.02252,0.06848
2824.99225,0.06722
2823.96198,0.06560
2822.93172,0.06387
2821.90145,0.06244
2820.87118,0.06117
2819.84092,0.05995
2818.81065,0.05888
2817.78038,0.05793
2816.75012,0.05683
2815.71985,0.05558
2814.68958,0.05455
2813.65931,0.05372
2812.62905,0.05276
2811.59878,0.05165
2810.56851,0.05059
2809.53825,0.04952
2808.50798,0.04832
2807.47771,0.04717
2806.44744,0.04633
2805.41718,0.04558
2804.38691,0.04470
2803.35664,0.04360
2802.32638,0.04247
2801.29611,0.04176
2800.26584,0.04132
2799.23558,0.04059
2798.20531,0.03959
2797.17504,0.03865
2796.14477,0.03780
2795.11451,0.03693
2794.08424,0.03618
2793.05397,0.03551
2792.02371,0.03467
2790.99344,0.03392
2789.96317,0.03341
2788.93290,0.03300
2787.90264,0.03254
2786.87237,0.03190
2785.84210,0.03123
2784.81184,0.03070
2783.78157,0.03028
2782.75130,0.02989
2781.72104,0.02934
2780.69077,0.02868
2779.66050,0.02823
2778.63023,0.02792
2777.59997,0.02746
2776.56970,0.02688
2775.53943,0.02649
2774.50917,0.02639
2773.47890,0.02628
2772.44863,0.02595
2771.41837,0.02544
2770.38810,0.02488
2769.35783,0.02459
2768.32756,0.02447
2767.29730,0.02410
2766.26703,0.02350
2765.23676,0.02304
2764.20650,0.02277
2763.17623,0.02248
2762.14596,0.02231
2761.11569,0.02214
2760.08543,0.02175
2759.05516,0.02135
2758.02489,0.02119
2756.99463,0.02138
2755.96436,0.02174
2754.93409,0.02197
2753.90383,0.02192
2752.87356,0.02165
2751.84329,0.02121
2750.81302,0.02082
2749.78276,0.02079
2748.75249,0.02089
2747.72222,0.02086
2746.69196,0.02084
2745.66169,0.02096
2744.63142,0.02111
2743.60115,0.02128
2742.57089,0.02124
2741.54062,0.02083
2740.51035,0.02048
2739.48009,0.02037
2738.44982,0.02040
2737.41955,0.02054
2736.38929,0.02067
2735.35902,0.02065
2734.32875,0.02047
2733.29848,0.02027
2732.26822,0.01998
2731.23795,0.01963
2730.20768,0.01942
2729.17742,0.01931
2728.14715,0.01928
2727.11688,0.01937
2726.08661,0.01928
2725.05635,0.01892
2724.02608,0.01856
2722.99581,0.01829
2721.96555,0.01802
2720.93528,0.01778
2719.90501,0.01779
2718.87475,0.01779
2717.84448,0.01749
2716.81421,0.01711
2715.78394,0.01681
2714.75368,0.01671
2713.72341,0.01680
2712.69314,0.01683
2711.66288,0.01682
2710.63261,0.01687
2709.60234,0.01679
2708.57207,0.01654
2707.54181,0.01624
2706.51154,0.01571
2705.48127,0.01515
2704.45101,0.01518
2703.42074,0.01537
2702.39047,0.01508
2701.36021,0.01481
2700.32994,0.01470
2699.29967,0.01453
2698.26940,0.01448
2697.23914,0.01433
2696.20887,0.01381
2695.17860,0.01321
2694.14834,0.01276
2693.11807,0.01246
2692.08780,0.01222
2691.05754,0.01198
2690.02727,0.01181
2688.99700,0.01167
2687.96673,0.01135
2686.93647,0.01108
2685.90620,0.01089
2684.87593,0.01049
2683.84567,0.01015
2682.81540,0.00988
2681.78513,0.00948
2680.75486,0.00911
2679.72460,0.00871
2678.69433,0.00824
2677.66406,0.00807
2676.63380,0.00817
2675.60353,0.00819
2674.57326,0.00827
2673.54300,0.00848
2672.51273,0.00856
2671.48246,0.00844
2670.45219,0.00820
2669.42193,0.00796
2668.39166,0.00781
2667.36139,0.00761
2666.33113,0.00718
2665.30086,0.00684
2664.27059,0.00700
2663.24032,0.00737
2662.21006,0.00741
2661.17979,0.00710
2660.14952,0.00688
2659.11926,0.00678
2658.08899,0.00674
2657.05872,0.00689
2656.02846,0.00701
2654.99819,0.00678
2653.96792,0.00645
2652.93765,0.00657
2651.90739,0.00681
2650.87712,0.00643
2649.84685,0.00578
2648.81659,0.00562
2647.78632,0.00592
2646.75605,0.00605
2645.72578,0.00593
2644.69552,0.00590
2643.66525,0.00588
2642.63498,0.00570
2641.60472,0.00551
2640.57445,0.00533
2639.54418,0.00511
2638.51392,0.00511
2637.48365,0.00540
2636.45338,0.00558
2635.42311,0.00565
2634.39285,0.00578
2633.36258,0.00600
2632.33231,0.00605
2631.30205,0.00573
2630.27178,0.00547
2629.24151,0.00544
2628.21125,0.00540
2627.18098,0.00546
2626.15071,0.00572
2625.12044,0.00578
2624.09018,0.00505
2623.05991,0.00412
2622.02964,0.00409
2620.99938,0.00455
2619.96911,0.00501
2618.93884,0.00552
2617.90857,0.00567
2616.87831,0.00553
2615.84804,0.00534
2614.81777,0.00521
2613.78751,0.00528
2612.75724,0.00536
2611.72697,0.00523
2610.69671,0.00505
2609.66644,0.00478
2608.63617,0.00461
2607.60590,0.00474
2606.57564,0.00467
2605.54537,0.00452
2604.51510,0.00492
2603.48484,0.00533
2602.45457,0.00519
2601.42430,0.00488
2600.39403,0.00467
2599.36377,0.00452
2598.33350,0.00461
2597.30323,0.00468
2596.27297,0.00445
2595.24270,0.00451
2594.21243,0.00493
2593.18217,0.00519
2592.15190,0.00508
2591.12163,0.00457
2590.09136,0.00428
2589.06110,0.00453
2588.03083,0.00469
2587.00056,0.00467
2585.97030,0.00475
2584.94003,0.00475
2583.90976,0.00461
2582.87949,0.00453
2581.84923,0.00457
2580.81896,0.00481
2579.78869,0.00477
2578.75843,0.00406
2577.72816,0.00342
2576.69789,0.00352
2575.66763,0.00404
2574.63736,0.00437
2573.60709,0.00424
2572.57682,0.00387
2571.54656,0.00379
2570.51629,0.00405
2569.48602,0.00413
2568.45576,0.00390
2567.42549,0.00371
2566.39522,0.00383
2565.36496,0.00427
2564.33469,0.00458
2563.30442,0.00417
2562.27415,0.00338
2561.24389,0.00300
2560.21362,0.00320
2559.18335,0.00345
2558.15309,0.00369
2557.12282,0.00408
2556.09255,0.00416
2555.06228,0.00407
2554.03202,0.00407
2553.00175,0.00383
2551.97148,0.00350
2550.94122,0.00370
2549.91095,0.00400
2548.88068,0.00369
2547.85042,0.00347
2546.82015,0.00351
2545.78988,0.00326
2544.75961,0.00329
2543.72935,0.00382
2542.69908,0.00399
2541.66881,0.00352
2540.63855,0.00304
2539.60828,0.00313
2538.57801,0.00376
2537.54774,0.00439
2536.51748,0.00464
2535.48721,0.00477
2534.45694,0.00480
2533.42668,0.00459
2532.39641,0.00442
2531.36614,0.00424
2530.33588,0.00396
2529.30561,0.00370
2528.27534,0.00346
2527.24507,0.00337
2526.21481,0.00333
2525.18454,0.00317
2524.15427,0.00325
2523.12401,0.00356
2522.09374,0.00373
2521.06347,0.00350
2520.03320,0.00308
2519.00294,0.00323
2517.97267,0.00396
2516.94240,0.00469
2515.91214,0.00515
2514.88187,0.00510
2513.85160,0.00456
2512.82134,0.00422
2511.79107,0.00416
2510.76080,0.00390
2509.73053,0.00358
2508.70027,0.00366
2507.67000,0.00391
2506.63973,0.00386
2505.60947,0.00367
2504.57920,0.00356
2503.54893,0.00371
2502.51866,0.00412
2501.48840,0.00426
2500.45813,0.00403
2499.42786,0.00389
2498.39760,0.00388
2497.36733,0.00375
2496.33706,0.00366
2495.30680,0.00379
2494.27653,0.00393
2493.24626,0.00394
2492.21599,0.00382
2491.18573,0.00360
2490.15546,0.00337
2489.12519,0.00332
2488.09493,0.00350
2487.06466,0.00366
2486.03439,0.00347
2485.00413,0.00311
2483.97386,0.00284
2482.94359,0.00286
2481.91332,0.00298
2480.88306,0.00272
2479.85279,0.00259
2478.82252,0.00308
2477.79226,0.00357
2476.76199,0.00377
2475.73172,0.00399
2474.70145,0.00405
2473.67119,0.00385
2472.64092,0.00376
2471.61065,0.00390
2470.58039,0.00384
2469.55012,0.00340
2468.51985,0.00302
2467.48959,0.00299
2466.45932,0.00331
2465.42905,0.00365
2464.39878,0.00347
2463.36852,0.00308
2462.33825,0.00318
2461.30798,0.00366
2460.27772,0.00412
2459.24745,0.00435
2458.21718,0.00427
2457.18691,0.00403
2456.15665,0.00378
2455.12638,0.00358
2454.09611,0.00320
2453.06585,0.00293
2452.03558,0.00304
2451.00531,0.00314
2449.97505,0.00317
2448.94478,0.00297
2447.91451,0.00255
2446.88424,0.00245
2445.85398,0.00281
2444.82371,0.00333
2443.79344,0.00381
2442.76318,0.00399
2441.73291,0.00354
2440.70264,0.00288
2439.67237,0.00273
2438.64211,0.00289
2437.61184,0.00301
2436.58157,0.00300
2435.55131,0.00294
2434.52104,0.00318
2433.49077,0.00364
2432.46051,0.00396
2431.43024,0.00399
2430.39997,0.00363
2429.36970,0.00323
2428.33944,0.00336
2427.30917,0.00381
2426.27890,0.00422
2425.24864,0.00458
2424.21837,0.00457
2423.18810,0.00421
2422.15784,0.00395
2421.12757,0.00391
2420.09730,0.00410
2419.06703,0.00409
2418.03677,0.00379
2417.00650,0.00366
2415.97623,0.00344
2414.94597,0.00309
2413.91570,0.00323
2412.88543,0.00388
2411.85516,0.00425
2410.82490,0.00407
2409.79463,0.00376
2408.76436,0.00342
2407.73410,0.00322
2406.70383,0.00301
2405.67356,0.00292
2404.64330,0.00332
2403.61303,0.00371
2402.58276,0.00401
2401.55249,0.00434
2400.52223,0.00457
2399.49196,0.00449
2398.46169,0.00411
2397.43143,0.00387
2396.40116,0.00363
2395.37089,0.00346
2394.34062,0.00369
2393.31036,0.00373
2392.28009,0.00361
2391.24982,0.00384
2390.21956,0.00394
2389.18929,0.00355
2388.15902,0.00312
2387.12876,0.00310
2386.09849,0.00327
2385.06822,0.00327
2384.03795,0.00319
2383.00769,0.00299
2381.97742,0.00282
2380.94715,0.00310
2379.91689,0.00367
2378.88662,0.00417
2377.85635,0.00463
2376.82608,0.00480
2375.79582,0.00455
2374.76555,0.00458
2373.73528,0.00516
2372.70502,0.00573
2371.67475,0.00582
2370.64448,0.00524
2369.61422,0.00473
2368.58395,0.00512
2367.55368,0.00574
2366.52341,0.00557
2365.49315,0.00485
2364.46288,0.00467
2363.43261,0.00530
2362.40235,0.00617
2361.37208,0.00633
2360.34181,0.00564
2359.31154,0.00560
2358.28128,0.00662
2357.25101,0.00747
2356.22074,0.00725
2355.19048,0.00601
2354.16021,0.00482
2353.12994,0.00471
2352.09968,0.00521
2351.06941,0.00551
2350.03914,0.00560
2349.00887,0.00537
2347.97861,0.00471
2346.94834,0.00408
2345.91807,0.00431
2344.88781,0.00568
2343.85754,0.00735
2342.82727,0.00775
2341.79701,0.00682
2340.76674,0.00609
2339.73647,0.00609
2338.70620,0.00601
2337.67594,0.00548
2336.64567,0.00501
2335.61540,0.00519
2334.58514,0.00567
2333.55487,0.00538
2332.52460,0.00458
2331.49433,0.00434
2330.46407,0.00427
2329.43380,0.00404
2328.40353,0.00449
2327.37327,0.00536
2326.34300,0.00529
2325.31273,0.00463
2324.28247,0.00462
2323.25220,0.00514
2322.22193,0.00520
2321.19166,0.00462
2320.16140,0.00426
2319.13113,0.00443
2318.10086,0.00468
2317.07060,0.00486
2316.04033,0.00478
2315.01006,0.00418
2313.97979,0.00317
2312.94953,0.00252
2311.91926,0.00291
2310.88899,0.00362
2309.85873,0.00369
2308.82846,0.00337
2307.79819,0.00320
2306.76793,0.00307
2305.73766,0.00275
2304.70739,0.00236
2303.67712,0.00221
2302.64686,0.00237
2301.61659,0.00259
2300.58632,0.00293
2299.55606,0.00336
2298.52579,0.00334
2297.49552,0.00292
2296.46525,0.00268
2295.43499,0.00271
2294.40472,0.00269
2293.37445,0.00288
2292.34419,0.00333
2291.31392,0.00368
2290.28365,0.00372
2289.25339,0.00293
2288.22312,0.00179
2287.19285,0.00139
2286.16258,0.00182
2285.13232,0.00248
2284.10205,0.00267
2283.07178,0.00245
2282.04152,0.00261
2281.01125,0.00329
2279.98098,0.00342
2278.95072,0.00278
2277.92045,0.00244
2276.89018,0.00275
2275.85991,0.00324
2274.82965,0.00323
2273.79938,0.00261
2272.76911,0.00172
2271.73885,0.00102
2270.70858,0.00111
2269.67831,0.00200
2268.64804,0.00282
2267.61778,0.00271
2266.58751,0.00205
2265.55724,0.00167
2264.52698,0.00171
2263.49671,0.00172
2262.46644,0.00114
2261.43618,0.00086
2260.40591,0.00168
2259.37564,0.00254
2258.34537,0.00269
2257.31511,0.00250
2256.28484,0.00216
2255.25457,0.00200
2254.22431,0.00196
2253.19404,0.00133
2252.16377,0.00072
2251.13350,0.00109
2250.10324,0.00165
2249.07297,0.00141
2248.04270,0.00106
2247.01244,0.00137
2245.98217,0.00228
2244.95190,0.00340
2243.92164,0.00387
2242.89137,0.00352
2241.86110,0.00277
2240.83083,0.00163
2239.80057,0.00066
2238.77030,0.00048
2237.74003,0.00047
2236.70977,0.00088
2235.67950,0.00199
2234.64923,0.00208
2233.61896,0.00094
2232.58870,0.00037
2231.55843,0.00138
2230.52816,0.00331
2229.49790,0.00418
2228.46763,0.00315
2227.43736,0.00136
2226.40710,0.00058
2225.37683,0.00116
2224.34656,0.00151
2223.31629,0.00149
2222.28603,0.00214
2221.25576,0.00241
2220.22549,0.00139
2219.19523,0.00024
2218.16496,-0.00019
2217.13469,-0.00007
2216.10442,0.00050
2215.07416,0.00067
2214.04389,-0.00004
2213.01362,-0.00007
2211.98336,0.00105
2210.95309,0.00099
2209.92282,-0.00066
2208.89256,-0.00136
2207.86229,-0.00070
2206.83202,-0.00014
2205.80175,-0.00041
2204.77149,-0.00081
2203.74122,-0.00003
2202.71095,0.00057
2201.68069,-0.00018
2200.65042,-0.00050
2199.62015,0.00086
2198.58989,0.00258
2197.55962,0.00301
2196.52935,0.00217
2195.49908,0.00045
2194.46882,-0.00128
2193.43855,-0.00182
2192.40828,-0.00157
2191.37802,-0.00082
2190.34775,0.00097
2189.31748,0.00214
2188.28721,0.00134
2187.25695,0.00071
2186.22668,0.00169
2185.19641,0.00268
2184.16615,0.00184
2183.13588,-0.00050
2182.10561,-0.00212
2181.07535,-0.00223
2180.04508,-0.00135
2179.01481,0.00030
2177.98454,0.00123
2176.95428,0.00063
2175.92401,0.00003
2174.89374,0.00002
2173.86348,-0.00005
2172.83321,0.00019
2171.80294,0.00016
2170.77267,-0.00127
2169.74241,-0.00324
2168.71214,-0.00475
2167.68187,-0.00528
2166.65161,-0.00462
2165.62134,-0.00326
2164.59107,-0.00192
2163.56081,-0.00049
2162.53054,0.00042
2161.50027,-0.00075
2160.47000,-0.00197
2159.43974,-0.00163
2158.40947,-0.00218
2157.37920,-0.00337
2156.34894,-0.00352
2155.31867,-0.00285
2154.28840,-0.00174
2153.25813,-0.00050
2152.22787,0.00004
2151.19760,-0.00073
2150.16733,-0.00166
2149.13707,-0.00165
2148.10680,-0.00109
2147.07653,-0.00098
2146.04627,-0.00123
2145.01600,-0.00068
2143.98573,0.00006
2142.95546,0.00047
2141.92520,0.00143
2140.89493,0.00241
2139.86466,0.00249
2138.83440,0.00201
2137.80413,0.00207
2136.77386,0.00322
2135.74360,0.00437
2134.71333,0.00396
2133.68306,0.00224
2132.65279,0.00133
2131.62253,0.00215
2130.59226,0.00345
2129.56199,0.00402
2128.53173,0.00361
2127.50146,0.00273
2126.47119,0.00238
2125.44092,0.00314
2124.41066,0.00380
2123.38039,0.00350
2122.35012,0.00327
2121.31986,0.00306
2120.28959,0.00281
2119.25932,0.00309
2118.22906,0.00340
2117.19879,0.00365
2116.16852,0.00391
2115.13825,0.00381
2114.10799,0.00388
2113.07772,0.00419
2112.04745,0.00387
2111.01719,0.00326
2109.98692,0.00296
2108.95665,0.00260
2107.92638,0.00216
2106.89612,0.00219
2105.86585,0.00251
2104.83558,0.00239
2103.80532,0.00213
2102.77505,0.00214
2101.74478,0.00238
2100.71452,0.00329
2099.68425,0.00437
2098.65398,0.00438
2097.62371,0.00400
2096.59345,0.00406
2095.56318,0.00366
2094.53291,0.00261
2093.50265,0.00153
2092.47238,0.00116
2091.44211,0.00175
2090.41184,0.00263
2089.38158,0.00309
2088.35131,0.00276
2087.32104,0.00199
2086.29078,0.00151
2085.26051,0.00141
2084.23024,0.00153
2083.19998,0.00213
2082.16971,0.00236
2081.13944,0.00173
2080.10917,0.00143
2079.07891,0.00156
2078.04864,0.00189
2077.01837,0.00194
2075.98811,0.00154
2074.95784,0.00208
2073.92757,0.00313
2072.89731,0.00259
2071.86704,0.00062
2070.83677,-0.00030
2069.80650,0.00051
2068.77624,0.00116
2067.74597,0.00127
2066.71570,0.00128
2065.68544,0.00139
2064.65517,0.00222
2063.62490,0.00308
2062.59463,0.00356
2061.56437,0.00423
2060.53410,0.00499
2059.50383,0.00481
2058.47357,0.00306
2057.44330,0.00182
2056.41303,0.00242
2055.38277,0.00267
2054.35250,0.00237
2053.32223,0.00315
2052.29196,0.00381
2051.26170,0.00336
2050.23143,0.00278
2049.20116,0.00293
2048.17090,0.00351
2047.14063,0.00340
2046.11036,0.00244
2045.08009,0.00200
2044.04983,0.00261
2043.01956,0.00329
2041.98929,0.00356
2040.95903,0.00281
2039.92876,0.00079
2038.89849,-0.00006
2037.86823,0.00176
2036.83796,0.00348
2035.80769,0.00298
2034.77742,0.00232
2033.74716,0.00261
2032.71689,0.00180
2031.68662,-0.00014
2030.65636,-0.00060
2029.62609,0.00099
2028.59582,0.00293
2027.56555,0.00407
2026.53529,0.00405
2025.50502,0.00340
2024.47475,0.00312
2023.44449,0.00270
2022.41422,0.00195
2021.38395,0.00184
2020.35369,0.00197
2019.32342,0.00238
2018.29315,0.00401
2017.26288,0.00498
2016.23262,0.00409
2015.20235,0.00339
2014.17208,0.00301
2013.14182,0.00237
2012.11155,0.00207
2011.08128,0.00314
2010.05101,0.00517
2009.02075,0.00557
2007.99048,0.00486
2006.96021,0.00443
2005.92995,0.00304
2004.89968,0.00164
2003.86941,0.00173
2002.83915,0.00178
2001.80888,0.00078
2000.77861,0.00074
1999.74834,0.00270
1998.71808,0.00454
1997.68781,0.00432
1996.65754,0.00313
1995.62728,0.00331
1994.59701,0.00419
1993.56674,0.00386
1992.53648,0.00319
1991.50621,0.00306
1990.47594,0.00267
1989.44567,0.00231
1988.41541,0.00266
1987.38514,0.00330
1986.35487,0.00469
1985.32461,0.00712
1984.29434,0.00836
1983.26407,0.00793
1982.23380,0.00724
1981.20354,0.00544
1980.17327,0.00264
1979.14300,0.00128
1978.11274,0.00237
1977.08247,0.00503
1976.05220,0.00713
1975.02194,0.00736
1973.99167,0.00649
1972.96140,0.00605
1971.93113,0.00644
1970.90087,0.00598
1969.87060,0.00464
1968.84033,0.00418
1967.81007,0.00501
1966.77980,0.00672
1965.74953,0.00758
1964.71926,0.00601
1963.68900,0.00366
1962.65873,0.00266
1961.62846,0.00341
1960.59820,0.00533
1959.56793,0.00692
1958.53766,0.00747
1957.50740,0.00733
1956.47713,0.00729
1955.44686,0.00786
1954.41659,0.00822
1953.38633,0.00763
1952.35606,0.00726
1951.32579,0.00777
1950.29553,0.00774
1949.26526,0.00714
1948.23499,0.00710
1947.20472,0.00724
1946.17446,0.00712
1945.14419,0.00778
1944.11392,0.00884
1943.08366,0.00848
1942.05339,0.00774
1941.02312,0.00813
1939.99286,0.00798
1938.96259,0.00707
1937.93232,0.00740
1936.90205,0.00851
1935.87179,0.00852
1934.84152,0.00776
1933.81125,0.00731
1932.78099,0.00691
1931.75072,0.00648
1930.72045,0.00648
1929.69019,0.00687
1928.65992,0.00682
1927.62965,0.00596
1926.59938,0.00574
1925.56912,0.00638
1924.53885,0.00642
1923.50858,0.00585
1922.47832,0.00522
1921.44805,0.00511
1920.41778,0.00558
1919.38751,0.00578
1918.35725,0.00566
1917.32698,0.00569
1916.29671,0.00534
1915.26645,0.00476
1914.23618,0.00440
1913.20591,0.00426
1912.17565,0.00466
1911.14538,0.00551
1910.11511,0.00596
1909.08484,0.00560
1908.05458,0.00477
1907.02431,0.00406
1905.99404,0.00374
1904.96378,0.00382
1903.93351,0.00462
1902.90324,0.00548
1901.87297,0.00519
1900.84271,0.00425
1899.81244,0.00398
1898.78217,0.00430
1897.75191,0.00404
1896.72164,0.00319
1895.69137,0.00288
1894.66111,0.00327
1893.63084,0.00369
1892.60057,0.00384
1891.57030,0.00375
1890.54004,0.00324
1889.50977,0.00258
1888.47950,0.00272
1887.44924,0.00342
1886.41897,0.00387
1885.38870,0.00376
1884.35843,0.00319
1883.32817,0.00275
1882.29790,0.00265
1881.26763,0.00277
1880.23737,0.00316
1879.20710,0.00356
1878.17683,0.00337
1877.14657,0.00281
1876.11630,0.00287
1875.08603,0.00327
1874.05576,0.00338
1873.02550,0.00334
1871.99523,0.00297
1870.96496,0.00242
1869.93470,0.00244
1868.90443,0.00280
1867.87416,0.00270
1866.84389,0.00254
1865.81363,0.00292
1864.78336,0.00312
1863.75309,0.00268
1862.72283,0.00220
1861.69256,0.00219
1860.66229,0.00271
1859.63203,0.00308
1858.60176,0.00314
1857.57149,0.00327
1856.54122,0.00324
1855.51096,0.00304
1854.48069,0.00291
1853.45042,0.00278
1852.42016,0.00269
1851.38989,0.00264
1850.35962,0.00254
1849.32936,0.00262
1848.29909,0.00289
1847.26882,0.00292
1846.23855,0.00291
1845.20829,0.00290
1844.17802,0.00255
1843.14775,0.00252
1842.11749,0.00299
1841.08722,0.00335
1840.05695,0.00345
1839.02668,0.00310
1837.99642,0.00279
1836.96615,0.00292
1835.93588,0.00281
1834.90562,0.00263
1833.87535,0.00280
1832.84508,0.00298
1831.81482,0.00298
1830.78455,0.00300
1829.75428,0.00304
1828.72401,0.00289
1827.69375,0.00270
1826.66348,0.00276
1825.63321,0.00311
1824.60295,0.00341
1823.57268,0.00344
1822.54241,0.00342
1821.51214,0.00324
1820.48188,0.00273
1819.45161,0.00265
1818.42134,0.00332
1817.39108,0.00382
1816.36081,0.00384
1815.33054,0.00367
1814.30028,0.00321
1813.27001,0.00274
1812.23974,0.00270
1811.20947,0.00316
1810.17921,0.00373
1809.14894,0.00381
1808.11867,0.00347
1807.08841,0.00319
1806.05814,0.00324
1805.02787,0.00352
1803.99760,0.00387
1802.96734,0.00415
1801.93707,0.00413
1800.90680,0.00382
1799.87654,0.00379
1798.84627,0.00419
1797.81600,0.00450
1796.78574,0.00453
1795.75547,0.00444
1794.72520,0.00434
1793.69493,0.00410
1792.66467,0.00381
1791.63440,0.00413
1790.60413,0.00466
1789.57387,0.00463
1788.54360,0.00431
1787.51333,0.00403
1786.48307,0.00392
1785.45280,0.00402
1784.42253,0.00399
1783.39226,0.00392
1782.36200,0.00404
1781.33173,0.00416
1780.30146,0.00415
1779.27120,0.00412
1778.24093,0.00406
1777.21066,0.00408
1776.18039,0.00446
1775.15013,0.00481
1774.11986,0.00473
1773.08959,0.00435
1772.05933,0.00399
1771.02906,0.00397
1769.99879,0.00418
1768.96853,0.00451
1767.93826,0.00483
1766.90799,0.00499
1765.87772,0.00492
1764.84746,0.00467
1763.81719,0.00448
1762.78692,0.00462
1761.75666,0.00501
1760.72639,0.00527
1759.69612,0.00544
1758.66585,0.00548
1757.63559,0.00520
1756.60532,0.00476
1755.57505,0.00450
1754.54479,0.00447
1753.51452,0.00456
1752.48425,0.00471
1751.45399,0.00481
1750.42372,0.00480
1749.39345,0.00496
1748.36318,0.00505
1747.33292,0.00465
1746.30265,0.00432
1745.27238,0.00443
1744.24212,0.00467
1743.21185,0.00483
1742.18158,0.00476
1741.15131,0.00455
1740.12105,0.00452
1739.09078,0.00469
1738.06051,0.00480
1737.03025,0.00481
1735.99998,0.00485
1734.96971,0.00501
1733.93945,0.00534
1732.90918,0.00537
1731.87891,0.00514
1730.84864,0.00508
1729.81838,0.00518
1728.78811,0.00524
1727.75784,0.00528
1726.72758,0.00533
1725.69731,0.00535
1724.66704,0.00539
1723.63677,0.00547
1722.60651,0.00532
1721.57624,0.00515
1720.54597,0.00544
1719.51571,0.00610
1718.48544,0.00656
1717.45517,0.00643
1716.42491,0.00608
1715.39464,0.00586
1714.36437,0.00587
1713.33410,0.00591
1712.30384,0.00582
1711.27357,0.00558
1710.24330,0.00532
1709.21304,0.00525
1708.18277,0.00536
1707.15250,0.00567
1706.12224,0.00597
1705.09197,0.00587
1704.06170,0.00554
1703.03143,0.00540
1702.00117,0.00544
1700.97090,0.00569
1699.94063,0.00617
1698.91037,0.00648
1697.88010,0.00675
1696.84983,0.00684
1695.81956,0.00651
1694.78930,0.00626
1693.75903,0.00637
1692.72876,0.00652
1691.69850,0.00672
1690.66823,0.00703
1689.63796,0.00728
1688.60770,0.00744
1687.57743,0.00758
1686.54716,0.00762
1685.51689,0.00796
1684.48663,0.00883
1683.45636,0.00913
1682.42609,0.00901
1681.39583,0.00904
1680.36556,0.00934
1679.33529,0.00980
1678.30502,0.01010
1677.27476,0.01025
1676.24449,0.01034
1675.21422,0.01049
1674.18396,0.01090
1673.15369,0.01155
1672.12342,0.01228
1671.09316,0.01272
1670.06289,0.01298
1669.03262,0.01344
1668.00235,0.01395
1666.97209,0.01455
1665.94182,0.01519
1664.91155,0.01563
1663.88129,0.01616
1662.85102,0.01684
1661.82075,0.01729
1660.79048,0.01782
1659.76022,0.01864
1658.72995,0.01935
1657.69968,0.01987
1656.66942,0.02047
1655.63915,0.02124
1654.60888,0.02240
1653.57862,0.02411
1652.54835,0.02443
1651.51808,0.02345
1650.48781,0.02324
1649.45755,0.02364
1648.42728,0.02435
1647.39701,0.02501
1646.36675,0.02520
1645.33648,0.02489
1644.30621,0.02459
1643.27595,0.02449
1642.24568,0.02453
1641.21541,0.02451
1640.18514,0.02444
1639.15488,0.02443
1638.12461,0.02430
1637.09434,0.02423
1636.06408,0.02430
1635.03381,0.02358
1634.00354,0.02252
1632.97327,0.02202
1631.94301,0.02170
1630.91274,0.02148
1629.88247,0.02151
1628.85221,0.02146
1627.82194,0.02089
1626.79167,0.02010
1625.76141,0.01966
1624.73114,0.01950
1623.70087,0.01912
1622.67060,0.01835
1621.64034,0.01789
1620.61007,0.01761
1619.57980,0.01708
1618.54954,0.01655
1617.51927,0.01614
1616.48900,0.01565
1615.45873,0.01514
1614.42847,0.01476
1613.39820,0.01450
1612.36793,0.01422
1611.33767,0.01374
1610.30740,0.01319
1609.27713,0.01281
1608.24687,0.01267
1607.21660,0.01264
1606.18633,0.01249
1605.15606,0.01208
1604.12580,0.01156
1603.09553,0.01110
1602.06526,0.01071
1601.03500,0.01045
1600.00473,0.01038
1598.97446,0.01024
1597.94419,0.00997
1596.91393,0.00980
1595.88366,0.00968
1594.85339,0.00952
1593.82313,0.00920
1592.79286,0.00887
1591.76259,0.00875
1590.73233,0.00874
1589.70206,0.00876
1588.67179,0.00868
1587.64152,0.00844
1586.61126,0.00822
1585.58099,0.00809
1584.55072,0.00798
1583.52046,0.00774
1582.49019,0.00742
1581.45992,0.00723
1580.42966,0.00720
1579.39939,0.00724
1578.36912,0.00726
1577.33885,0.00745
1576.30859,0.00772
1575.27832,0.00757
1574.24805,0.00742
1573.21779,0.00735
1572.18752,0.00720
1571.15725,0.00708
1570.12698,0.00700
1569.09672,0.00692
1568.06645,0.00688
1567.03618,0.00681
1566.00592,0.00683
1564.97565,0.00707
1563.94538,0.00728
1562.91512,0.00730
1561.88485,0.00736
1560.85458,0.00765
1559.82431,0.00802
1558.79405,0.00828
1557.76378,0.00813
1556.73351,0.00758
1555.70325,0.00729
1554.67298,0.00723
1553.64271,0.00700
1552.61244,0.00677
1551.58218,0.00675
1550.55191,0.00693
1549.52164,0.00711
1548.49138,0.00703
1547.46111,0.00691
1546.43084,0.00691
1545.40058,0.00695
1544.37031,0.00699
1543.34004,0.00715
1542.30977,0.00747
1541.27951,0.00769
1540.24924,0.00774
1539.21897,0.00740
1538.18871,0.00674
1537.15844,0.00634
1536.12817,0.00638
1535.09790,0.00676
1534.06764,0.00723
1533.03737,0.00768
1532.00710,0.00788
1530.97684,0.00770
1529.94657,0.00752
1528.91630,0.00754
1527.88604,0.00769
1526.85577,0.00800
1525.82550,0.00816
1524.79523,0.00797
1523.76497,0.00785
1522.73470,0.00803
1521.70443,0.00851
1520.67417,0.00898
1519.64390,0.00902
1518.61363,0.00904
1517.58336,0.00927
1516.55310,0.00942
1515.52283,0.00927
1514.49256,0.00890
1513.46230,0.00854
1512.43203,0.00858
1511.40176,0.00898
1510.37150,0.00950
1509.34123,0.01019
1508.31096,0.01085
1507.28069,0.01117
1506.25043,0.01099
1505.22016,0.01081
1504.18989,0.01084
1503.15963,0.01089
1502.12936,0.01104
1501.09909,0.01157
1500.06883,0.01241
1499.03856,0.01336
1498.00829,0.01443
1496.97802,0.01569
1495.94776,0.01722
1494.91749,0.01877
1493.88722,0.02052
1492.85696,0.02256
1491.82669,0.02478
1490.79642,0.02734
1489.76615,0.02984
1488.73589,0.03155
1487.70562,0.03292
1486.67535,0.03399
1485.64509,0.03445
1484.61482,0.03485
1483.58455,0.03549
1482.55429,0.03628
1481.52402,0.03734
1480.49375,0.03890
1479.46348,0.04086
1478.43322,0.04310
1477.40295,0.04577
1476.37268,0.04923
1475.34242,0.05264
1474.31215,0.05558
1473.28188,0.05914
1472.25161,0.06283
1471.22135,0.06514
1470.19108,0.06637
1469.16081,0.06736
1468.13055,0.06824
1467.10028,0.06909
1466.07001,0.07016
1465.03975,0.07160
1464.00948,0.07290
1462.97921,0.07380
1461.94894,0.07467
1460.91868,0.07566
1459.88841,0.07686
1458.85814,0.07818
1457.82788,0.07932
1456.79761,0.07966
1455.76734,0.07938
1454.73707,0.07889
1453.70681,0.07854
1452.67654,0.07848
1451.64627,0.07813
1450.61601,0.07696
1449.58574,0.07520
1448.55547,0.07310
1447.52521,0.07051
1446.49494,0.06800
1445.46467,0.06572
1444.43440,0.06356
1443.40414,0.06174
1442.37387,0.06025
1441.34360,0.05868
1440.31334,0.05684
1439.28307,0.05484
1438.25280,0.05290
1437.22254,0.05040
1436.19227,0.04634
1435.16200,0.04304
1434.13173,0.04088
1433.10147,0.03878
1432.07120,0.03681
1431.04093,0.03532
1430.01067,0.03404
1428.98040,0.03293
1427.95013,0.03228
1426.91986,0.03193
1425.88960,0.03161
1424.85933,0.03129
1423.82906,0.03097
1422.79880,0.03060
1421.76853,0.03042
1420.73826,0.03060
1419.70800,0.03106
1418.67773,0.03141
1417.64746,0.03144
1416.61719,0.03126
1415.58693,0.03098
1414.55666,0.03097
1413.52639,0.03134
1412.49613,0.03179
1411.46586,0.03199
1410.43559,0.03206
1409.40532,0.03215
1408.37506,0.03222
1407.34479,0.03249
1406.31452,0.03305
1405.28426,0.03353
1404.25399,0.03353
1403.22372,0.03336
1402.19346,0.03341
1401.16319,0.03368
1400.13292,0.03414
1399.10265,0.03457
1398.07239,0.03464
1397.04212,0.03468
1396.01185,0.03485
1394.98159,0.03502
1393.95132,0.03501
1392.92105,0.03490
1391.89078,0.03492
1390.86052,0.03516
1389.83025,0.03555
1388.79998,0.03590
1387.76972,0.03620
1386.73945,0.03653
1385.70918,0.03700
1384.67892,0.03757
1383.64865,0.03801
1382.61838,0.03843
1381.58811,0.03892
1380.55785,0.03947
1379.52758,0.04018
1378.49731,0.04114
1377.46705,0.04216
1376.43678,0.04319
1375.40651,0.04430
1374.37624,0.04537
1373.34598,0.04632
1372.31571,0.04737
1371.28544,0.04858
1370.25518,0.04984
1369.22491,0.05123
1368.19464,0.05290
1367.16438,0.05476
1366.13411,0.05668
1365.10384,0.05861
1364.07357,0.06085
1363.04331,0.06374
1362.01304,0.06675
1360.98277,0.06971
1359.95251,0.07300
1358.92224,0.07670
1357.89197,0.08104
1356.86171,0.08596
1355.83144,0.09120
1354.80117,0.09666
1353.77090,0.10247
1352.74064,0.10851
1351.71037,0.11420
1350.68010,0.11895
1349.64984,0.12247
1348.61957,0.12423
1347.58930,0.12317
1346.55903,0.11840
1345.52877,0.10991
1344.49850,0.09867
1343.46823,0.08630
1342.43797,0.07499
1341.40770,0.06611
1340.37743,0.05943
1339.34717,0.05477
1338.31690,0.05210
1337.28663,0.05079
1336.25636,0.05025
1335.22610,0.05035
1334.19583,0.05099
1333.16556,0.05201
1332.13530,0.05347
1331.10503,0.05527
1330.07476,0.05706
1329.04449,0.05884
1328.01423,0.06075
1326.98396,0.06246
1325.95369,0.06357
1324.92343,0.06401
1323.89316,0.06354
1322.86289,0.06215
1321.83263,0.06051
1320.80236,0.05892
1319.77209,0.05726
1318.74182,0.05581
1317.71156,0.05497
1316.68129,0.05490
1315.65102,0.05566
1314.62076,0.05697
1313.59049,0.05860
1312.56022,0.06065
1311.52995,0.06305
1310.49969,0.06583
1309.46942,0.06908
1308.43915,0.07254
1307.40889,0.07585
1306.37862,0.07889
1305.34835,0.08186
1304.31809,0.08478
1303.28782,0.08716
1302.25755,0.08882
1301.22728,0.09024
1300.19702,0.09160
1299.16675,0.09254
1298.13648,0.09293
1297.10622,0.09319
1296.07595,0.09352
1295.04568,0.09365
1294.01542,0.09345
1292.98515,0.09296
1291.95488,0.09237
1290.92461,0.09186
1289.89435,0.09123
1288.86408,0.09040
1287.83381,0.08951
1286.80355,0.08858
1285.77328,0.08774
1284.74301,0.08684
1283.71274,0.08554
1282.68248,0.08390
1281.65221,0.08216
1280.62194,0.08040
1279.59168,0.07861
1278.56141,0.07658
1277.53114,0.07433
1276.50088,0.07222
1275.47061,0.07040
1274.44034,0.06876
1273.41007,0.06721
1272.37981,0.06575
1271.34954,0.06457
1270.31927,0.06385
1269.28901,0.06365
1268.25874,0.06382
1267.22847,0.06413
1266.19820,0.06469
1265.16794,0.06570
1264.13767,0.06711
1263.10740,0.06902
1262.07714,0.07154
1261.04687,0.07456
1260.01660,0.07804
1258.98634,0.08174
1257.95607,0.08516
1256.92580,0.08842
1255.89553,0.09177
1254.86527,0.09498
1253.83500,0.09781
1252.80473,0.10033
1251.77447,0.10250
1250.74420,0.10414
1249.71393,0.10502
1248.68366,0.10527
1247.65340,0.10501
1246.62313,0.10402
1245.59286,0.10242
1244.56260,0.10044
1243.53233,0.09802
1242.50206,0.09528
1241.47180,0.09242
1240.44153,0.08918
1239.41126,0.08545
1238.38099,0.08162
1237.35073,0.07797
1236.32046,0.07466
1235.29019,0.07172
1234.25993,0.06879
1233.22966,0.06549
1232.19939,0.06211
1231.16912,0.05928
1230.13886,0.05694
1229.10859,0.05479
1228.07832,0.05288
1227.04806,0.05132
1226.01779,0.04993
1224.98752,0.04859
1223.95726,0.04740
1222.92699,0.04629
1221.89672,0.04532
1220.86645,0.04462
1219.83619,0.04403
1218.80592,0.04336
1217.77565,0.04262
1216.74539,0.04166
1215.71512,0.04053
1214.68485,0.03940
1213.65459,0.03833
1212.62432,0.03718
1211.59405,0.03588
1210.56378,0.03472
1209.53352,0.03376
1208.50325,0.03281
1207.47298,0.03193
1206.44272,0.03137
1205.41245,0.03114
1204.38218,0.03090
1203.35191,0.03057
1202.32165,0.03013
1201.29138,0.02971
1200.26111,0.02958
1199.23085,0.02958
1198.20058,0.02951
1197.17031,0.02928
1196.14005,0.02900
1195.10978,0.02887
1194.07951,0.02900
1193.04924,0.02945
1192.01898,0.02983
1190.98871,0.03000
1189.95844,0.03031
1188.92818,0.03071
1187.89791,0.03093
1186.86764,0.03113
1185.83737,0.03167
1184.80711,0.03257
1183.77684,0.03332
1182.74657,0.03378
1181.71631,0.03430
1180.68604,0.03496
1179.65577,0.03583
1178.62551,0.03706
1177.59524,0.03854
1176.56497,0.04014
1175.53470,0.04177
1174.50444,0.04326
1173.47417,0.04485
1172.44390,0.04680
1171.41364,0.04902
1170.38337,0.05154
1169.35310,0.05451
1168.32283,0.05768
1167.29257,0.06097
1166.26230,0.06500
1165.23203,0.06980
1164.20177,0.07506
1163.17150,0.08129
1162.14123,0.08854
1161.11097,0.09612
1160.08070,0.10424
1159.05043,0.11329
1158.02016,0.12274
1156.98990,0.13257
1155.95963,0.14315
1154.92936,0.15431
1153.89910,0.16587
1152.86883,0.17758
1151.83856,0.18925
1150.80830,0.20092
1149.77803,0.21227
1148.74776,0.22302
1147.71749,0.23352
1146.68723,0.24393
1145.65696,0.25381
1144.62669,0.26305
1143.59643,0.27195
1142.56616,0.28056
1141.53589,0.28839
1140.50562,0.29525
1139.47536,0.30170
1138.44509,0.30803
1137.41482,0.31403
1136.38456,0.31956
1135.35429,0.32494
1134.32402,0.33054
1133.29376,0.33599
1132.26349,0.34120
1131.23322,0.34669
1130.20295,0.35263
1129.17269,0.35874
1128.14242,0.36462
1127.11215,0.37068
1126.08189,0.37743
1125.05162,0.38453
1124.02135,0.39180
1122.99108,0.39916
1121.96082,0.40639
1120.93055,0.41359
1119.90028,0.42113
1118.87002,0.42895
1117.83975,0.43647
1116.80948,0.44369
1115.77922,0.45094
1114.74895,0.45832
1113.71868,0.46599
1112.68841,0.47371
1111.65815,0.48158
1110.62788,0.48999
1109.59761,0.49854
1108.56735,0.50695
1107.53708,0.51554
1106.50681,0.52466
1105.47654,0.53412
1104.44628,0.54342
1103.41601,0.55204
1102.38574,0.56007
1101.35548,0.56848
1100.32521,0.57706
1099.29494,0.58478
1098.26468,0.59202
1097.23441,0.59877
1096.20414,0.60377
1095.17387,0.60687
1094.14361,0.60889
1093.11334,0.61096
1092.08307,0.61273
1091.05281,0.61273
1090.02254,0.61106
1088.99227,0.60810
1087.96201,0.60421
1086.93174,0.59964
1085.90147,0.59432
1084.87120,0.58908
1083.84094,0.58389
1082.81067,0.57767
1081.78040,0.56990
1080.75014,0.56094
1079.71987,0.55261
1078.68960,0.54561
1077.65933,0.53863
1076.62907,0.53158
1075.59880,0.52497
1074.56853,0.51862
1073.53827,0.51239
1072.50800,0.50646
1071.47773,0.50145
1070.44747,0.49744
1069.41720,0.49407
1068.38693,0.49092
1067.35666,0.48702
1066.32640,0.48229
1065.29613,0.47709
1064.26586,0.47084
1063.23560,0.46365
1062.20533,0.45582
1061.17506,0.44726
1060.14479,0.43812
1059.11453,0.42844
1058.08426,0.41811
1057.05399,0.40680
1056.02373,0.39481
1054.99346,0.38334
1053.96319,0.37282
1052.93293,0.36288
1051.90266,0.35347
1050.87239,0.34457
1049.84212,0.33613
1048.81186,0.32873
1047.78159,0.32269
1046.75132,0.31792
1045.72106,0.31451
1044.69079,0.31233
1043.66052,0.31130
1042.63025,0.31100
1041.59999,0.31070
1040.56972,0.31046
1039.53945,0.31031
1038.50919,0.30994
1037.47892,0.30919
1036.44865,0.30770
1035.41839,0.30544
1034.38812,0.30275
1033.35785,0.29983
1032.32758,0.29670
1031.29732,0.29303
1030.26705,0.28837
1029.23678,0.28248
1028.20652,0.27567
1027.17625,0.26826
1026.14598,0.26044
1025.11571,0.25256
1024.08545,0.24446
1023.05518,0.23580
1022.02491,0.22677
1020.99465,0.21774
1019.96438,0.20919
1018.93411,0.20114
1017.90385,0.19325
1016.87358,0.18572
1015.84331,0.17890
1014.81304,0.17254
1013.78278,0.16624
1012.75251,0.16021
1011.72224,0.15507
1010.69198,0.15080
1009.66171,0.14699
1008.63144,0.14367
1007.60118,0.14093
1006.57091,0.13888
1005.54064,0.13749
1004.51037,0.13642
1003.48011,0.13557
1002.44984,0.13499
1001.41957,0.13473
1000.38931,0.13478
999.35904,0.13499
998.32877,0.13527
997.29850,0.13540
996.26824,0.13519
995.23797,0.13468
994.20770,0.13386
993.17744,0.13283
992.14717,0.13176
991.11690,0.13048
990.08664,0.12884
989.05637,0.12700
988.02610,0.12472
986.99583,0.12184
985.96557,0.11872
984.93530,0.11549
983.90503,0.11230
982.87477,0.10923
981.84450,0.10643
980.81423,0.10399
979.78396,0.10143
978.75370,0.09863
977.72343,0.09597
976.69316,0.09354
975.66290,0.09152
974.63263,0.09033
973.60236,0.08995
972.57210,0.09007
971.54183,0.09052
970.51156,0.09117
969.48129,0.09212
968.45103,0.09387
967.42076,0.09667
966.39049,0.10023
965.36023,0.10424
964.32996,0.10861
963.29969,0.11381
962.26942,0.11989
961.23916,0.12616
960.20889,0.13264
959.17862,0.13988
958.14836,0.14779
957.11809,0.15576
956.08782,0.16353
955.05756,0.17090
954.02729,0.17753
952.99702,0.18371
951.96675,0.18973
950.93649,0.19486
949.90622,0.19867
948.87595,0.20147
947.84569,0.20319
946.81542,0.20424
945.78515,0.20522
944.75489,0.20604
943.72462,0.20631
942.69435,0.20564
941.66408,0.20405
940.63382,0.20200
939.60355,0.19992
938.57328,0.19811
937.54302,0.19649
936.51275,0.19479
935.48248,0.19265
934.45221,0.19001
933.42195,0.18730
932.39168,0.18467
931.36141,0.18206
930.33115,0.17931
929.30088,0.17582
928.27061,0.17164
927.24035,0.16798
926.21008,0.16534
925.17981,0.16301
924.14954,0.16037
923.11928,0.15728
922.08901,0.15385
921.05874,0.15060
920.02848,0.14806
918.99821,0.14594
917.96794,0.14356
916.93767,0.14077
915.90741,0.13798
914.87714,0.13530
913.84687,0.13246
912.81661,0.12960
911.78634,0.12683
910.75607,0.12388
909.72581,0.12095
908.69554,0.11842
907.66527,0.11574
906.63500,0.11261
905.60474,0.10976
904.57447,0.10734
903.54420,0.10500
902.51394,0.10280
901.48367,0.10110
900.45340,0.10012
899.42313,0.09969
898.39287,0.09971
897.36260,0.10029
896.33233,0.10158
895.30207,0.10348
894.27180,0.10590
893.24153,0.10879
892.21127,0.11192
891.18100,0.11529
890.15073,0.11882
889.12046,0.12211
888.09020,0.12524
887.05993,0.12817
886.02966,0.13032
884.99940,0.13136
883.96913,0.13166
882.93886,0.13143
881.90859,0.13004
880.87833,0.12761
879.84806,0.12527
878.81779,0.12288
877.78753,0.12032
876.75726,0.11830
875.72699,0.11714
874.69673,0.11700
873.66646,0.11736
872.63619,0.11767
871.60592,0.11833
870.57566,0.11964
869.54539,0.12121
868.51512,0.12278
867.48486,0.12441
866.45459,0.12619
865.42432,0.12805
864.39406,0.12946
863.36379,0.13028
862.33352,0.13106
861.30325,0.13196
860.27299,0.13282
859.24272,0.13390
858.21245,0.13566
857.18219,0.13731
856.15192,0.13820
855.12165,0.13913
854.09138,0.14069
853.06112,0.14237
852.03085,0.14398
851.00058,0.14578
849.97032,0.14756
848.94005,0.14946
847.90978,0.15148
846.87952,0.15279
845.84925,0.15299
844.81898,0.15270
843.78871,0.15230
842.75845,0.15140
841.72818,0.15030
840.69791,0.14987
839.66765,0.14942
838.63738,0.14788
837.60711,0.14571
836.57684,0.14322
835.54658,0.14007
834.51631,0.13682
833.48604,0.13393
832.45578,0.13078
831.42551,0.12731
830.39524,0.12417
829.36498,0.12098
828.33471,0.11753
827.30444,0.11466
826.27417,0.11226
825.24391,0.10937
824.21364,0.10628
823.18337,0.10356
822.15311,0.10076
821.12284,0.09824
820.09257,0.09651
819.06230,0.09495
818.03204,0.09341
817.00177,0.09209
815.97150,0.09053
814.94124,0.08880
813.91097,0.08739
812.88070,0.08611
811.85044,0.08512
810.82017,0.08422
809.78990,0.08252
808.75963,0.08057
807.72937,0.07949
806.69910,0.07909
805.66883,0.07813
804.63857,0.07628
803.60830,0.07449
802.57803,0.07327
801.54777,0.07156
800.51750,0.06914
799.48723,0.06721
798.45696,0.06559
797.42670,0.06358
796.39643,0.06179
795.36616,0.06031
794.33590,0.05854
793.30563,0.05697
792.27536,0.05600
791.24509,0.05504
790.21483,0.05377
789.18456,0.05246
788.15429,0.05104
787.12403,0.04951
786.09376,0.04850
785.06349,0.04806
784.03323,0.04726
783.00296,0.04569
781.97269,0.04425
780.94242,0.04352
779.91216,0.04273
778.88189,0.04144
777.85162,0.03999
776.82136,0.03891
775.79109,0.03861
774.76082,0.03871
773.73055,0.03869
772.70029,0.03842
771.67002,0.03792
770.63975,0.03726
769.60949,0.03675
768.57922,0.03678
767.54895,0.03715
766.51869,0.03732
765.48842,0.03729
764.45815,0.03723
763.42788,0.03703
762.39762,0.03707
761.36735,0.03754
760.33708,0.03755
759.30682,0.03713
758.27655,0.03726
757.24628,0.03755
756.21601,0.03731
755.18575,0.03704
754.15548,0.03736
753.12521,0.03823
752.09495,0.03880
751.06468,0.03841
750.03441,0.03769
749.00415,0.03749
747.97388,0.03781
746.94361,0.03814
745.91334,0.03840
744.88308,0.03897
743.85281,0.03995
742.82254,0.04087
741.79228,0.04099
740.76201,0.04075
739.73174,0.04099
738.70147,0.04132
737.67121,0.04178
736.64094,0.04217
735.61067,0.04204
734.58041,0.04204
733.55014,0.04228
732.51987,0.04225
731.48961,0.04239
730.45934,0.04314
729.42907,0.04401
728.39880,0.04464
727.36854,0.04474
726.33827,0.04464
725.30800,0.04480
724.27774,0.04497
723.24747,0.04524
722.21720,0.04577
721.18694,0.04650
720.15667,0.04717
719.12640,0.04761
718.09613,0.04813
717.06587,0.04842
716.03560,0.04807
715.00533,0.04806
713.97507,0.04882
712.94480,0.04937
711.91453,0.04923
710.88426,0.04880
709.85400,0.04876
708.82373,0.04955
707.79346,0.05071
706.76320,0.05164
705.73293,0.05213
704.70266,0.05217
703.67240,0.05248
702.64213,0.05320
701.61186,0.05349
700.58159,0.05343
699.55133,0.05373
698.52106,0.05421
697.49079,0.05428
696.46053,0.05440
695.43026,0.05497
694.39999,0.05499
693.36972,0.05453
692.33946,0.05515
691.30919,0.05671
690.27892,0.05772
689.24866,0.05801
688.21839,0.05849
687.18812,0.05911
686.15786,0.05939
685.12759,0.05940
684.09732,0.05925
683.06705,0.05908
682.03679,0.05921
681.00652,0.05978
679.97625,0.06061
678.94599,0.06162
677.91572,0.06225
676.88545,0.06183
675.85518,0.06110
674.82492,0.06112
673.79465,0.06221
672.76438,0.06352
671.73412,0.06411
670.70385,0.06460
669.67358,0.06578
668.64332,0.06675
667.61305,0.06509
666.58278,0.06471
665.55251,0.06605
664.52225,0.06691
663.49198,0.06708
662.46171,0.06748
661.43145,0.06784
660.40118,0.06806
659.37091,0.06879
658.34065,0.06987
657.31038,0.07036
656.28011,0.07008
655.24984,0.06984
654.21958,0.07007
653.18931,0.07097
652.15904,0.07251
651.12878,0.07363
650.09851,0.07378
649.06824,0.07387
648.03797,0.07426
647.00771,0.07461
645.97744,0.07500
644.94717,0.07538
643.91691,0.07568
642.88664,0.07636
641.85637,0.07724
640.82611,0.07779
639.79584,0.07815
638.76557,0.07829
637.73530,0.07838
636.70504,0.07865
635.67477,0.07915
634.64450,0.08015
633.61424,0.08073
632.58397,0.08057
631.55370,0.08102
630.52343,0.08213
629.49317,0.08275
628.46290,0.08295
627.43263,0.08370
626.40237,0.08444
625.37210,0.08445
624.34183,0.08466
623.31157,0.08536
622.28130,0.08585
621.25103,0.08627
620.22076,0.08708
619.19050,0.08762
618.16023,0.08756
617.12996,0.08829
616.09970,0.08976
615.06943,0.09076
614.03916,0.09110
613.00889,0.09076
611.97863,0.09014
610.94836,0.09046
609.91809,0.09218
608.88783,0.09365
607.85756,0.09376
606.82729,0.09411
605.79703,0.09602
604.76676,0.09787
603.73649,0.09805
602.70622,0.09814
601.67596,0.09985
600.64569,0.10156
599.61542,0.10145
598.58516,0.10166
597.55489,0.10354
596.52462,0.10481
595.49436,0.10491
594.46409,0.10534
593.43382,0.10635
592.40355,0.10741
591.37329,0.10891
590.34302,0.11117
589.31275,0.11272
588.28249,0.11288
587.25222,0.11345
586.22195,0.11512
585.19168,0.11625
584.16142,0.11728
583.13115,0.11918
582.10088,0.12060
581.07062,0.12132
580.04035,0.12235
579.01008,0.12353
577.97982,0.12404
576.94955,0.12438
575.91928,0.12515
574.88901,0.12603
573.85875,0.12662
572.82848,0.12717
571.79821,0.12850
570.76795,0.12976
569.73768,0.12999
568.70741,0.12996
567.67714,0.13047
566.64688,0.13143
565.61661,0.13247
564.58634,0.13375
563.55608,0.13474
562.52581,0.13541
561.49554,0.13657
560.46528,0.13776
559.43501,0.13884
558.40474,0.14007
557.37447,0.14085
556.34421,0.14066
555.31394,0.14007
554.28367,0.14053
553.25341,0.14207
552.22314,0.14394
551.19287,0.14589
550.16260,0.14631
549.13234,0.14472
548.10207,0.14356
547.07180,0.14345
546.04154,0.14291
545.01127,0.14195
543.98100,0.14219
542.95074,0.14367
541.92047,0.14442
540.89020,0.14467
539.85993,0.14591
538.82967,0.14678
537.79940,0.14692
536.76913,0.14809
535.73887,0.14962
534.70860,0.15003
533.67833,0.14956
532.64806,0.15005
531.61780,0.15173
530.58753,0.15163
529.55726,0.14947
528.52700,0.14886
527.49673,0.15120
526.46646,0.15399
525.43620,0.15605
524.40593,0.15804
523.37566,0.15883
522.34539,0.15761
521.31513,0.15601
520.28486,0.15568
519.25459,0.15696
518.22433,0.15900
517.19406,0.15936
516.16379,0.15860
515.13353,0.15962
514.10326,0.16034
513.07299,0.15839
512.04272,0.15636
511.01246,0.15555
509.98219,0.15544
508.95192,0.15625
507.92166,0.15618
506.89139,0.15442
505.86112,0.15287
504.83085,0.15229
503.80059,0.15263
502.77032,0.15349
501.74005,0.15302
500.70979,0.15077
499.67952,0.14900
498.64925,0.14909
497.61899,0.14928
496.58872,0.14835
495.55845,0.14676
494.52818,0.14503
493.49792,0.14433
492.46765,0.14452
491.43738,0.14566
490.40712,0.14599
489.37685,0.14300
488.34658,0.14011
487.31631,0.14057
486.28605,0.14231
485.25578,0.14391
484.22551,0.14442
483.19525,0.14229
482.16498,0.14088
481.13471,0.14086
480.10445,0.13875
479.07418,0.13720
478.04391,0.13757
477.01364,0.13702
475.98338,0.13714
474.95311,0.13799
473.92284,0.13624
472.89258,0.13344
471.86231,0.13349
470.83204,0.13397
469.80177,0.13243
468.77151,0.13171
467.74124,0.13218
466.71097,0.13208
465.68071,0.13115
464.65044,0.13000
463.62017,0.13071
462.58991,0.13258
461.55964,0.13248
460.52937,0.13026
459.49910,0.12940
458.46884,0.13125
457.43857,0.13158
456.40830,0.12839
455.37804,0.12594
454.34777,0.12661
453.31750,0.12952
452.28724,0.13196
451.25697,0.13145
450.22670,0.12809
449.19643,0.12549
448.16617,0.12669
447.13590,0.12971
446.10563,0.13016
445.07537,0.12917
444.04510,0.12951
443.01483,0.12956
441.98456,0.12900
440.95430,0.12886
439.92403,0.12943
438.89376,0.13086
437.86350,0.13185
436.83323,0.13130
435.80296,0.13052
434.77270,0.13049
433.74243,0.12931
432.71216,0.12694
431.68189,0.12383
430.65163,0.12185
429.62136,0.12456
428.59109,0.12955
427.56083,0.13246
426.53056,0.13225
425.50029,0.12898
424.47002,0.12342
423.43976,0.11720
422.40949,0.11523
421.37922,0.11911
420.34896,0.12504
419.31869,0.13153
418.28842,0.13251
417.25816,0.12654
416.22789,0.12178
415.19762,0.12177
414.16735,0.12423
413.13709,0.12586
412.10682,0.12696
411.07655,0.12771
410.04629,0.12729
409.01602,0.12329
407.98575,0.11696
406.95548,0.11450
405.92522,0.11647
404.89495,0.12086
403.86468,0.12593
402.83442,0.12489
401.80415,0.12015
400.77388,0.12101
399.74362,0.12401
