4998.85573,0.00030
4997.82546,-0.00066
4996.79519,0.00019
4995.76493,0.00185
4994.73466,0.00212
4993.70439,0.00201
4992.67413,0.00285
4991.64386,0.00314
4990.61359,0.00229
4989.58332,0.00183
4988.55306,0.00192
4987.52279,0.00214
4986.49252,0.00273
4985.46226,0.00282
4984.43199,0.00184
4983.40172,0.00023
4982.37145,-0.00084
4981.34119,0.00012
4980.31092,0.00193
4979.28065,0.00287
4978.25039,0.00269
4977.22012,0.00176
4976.18985,0.00153
4975.15959,0.00197
4974.12932,0.00219
4973.09905,0.00214
4972.06878,0.00126
4971.03852,0.00073
4970.00825,0.00143
4968.97798,0.00188
4967.94772,0.00174
4966.91745,0.00179
4965.88718,0.00208
4964.85691,0.00193
4963.82665,0.00127
4962.79638,0.00148
4961.76611,0.00249
4960.73585,0.00254
4959.70558,0.00192
4958.67531,0.00144
4957.64505,0.00078
4956.61478,0.00050
4955.58451,0.00069
4954.55424,0.00094
4953.52398,0.00120
4952.49371,0.00124
4951.46344,0.00134
4950.43318,0.00142
4949.40291,0.00115
4948.37264,0.00093
4947.34238,0.00118
4946.31211,0.00147
4945.28184,0.00086
4944.25157,0.00023
4943.22131,0.00042
4942.19104,0.00079
4941.16077,0.00118
4940.13051,0.00112
4939.10024,0.00083
4938.06997,0.00133
4937.03970,0.00224
4936.00944,0.00290
4934.97917,0.00344
4933.94890,0.00399
4932.91864,0.00386
4931.88837,0.00297
4930.85810,0.00235
4929.82784,0.00189
4928.79757,0.00129
4927.76730,0.00119
4926.73703,0.00141
4925.70677,0.00133
4924.67650,0.00107
4923.64623,0.00140
4922.61597,0.00214
4921.58570,0.00184
4920.55543,0.00097
4919.52516,0.00109
4918.49490,0.00177
4917.46463,0.00203
4916.43436,0.00161
4915.40410,0.00068
4914.37383,-0.00026
4913.34356,-0.00026
4912.31330,0.00070
4911.28303,0.00082
4910.25276,-0.00031
4909.22249,-0.00062
4908.19223,0.00044
4907.16196,0.00142
4906.13169,0.00171
4905.10143,0.00181
4904.07116,0.00204
4903.04089,0.00207
4902.01062,0.00188
4900.98036,0.00175
4899.95009,0.00124
4898.91982,0.00049
4897.88956,0.00053
4896.85929,0.00095
4895.82902,0.00112
4894.79876,0.00181
4893.76849,0.00259
4892.73822,0.00257
4891.70795,0.00258
4890.67769,0.00251
4889.64742,0.00178
4888.61715,0.00128
4887.58689,0.00149
4886.55662,0.00195
4885.52635,0.00230
4884.49609,0.00219
4883.46582,0.00160
4882.43555,0.00087
4881.40528,0.00032
4880.37502,0.00024
4879.34475,0.00056
4878.31448,0.00098
4877.28422,0.00138
4876.25395,0.00154
4875.22368,0.00166
4874.19341,0.00183
4873.16315,0.00129
4872.13288,0.00058
4871.10261,0.00082
4870.07235,0.00155
4869.04208,0.00245
4868.01181,0.00312
4866.98155,0.00280
4865.95128,0.00220
4864.92101,0.00189
4863.89074,0.00138
4862.86048,0.00067
4861.83021,0.00047
4860.79994,0.00080
4859.76968,0.00083
4858.73941,0.00070
4857.70914,0.00137
4856.67887,0.00206
4855.64861,0.00196
4854.61834,0.00193
4853.58807,0.00229
4852.55781,0.00254
4851.52754,0.00224
4850.49727,0.00129
4849.46701,0.00054
4848.43674,0.00068
4847.40647,0.00123
4846.37620,0.00189
4845.34594,0.00262
4844.31567,0.00285
4843.28540,0.00218
4842.25514,0.00124
4841.22487,0.00129
4840.19460,0.00218
4839.16433,0.00249
4838.13407,0.00175
4837.10380,0.00087
4836.07353,0.00058
4835.04327,0.00048
4834.01300,0.00061
4832.98273,0.00138
4831.95247,0.00205
4830.92220,0.00208
4829.89193,0.00187
4828.86166,0.00157
4827.83140,0.00130
4826.80113,0.00134
4825.77086,0.00171
4824.74060,0.00214
4823.71033,0.00250
4822.68006,0.00271
4821.64979,0.00257
4820.61953,0.00234
4819.58926,0.00198
4818.55899,0.00154
4817.52873,0.00169
4816.49846,0.00216
4815.46819,0.00229
4814.43793,0.00242
4813.40766,0.00262
4812.37739,0.00236
4811.34712,0.00221
4810.31686,0.00253
4809.28659,0.00261
4808.25632,0.00237
4807.22606,0.00217
4806.19579,0.00237
4805.16552,0.00261
4804.13526,0.00238
4803.10499,0.00214
4802.07472,0.00181
4801.04445,0.00127
4800.01419,0.00107
4798.98392,0.00123
4797.95365,0.00172
4796.92339,0.00236
4795.89312,0.00217
4794.86285,0.00097
4793.83258,0.00032
4792.80232,0.00100
4791.77205,0.00219
4790.74178,0.00299
4789.71152,0.00261
4788.68125,0.00113
4787.65098,-0.00001
4786.62072,0.00027
4785.59045,0.00136
4784.56018,0.00206
4783.52991,0.00212
4782.49965,0.00205
4781.46938,0.00272
4780.43911,0.00357
4779.40885,0.00335
4778.37858,0.00277
4777.34831,0.00208
4776.31804,0.00120
4775.28778,0.00109
4774.25751,0.00117
4773.22724,0.00092
4772.19698,0.00148
4771.16671,0.00264
4770.13644,0.00297
4769.10618,0.00273
4768.07591,0.00270
4767.04564,0.00241
4766.01537,0.00150
4764.98511,0.00071
4763.95484,0.00060
4762.92457,0.00073
4761.89431,0.00051
4760.86404,0.00019
4759.83377,0.00059
4758.80350,0.00145
4757.77324,0.00146
4756.74297,0.00074
4755.71270,0.00098
4754.68244,0.00175
4753.65217,0.00162
4752.62190,0.00152
4751.59164,0.00201
4750.56137,0.00232
4749.53110,0.00219
4748.50083,0.00204
4747.47057,0.00179
4746.44030,0.00169
4745.41003,0.00262
4744.37977,0.00364
4743.34950,0.00358
4742.31923,0.00301
4741.28897,0.00281
4740.25870,0.00252
4739.22843,0.00151
4738.19816,0.00078
4737.16790,0.00117
4736.13763,0.00187
4735.10736,0.00199
4734.07710,0.00194
4733.04683,0.00190
4732.01656,0.00144
4730.98629,0.00100
4729.95603,0.00103
4728.92576,0.00112
4727.89549,0.00077
4726.86523,0.00065
4725.83496,0.00142
4724.80469,0.00193
4723.77443,0.00165
4722.74416,0.00110
4721.71389,0.00059
4720.68362,0.00060
4719.65336,0.00065
4718.62309,0.00030
4717.59282,0.00035
4716.56256,0.00115
4715.53229,0.00162
4714.50202,0.00117
4713.47175,0.00084
4712.44149,0.00122
4711.41122,0.00174
4710.38095,0.00130
4709.35069,0.00044
4708.32042,0.00082
4707.29015,0.00157
4706.25989,0.00123
4705.22962,0.00070
4704.19935,0.00041
4703.16908,-0.00017
4702.13882,-0.00018
4701.10855,0.00114
4700.07828,0.00266
4699.04802,0.00306
4698.01775,0.00240
4696.98748,0.00173
4695.95721,0.00158
4694.92695,0.00144
4693.89668,0.00171
4692.86641,0.00241
4691.83615,0.00227
4690.80588,0.00135
4689.77561,0.00066
4688.74535,0.00069
4687.71508,0.00122
4686.68481,0.00174
4685.65454,0.00230
4684.62428,0.00274
4683.59401,0.00222
4682.56374,0.00119
4681.53348,0.00094
4680.50321,0.00122
4679.47294,0.00100
4678.44267,0.00072
4677.41241,0.00113
4676.38214,0.00146
4675.35187,0.00143
4674.32161,0.00150
4673.29134,0.00154
4672.26107,0.00153
4671.23081,0.00156
4670.20054,0.00143
4669.17027,0.00108
4668.14000,0.00107
4667.10974,0.00157
4666.07947,0.00176
4665.04920,0.00193
4664.01894,0.00270
4662.98867,0.00291
4661.95840,0.00224
4660.92814,0.00190
4659.89787,0.00197
4658.86760,0.00195
4657.83733,0.00182
4656.80707,0.00167
4655.77680,0.00137
4654.74653,0.00105
4653.71627,0.00108
4652.68600,0.00145
4651.65573,0.00228
4650.62546,0.00303
4649.59520,0.00286
4648.56493,0.00226
4647.53466,0.00222
4646.50440,0.00258
4645.47413,0.00251
4644.44386,0.00236
4643.41360,0.00244
4642.38333,0.00208
4641.35306,0.00109
4640.32279,0.00035
4639.29253,0.00074
4638.26226,0.00175
4637.23199,0.00224
4636.20173,0.00156
4635.17146,0.00053
4634.14119,0.00045
4633.11092,0.00084
4632.08066,0.00155
4631.05039,0.00234
4630.02012,0.00234
4628.98986,0.00179
4627.95959,0.00120
4626.92932,0.00128
4625.89906,0.00216
4624.86879,0.00279
4623.83852,0.00262
4622.80825,0.00209
4621.77799,0.00205
4620.74772,0.00257
4619.71745,0.00249
4618.68719,0.00201
4617.65692,0.00236
4616.62665,0.00268
4615.59638,0.00198
4614.56612,0.00110
4613.53585,0.00108
4612.50558,0.00131
4611.47532,0.00118
4610.44505,0.00165
4609.41478,0.00264
4608.38452,0.00296
4607.35425,0.00252
4606.32398,0.00210
4605.29371,0.00224
4604.26345,0.00267
4603.23318,0.00284
4602.20291,0.00277
4601.17265,0.00264
4600.14238,0.00235
4599.11211,0.00189
4598.08185,0.00158
4597.05158,0.00204
4596.02131,0.00289
4594.99104,0.00297
4593.96078,0.00201
4592.93051,0.00064
4591.90024,-0.00047
4590.86998,-0.00049
4589.83971,0.00097
4588.80944,0.00255
4587.77917,0.00285
4586.74891,0.00244
4585.71864,0.00237
4584.68837,0.00229
4583.65811,0.00175
4582.62784,0.00133
4581.59757,0.00142
4580.56731,0.00184
4579.53704,0.00217
4578.50677,0.00198
4577.47650,0.00144
4576.44624,0.00089
4575.41597,0.00044
4574.38570,0.00041
4573.35544,0.00071
4572.32517,0.00071
4571.29490,0.00005
4570.26463,-0.00045
4569.23437,0.00017
4568.20410,0.00140
4567.17383,0.00210
4566.14357,0.00201
4565.11330,0.00194
4564.08303,0.00188
4563.05277,0.00146
4562.02250,0.00118
4560.99223,0.00106
4559.96196,0.00105
4558.93170,0.00136
4557.90143,0.00154
4556.87116,0.00106
4555.84090,0.00053
4554.81063,0.00088
4553.78036,0.00161
4552.75009,0.00191
4551.71983,0.00180
4550.68956,0.00159
4549.65929,0.00156
4548.62903,0.00136
4547.59876,0.00101
4546.56849,0.00141
4545.53823,0.00189
4544.50796,0.00126
4543.47769,0.00053
4542.44742,0.00088
4541.41716,0.00147
4540.38689,0.00130
4539.35662,0.00070
4538.32636,0.00050
4537.29609,0.00117
4536.26582,0.00217
4535.23556,0.00239
4534.20529,0.00196
4533.17502,0.00184
4532.14475,0.00169
4531.11449,0.00088
4530.08422,0.00030
4529.05395,0.00057
4528.02369,0.00092
4526.99342,0.00082
4525.96315,0.00047
4524.93288,0.00028
4523.90262,0.00066
4522.87235,0.00156
4521.84208,0.00252
4520.81182,0.00263
4519.78155,0.00209
4518.75128,0.00176
4517.72102,0.00173
4516.69075,0.00195
4515.66048,0.00188
4514.63021,0.00163
4513.59995,0.00192
4512.56968,0.00246
4511.53941,0.00228
4510.50915,0.00150
4509.47888,0.00129
4508.44861,0.00175
4507.41834,0.00221
4506.38808,0.00216
4505.35781,0.00161
4504.32754,0.00159
4503.29728,0.00233
4502.26701,0.00276
4501.23674,0.00284
4500.20648,0.00287
4499.17621,0.00247
4498.14594,0.00201
4497.11567,0.00204
4496.08541,0.00203
4495.05514,0.00170
4494.02487,0.00131
4492.99461,0.00114
4491.96434,0.00155
4490.93407,0.00239
4489.90380,0.00308
4488.87354,0.00329
4487.84327,0.00296
4486.81300,0.00239
4485.78274,0.00203
4484.75247,0.00183
4483.72220,0.00151
4482.69194,0.00102
4481.66167,0.00079
4480.63140,0.00127
4479.60113,0.00195
4478.57087,0.00227
4477.54060,0.00253
4476.51033,0.00289
4475.48007,0.00266
4474.44980,0.00210
4473.41953,0.00213
4472.38926,0.00240
4471.35900,0.00219
4470.32873,0.00165
4469.29846,0.00141
4468.26820,0.00161
4467.23793,0.00169
4466.20766,0.00135
4465.17740,0.00128
4464.14713,0.00148
4463.11686,0.00145
4462.08659,0.00160
4461.05633,0.00204
4460.02606,0.00242
4458.99579,0.00257
4457.96553,0.00256
4456.93526,0.00253
4455.90499,0.00231
4454.87473,0.00208
4453.84446,0.00230
4452.81419,0.00270
4451.78392,0.00256
4450.75366,0.00210
4449.72339,0.00216
4448.69312,0.00241
4447.66286,0.00250
4446.63259,0.00232
4445.60232,0.00143
4444.57205,0.00071
4443.54179,0.00087
4442.51152,0.00135
4441.48125,0.00160
4440.45099,0.00159
4439.42072,0.00143
4438.39045,0.00140
4437.36019,0.00146
4436.32992,0.00120
4435.29965,0.00108
4434.26938,0.00137
4433.23912,0.00168
4432.20885,0.00209
4431.17858,0.00258
4430.14832,0.00298
4429.11805,0.00293
4428.08778,0.00230
4427.05751,0.00201
4426.02725,0.00197
4424.99698,0.00152
4423.96671,0.00163
4422.93645,0.00213
4421.90618,0.00149
4420.87591,0.00021
4419.84565,0.00003
4418.81538,0.00104
4417.78511,0.00212
4416.75484,0.00254
4415.72458,0.00244
4414.69431,0.00220
4413.66404,0.00196
4412.63378,0.00155
4411.60351,0.00092
4410.57324,0.00074
4409.54297,0.00112
4408.51271,0.00142
4407.48244,0.00158
4406.45217,0.00161
4405.42191,0.00141
4404.39164,0.00159
4403.36137,0.00243
4402.33111,0.00313
4401.30084,0.00310
4400.27057,0.00267
4399.24030,0.00242
4398.21004,0.00237
4397.17977,0.00212
4396.14950,0.00199
4395.11924,0.00247
4394.08897,0.00291
4393.05870,0.00260
4392.02844,0.00189
4390.99817,0.00137
4389.96790,0.00134
4388.93763,0.00172
4387.90737,0.00215
4386.87710,0.00252
4385.84683,0.00273
4384.81657,0.00290
4383.78630,0.00315
4382.75603,0.00279
4381.72576,0.00206
4380.69550,0.00187
4379.66523,0.00196
4378.63496,0.00196
4377.60470,0.00193
4376.57443,0.00218
4375.54416,0.00293
4374.51390,0.00339
4373.48363,0.00282
4372.45336,0.00205
4371.42309,0.00221
4370.39283,0.00286
4369.36256,0.00336
4368.33229,0.00367
4367.30203,0.00369
4366.27176,0.00378
4365.24149,0.00392
4364.21122,0.00337
4363.18096,0.00264
4362.15069,0.00260
4361.12042,0.00279
4360.09016,0.00286
4359.05989,0.00283
4358.02962,0.00268
4356.99936,0.00276
4355.96909,0.00314
4354.93882,0.00315
4353.90855,0.00301
4352.87829,0.00331
4351.84802,0.00342
4350.81775,0.00304
4349.78749,0.00263
4348.75722,0.00245
4347.72695,0.00267
4346.69668,0.00294
4345.66642,0.00306
4344.63615,0.00321
4343.60588,0.00323
4342.57562,0.00298
4341.54535,0.00303
4340.51508,0.00346
4339.48482,0.00354
4338.45455,0.00339
4337.42428,0.00354
4336.39401,0.00371
4335.36375,0.00353
4334.33348,0.00309
4333.30321,0.00286
4332.27295,0.00294
4331.24268,0.00307
4330.21241,0.00330
4329.18214,0.00342
4328.15188,0.00305
4327.12161,0.00279
4326.09134,0.00301
4325.06108,0.00312
4324.03081,0.00280
4323.00054,0.00248
4321.97028,0.00275
4320.94001,0.00285
4319.90974,0.00220
4318.87947,0.00176
4317.84921,0.00201
4316.81894,0.00249
4315.78867,0.00280
4314.75841,0.00306
4313.72814,0.00333
4312.69787,0.00343
4311.66761,0.00339
4310.63734,0.00302
4309.60707,0.00265
4308.57680,0.00296
4307.54654,0.00343
4306.51627,0.00351
4305.48600,0.00350
4304.45574,0.00352
4303.42547,0.00351
4302.39520,0.00310
4301.36493,0.00234
4300.33467,0.00223
4299.30440,0.00270
4298.27413,0.00292
4297.24387,0.00313
4296.21360,0.00381
4295.18333,0.00457
4294.15307,0.00459
4293.12280,0.00391
4292.09253,0.00334
4291.06226,0.00291
4290.03200,0.00264
4289.00173,0.00277
4287.97146,0.00275
4286.94120,0.00260
4285.91093,0.00276
4284.88066,0.00287
4283.85039,0.00281
4282.82013,0.00268
4281.78986,0.00204
4280.75959,0.00127
4279.72933,0.00169
4278.69906,0.00285
4277.66879,0.00320
4276.63853,0.00307
4275.60826,0.00314
4274.57799,0.00274
4273.54772,0.00217
4272.51746,0.00209
4271.48719,0.00211
4270.45692,0.00227
4269.42666,0.00267
4268.39639,0.00306
4267.36612,0.00344
4266.33585,0.00363
4265.30559,0.00316
4264.27532,0.00241
4263.24505,0.00242
4262.21479,0.00269
4261.18452,0.00213
4260.15425,0.00153
4259.12399,0.00194
4258.09372,0.00259
4257.06345,0.00290
4256.03318,0.00322
4255.00292,0.00298
4253.97265,0.00202
4252.94238,0.00163
4251.91212,0.00200
4250.88185,0.00242
4249.85158,0.00267
4248.82132,0.00271
4247.79105,0.00264
4246.76078,0.00258
4245.73051,0.00247
4244.70025,0.00238
4243.66998,0.00228
4242.63971,0.00233
4241.60945,0.00280
4240.57918,0.00322
4239.54891,0.00313
4238.51864,0.00273
4237.48838,0.00211
4236.45811,0.00166
4235.42784,0.00183
4234.39758,0.00217
4233.36731,0.00226
4232.33704,0.00217
4231.30678,0.00224
4230.27651,0.00270
4229.24624,0.00312
4228.21597,0.00295
4227.18571,0.00253
4226.15544,0.00238
4225.12517,0.00211
4224.09491,0.00154
4223.06464,0.00140
4222.03437,0.00192
4221.00410,0.00234
4219.97384,0.00251
4218.94357,0.00297
4217.91330,0.00324
4216.88304,0.00274
4215.85277,0.00227
4214.82250,0.00233
4213.79224,0.00240
4212.76197,0.00242
4211.73170,0.00256
4210.70143,0.00255
4209.67117,0.00235
4208.64090,0.00230
4207.61063,0.00237
4206.58037,0.00240
4205.55010,0.00210
4204.51983,0.00185
4203.48956,0.00251
4202.45930,0.00343
4201.42903,0.00394
4200.39876,0.00395
4199.36850,0.00354
4198.33823,0.00346
4197.30796,0.00359
4196.27770,0.00336
4195.24743,0.00301
4194.21716,0.00260
4193.18689,0.00248
4192.15663,0.00285
4191.12636,0.00261
4190.09609,0.00163
4189.06583,0.00109
4188.03556,0.00128
4187.00529,0.00168
4185.97502,0.00192
4184.94476,0.00196
4183.91449,0.00192
4182.88422,0.00177
4181.85396,0.00182
4180.82369,0.00247
4179.79342,0.00326
4178.76316,0.00326
4177.73289,0.00266
4176.70262,0.00238
4175.67235,0.00238
4174.64209,0.00264
4173.61182,0.00330
4172.58155,0.00367
4171.55129,0.00336
4170.52102,0.00279
4169.49075,0.00234
4168.46049,0.00244
4167.43022,0.00310
4166.39995,0.00353
4165.36968,0.00341
4164.33942,0.00316
4163.30915,0.00303
4162.27888,0.00276
4161.24862,0.00235
4160.21835,0.00225
4159.18808,0.00244
4158.15781,0.00273
4157.12755,0.00294
4156.09728,0.00290
4155.06701,0.00274
4154.03675,0.00257
4153.00648,0.00238
4151.97621,0.00255
4150.94595,0.00316
4149.91568,0.00348
4148.88541,0.00294
4147.85514,0.00224
4146.82488,0.00225
4145.79461,0.00247
4144.76434,0.00239
4143.73408,0.00263
4142.70381,0.00311
4141.67354,0.00296
4140.64327,0.00245
4139.61301,0.00225
4138.58274,0.00226
4137.55247,0.00240
4136.52221,0.00269
4135.49194,0.00277
4134.46167,0.00247
4133.43141,0.00245
4132.40114,0.00286
4131.37087,0.00294
4130.34060,0.00278
4129.31034,0.00251
4128.28007,0.00217
4127.24980,0.00221
4126.21954,0.00270
4125.18927,0.00326
4124.15900,0.00343
4123.12873,0.00307
4122.09847,0.00260
4121.06820,0.00261
4120.03793,0.00313
4119.00767,0.00348
4117.97740,0.00347
4116.94713,0.00338
4115.91687,0.00321
4114.88660,0.00288
4113.85633,0.00268
4112.82606,0.00271
4111.79580,0.00258
4110.76553,0.00221
4109.73526,0.00194
4108.70500,0.00197
4107.67473,0.00208
4106.64446,0.00178
4105.61420,0.00150
4104.58393,0.00206
4103.55366,0.00269
4102.52339,0.00242
4101.49313,0.00180
4100.46286,0.00187
4099.43259,0.00252
4098.40233,0.00278
4097.37206,0.00248
4096.34179,0.00224
4095.31152,0.00238
4094.28126,0.00269
4093.25099,0.00282
4092.22072,0.00273
4091.19046,0.00268
4090.16019,0.00292
4089.12992,0.00335
4088.09966,0.00363
4087.06939,0.00379
4086.03912,0.00403
4085.00885,0.00419
4083.97859,0.00404
4082.94832,0.00365
4081.91805,0.00329
4080.88779,0.00314
4079.85752,0.00298
4078.82725,0.00294
4077.79698,0.00345
4076.76672,0.00389
4075.73645,0.00380
4074.70618,0.00353
4073.67592,0.00320
4072.64565,0.00279
4071.61538,0.00270
4070.58512,0.00330
4069.55485,0.00387
4068.52458,0.00400
4067.49431,0.00431
4066.46405,0.00448
4065.43378,0.00428
4064.40351,0.00385
4063.37325,0.00334
4062.34298,0.00333
4061.31271,0.00358
4060.28244,0.00330
4059.25218,0.00292
4058.22191,0.00337
4057.19164,0.00413
4056.16138,0.00429
4055.13111,0.00383
4054.10084,0.00325
4053.07058,0.00281
4052.04031,0.00277
4051.01004,0.00342
4049.97977,0.00382
4048.94951,0.00341
4047.91924,0.00328
4046.88897,0.00377
4045.85871,0.00418
4044.82844,0.00396
4043.79817,0.00339
4042.76791,0.00309
4041.73764,0.00335
4040.70737,0.00400
4039.67710,0.00415
4038.64684,0.00378
4037.61657,0.00392
4036.58630,0.00431
4035.55604,0.00430
4034.52577,0.00429
4033.49550,0.00430
4032.46523,0.00419
4031.43497,0.00426
4030.40470,0.00457
4029.37443,0.00467
4028.34417,0.00439
4027.31390,0.00414
4026.28363,0.00431
4025.25337,0.00464
4024.22310,0.00458
4023.19283,0.00457
4022.16256,0.00496
4021.13230,0.00500
4020.10203,0.00459
4019.07176,0.00426
4018.04150,0.00393
4017.01123,0.00369
4015.98096,0.00380
4014.95069,0.00401
4013.92043,0.00415
4012.89016,0.00434
4011.85989,0.00442
4010.82963,0.00413
4009.79936,0.00369
4008.76909,0.00341
4007.73883,0.00348
4006.70856,0.00381
4005.67829,0.00399
4004.64802,0.00395
4003.61776,0.00421
4002.58749,0.00450
4001.55722,0.00439
4000.52696,0.00436
3999.49669,0.00451
3998.46642,0.00432
3997.43615,0.00383
3996.40589,0.00359
3995.37562,0.00363
3994.34535,0.00390
3993.31509,0.00431
3992.28482,0.00444
3991.25455,0.00438
3990.22429,0.00432
3989.19402,0.00428
3988.16375,0.00446
3987.13348,0.00447
3986.10322,0.00384
3985.07295,0.00319
3984.04268,0.00307
3983.01242,0.00336
3981.98215,0.00381
3980.95188,0.00411
3979.92161,0.00434
3978.89135,0.00444
3977.86108,0.00417
3976.83081,0.00391
3975.80055,0.00397
3974.77028,0.00404
3973.74001,0.00380
3972.70975,0.00340
3971.67948,0.00339
3970.64921,0.00361
3969.61894,0.00333
3968.58868,0.00289
3967.55841,0.00302
3966.52814,0.00350
3965.49788,0.00369
3964.46761,0.00360
3963.43734,0.00377
3962.40708,0.00393
3961.37681,0.00359
3960.34654,0.00339
3959.31627,0.00364
3958.28601,0.00379
3957.25574,0.00367
3956.22547,0.00363
3955.19521,0.00368
3954.16494,0.00363
3953.13467,0.00372
3952.10440,0.00413
3951.07414,0.00455
3950.04387,0.00474
3949.01360,0.00452
3947.98334,0.00406
3946.95307,0.00368
3945.92280,0.00348
3944.89254,0.00335
3943.86227,0.00335
3942.83200,0.00362
3941.80173,0.00371
3940.77147,0.00332
3939.74120,0.00313
3938.71093,0.00363
3937.68067,0.00397
3936.65040,0.00366
3935.62013,0.00326
3934.58986,0.00314
3933.55960,0.00335
3932.52933,0.00364
3931.49906,0.00353
3930.46880,0.00318
3929.43853,0.00317
3928.40826,0.00364
3927.37800,0.00394
3926.34773,0.00356
3925.31746,0.00288
3924.28719,0.00278
3923.25693,0.00325
3922.22666,0.00351
3921.19639,0.00347
3920.16613,0.00322
3919.13586,0.00298
3918.10559,0.00288
3917.07532,0.00240
3916.04506,0.00195
3915.01479,0.00215
3913.98452,0.00267
3912.95426,0.00337
3911.92399,0.00399
3910.89372,0.00393
3909.86346,0.00327
3908.83319,0.00282
3907.80292,0.00261
3906.77265,0.00258
3905.74239,0.00293
3904.71212,0.00326
3903.68185,0.00333
3902.65159,0.00364
3901.62132,0.00402
3900.59105,0.00383
3899.56079,0.00325
3898.53052,0.00283
3897.50025,0.00288
3896.46998,0.00314
3895.43972,0.00340
3894.40945,0.00350
3893.37918,0.00321
3892.34892,0.00276
3891.31865,0.00222
3890.28838,0.00187
3889.25811,0.00203
3888.22785,0.00245
3887.19758,0.00292
3886.16731,0.00329
3885.13705,0.00327
3884.10678,0.00321
3883.07651,0.00335
3882.04625,0.00353
3881.01598,0.00368
3879.98571,0.00349
3878.95544,0.00297
3877.92518,0.00286
3876.89491,0.00331
3875.86464,0.00368
3874.83438,0.00374
3873.80411,0.00384
3872.77384,0.00383
3871.74357,0.00351
3870.71331,0.00326
3869.68304,0.00323
3868.65277,0.00295
3867.62251,0.00248
3866.59224,0.00214
3865.56197,0.00209
3864.53171,0.00268
3863.50144,0.00336
3862.47117,0.00339
3861.44090,0.00318
3860.41064,0.00322
3859.38037,0.00351
3858.35010,0.00386
3857.31984,0.00384
3856.28957,0.00313
3855.25930,0.00229
3854.22903,0.00218
3853.19877,0.00275
3852.16850,0.00328
3851.13823,0.00370
3850.10797,0.00366
3849.07770,0.00323
3848.04743,0.00285
3847.01717,0.00276
3845.98690,0.00269
3844.95663,0.00223
3843.92636,0.00201
3842.89610,0.00269
3841.86583,0.00328
3840.83556,0.00308
3839.80530,0.00266
3838.77503,0.00258
3837.74476,0.00268
3836.71449,0.00274
3835.68423,0.00263
3834.65396,0.00266
3833.62369,0.00280
3832.59343,0.00250
3831.56316,0.00215
3830.53289,0.00262
3829.50263,0.00313
3828.47236,0.00289
3827.44209,0.00226
3826.41182,0.00191
3825.38156,0.00203
3824.35129,0.00236
3823.32102,0.00280
3822.29076,0.00315
3821.26049,0.00352
3820.23022,0.00390
3819.19996,0.00356
3818.16969,0.00295
3817.13942,0.00284
3816.10915,0.00344
3815.07889,0.00388
3814.04862,0.00367
3813.01835,0.00330
3811.98809,0.00285
3810.95782,0.00254
3809.92755,0.00263
3808.89728,0.00291
3807.86702,0.00296
3806.83675,0.00259
3805.80648,0.00230
3804.77622,0.00260
3803.74595,0.00316
3802.71568,0.00359
3801.68542,0.00369
3800.65515,0.00351
3799.62488,0.00325
3798.59461,0.00299
3797.56435,0.00293
3796.53408,0.00342
3795.50381,0.00387
3794.47355,0.00366
3793.44328,0.00326
3792.41301,0.00297
3791.38274,0.00254
3790.35248,0.00208
3789.32221,0.00212
3788.29194,0.00258
3787.26168,0.00304
3786.23141,0.00336
3785.20114,0.00353
3784.17088,0.00333
3783.14061,0.00279
3782.11034,0.00255
3781.08007,0.00290
3780.04981,0.00351
3779.01954,0.00370
3777.98927,0.00344
3776.95901,0.00322
3775.92874,0.00296
3774.89847,0.00271
3773.86820,0.00261
3772.83794,0.00279
3771.80767,0.00306
3770.77740,0.00295
3769.74714,0.00266
3768.71687,0.00264
3767.68660,0.00287
3766.65634,0.00290
3765.62607,0.00267
3764.59580,0.00264
3763.56553,0.00269
3762.53527,0.00265
3761.50500,0.00265
3760.47473,0.00288
3759.44447,0.00299
3758.41420,0.00275
3757.38393,0.00277
3756.35367,0.00291
3755.32340,0.00258
3754.29313,0.00240
3753.26286,0.00271
3752.23260,0.00309
3751.20233,0.00366
3750.17206,0.00442
3749.14180,0.00487
3748.11153,0.00465
3747.08126,0.00412
3746.05099,0.00379
3745.02073,0.00418
3743.99046,0.00461
3742.96019,0.00377
3741.92993,0.00318
3740.89966,0.00343
3739.86939,0.00389
3738.83913,0.00411
3737.80886,0.00410
3736.77859,0.00422
3735.74832,0.00503
3734.71806,0.00540
3733.68779,0.00467
3732.65752,0.00407
3731.62726,0.00397
3730.59699,0.00395
3729.56672,0.00402
3728.53645,0.00445
3727.50619,0.00500
3726.47592,0.00496
3725.44565,0.00423
3724.41539,0.00381
3723.38512,0.00412
3722.35485,0.00453
3721.32459,0.00464
3720.29432,0.00447
3719.26405,0.00401
3718.23378,0.00365
3717.20352,0.00357
3716.17325,0.00352
3715.14298,0.00370
3714.11272,0.00438
3713.08245,0.00517
3712.05218,0.00550
3711.02191,0.00529
3709.99165,0.00517
3708.96138,0.00518
3707.93111,0.00461
3706.90085,0.00369
3705.87058,0.00332
3704.84031,0.00371
3703.81005,0.00437
3702.77978,0.00492
3701.74951,0.00496
3700.71924,0.00440
3699.68898,0.00381
3698.65871,0.00380
3697.62844,0.00417
3696.59818,0.00433
3695.56791,0.00445
3694.53764,0.00470
3693.50737,0.00497
3692.47711,0.00533
3691.44684,0.00566
3690.41657,0.00562
3689.38631,0.00567
3688.35604,0.00615
3687.32577,0.00657
3686.29551,0.00668
3685.26524,0.00643
3684.23497,0.00605
3683.20470,0.00575
3682.17444,0.00545
3681.14417,0.00543
3680.11390,0.00605
3679.08364,0.00693
3678.05337,0.00743
3677.02310,0.00774
3675.99284,0.00821
3674.96257,0.00841
3673.93230,0.00804
3672.90203,0.00751
3671.87177,0.00706
3670.84150,0.00719
3669.81123,0.00799
3668.78097,0.00855
3667.75070,0.00836
3666.72043,0.00781
3665.69016,0.00774
3664.65990,0.00827
3663.62963,0.00848
3662.59936,0.00856
3661.56910,0.00934
3660.53883,0.01038
3659.50856,0.01107
3658.47830,0.01150
3657.44803,0.01168
3656.41776,0.01147
3655.38749,0.01130
3654.35723,0.01145
3653.32696,0.01168
3652.29669,0.01177
3651.26643,0.01162
3650.23616,0.01203
3649.20589,0.01308
3648.17562,0.01351
3647.14536,0.01341
3646.11509,0.01354
3645.08482,0.01399
3644.05456,0.01461
3643.02429,0.01520
3641.99402,0.01556
3640.96376,0.01560
3639.93349,0.01562
3638.90322,0.01580
3637.87295,0.01612
3636.84269,0.01665
3635.81242,0.01734
3634.78215,0.01810
3633.75189,0.01890
3632.72162,0.01926
3631.69135,0.01924
3630.66108,0.01977
3629.63082,0.02077
3628.60055,0.02088
3627.57028,0.02057
3626.54002,0.02071
3625.50975,0.02104
3624.47948,0.02185
3623.44922,0.02310
3622.41895,0.02378
3621.38868,0.02426
3620.35841,0.02527
3619.32815,0.02568
3618.29788,0.02494
3617.26761,0.02424
3616.23735,0.02494
3615.20708,0.02700
3614.17681,0.02845
3613.14655,0.02867
3612.11628,0.02903
3611.08601,0.02962
3610.05574,0.03008
3609.02548,0.03070
3607.99521,0.03153
3606.96494,0.03207
3605.93468,0.03202
3604.90441,0.03215
3603.87414,0.03296
3602.84387,0.03385
3601.81361,0.03465
3600.78334,0.03527
3599.75307,0.03541
3598.72281,0.03582
3597.69254,0.03672
3596.66227,0.03744
3595.63201,0.03806
3594.60174,0.03886
3593.57147,0.03936
3592.54120,0.03941
3591.51094,0.03956
3590.48067,0.04014
3589.45040,0.04116
3588.42014,0.04224
3587.38987,0.04309
3586.35960,0.04397
3585.32933,0.04466
3584.29907,0.04502
3583.26880,0.04535
3582.23853,0.04579
3581.20827,0.04614
3580.17800,0.04655
3579.14773,0.04743
3578.11747,0.04860
3577.08720,0.04959
3576.05693,0.05031
3575.02666,0.05102
3573.99640,0.05144
3572.96613,0.05128
3571.93586,0.05145
3570.90560,0.05234
3569.87533,0.05335
3568.84506,0.05448
3567.81479,0.05553
3566.78453,0.05588
3565.75426,0.05590
3564.72399,0.05627
3563.69373,0.05708
3562.66346,0.05789
3561.63319,0.05843
3560.60293,0.05894
3559.57266,0.05946
3558.54239,0.05979
3557.51212,0.06006
3556.48186,0.06038
3555.45159,0.06079
3554.42132,0.06144
3553.39106,0.06201
3552.36079,0.06264
3551.33052,0.06367
3550.30026,0.06435
3549.26999,0.06463
3548.23972,0.06508
3547.20945,0.06537
3546.17919,0.06546
3545.14892,0.06558
3544.11865,0.06548
3543.08839,0.06560
3542.05812,0.06640
3541.02785,0.06725
3539.99758,0.06778
3538.96732,0.06830
3537.93705,0.06898
3536.90678,0.06958
3535.87652,0.06986
3534.84625,0.07010
3533.81598,0.07040
3532.78572,0.07058
3531.75545,0.07078
3530.72518,0.07135
3529.69491,0.07214
3528.66465,0.07257
3527.63438,0.07275
3526.60411,0.07297
3525.57385,0.07345
3524.54358,0.07428
3523.51331,0.07479
3522.48304,0.07484
3521.45278,0.07516
3520.42251,0.07572
3519.39224,0.07615
3518.36198,0.07651
3517.33171,0.07690
3516.30144,0.07764
3515.27118,0.07852
3514.24091,0.07883
3513.21064,0.07882
3512.18037,0.07897
3511.15011,0.07902
3510.11984,0.07885
3509.08957,0.07898
3508.05931,0.07970
3507.02904,0.08048
3505.99877,0.08065
3504.96850,0.08037
3503.93824,0.08026
3502.90797,0.08048
3501.87770,0.08077
3500.84744,0.08098
3499.81717,0.08126
3498.78690,0.08153
3497.75664,0.08174
3496.72637,0.08205
3495.69610,0.08227
3494.66583,0.08233
3493.63557,0.08257
3492.60530,0.08281
3491.57503,0.08270
3490.54477,0.08247
3489.51450,0.08249
3488.48423,0.08270
3487.45396,0.08294
3486.42370,0.08340
3485.39343,0.08389
3484.36316,0.08393
3483.33290,0.08375
3482.30263,0.08366
3481.27236,0.08356
3480.24210,0.08335
3479.21183,0.08332
3478.18156,0.08355
3477.15129,0.08367
3476.12103,0.08359
3475.09076,0.08339
3474.06049,0.08343
3473.03023,0.08382
3471.99996,0.08414
3470.96969,0.08429
3469.93943,0.08441
3468.90916,0.08437
3467.87889,0.08430
3466.84862,0.08436
3465.81836,0.08439
3464.78809,0.08472
3463.75782,0.08553
3462.72756,0.08581
3461.69729,0.08518
3460.66702,0.08460
3459.63675,0.08451
3458.60649,0.08463
3457.57622,0.08454
3456.54595,0.08438
3455.51569,0.08488
3454.48542,0.08561
3453.45515,0.08543
3452.42489,0.08467
3451.39462,0.08424
3450.36435,0.08444
3449.33408,0.08517
3448.30382,0.08565
3447.27355,0.08545
3446.24328,0.08512
3445.21302,0.08494
3444.18275,0.08489
3443.15248,0.08513
3442.12221,0.08534
3441.09195,0.08521
3440.06168,0.08506
3439.03141,0.08511
3438.00115,0.08516
3436.97088,0.08508
3435.94061,0.08478
3434.91035,0.08437
3433.88008,0.08423
3432.84981,0.08440
3431.81954,0.08454
3430.78928,0.08456
3429.75901,0.08455
3428.72874,0.08474
3427.69848,0.08509
3426.66821,0.08487
3425.63794,0.08419
3424.60767,0.08414
3423.57741,0.08447
3422.54714,0.08448
3421.51687,0.08431
3420.48661,0.08412
3419.45634,0.08392
3418.42607,0.08378
3417.39581,0.08365
3416.36554,0.08347
3415.33527,0.08328
3414.30500,0.08332
3413.27474,0.08358
3412.24447,0.08374
3411.21420,0.08352
3410.18394,0.08292
3409.15367,0.08243
3408.12340,0.08239
3407.09314,0.08266
3406.06287,0.08297
3405.03260,0.08293
3404.00233,0.08244
3402.97207,0.08189
3401.94180,0.08140
3400.91153,0.08103
3399.88127,0.08070
3398.85100,0.08034
3397.82073,0.08028
3396.79046,0.08022
3395.76020,0.07999
3394.72993,0.08002
3393.69966,0.07987
3392.66940,0.07940
3391.63913,0.07930
3390.60886,0.07940
3389.57860,0.07911
3388.54833,0.07848
3387.51806,0.07791
3386.48779,0.07749
3385.45753,0.07716
3384.42726,0.07690
3383.39699,0.07657
3382.36673,0.07621
3381.33646,0.07598
3380.30619,0.07576
3379.27592,0.07537
3378.24566,0.07478
3377.21539,0.07430
3376.18512,0.07423
3375.15486,0.07426
3374.12459,0.07395
3373.09432,0.07334
3372.06406,0.07290
3371.03379,0.07288
3370.00352,0.07286
3368.97325,0.07240
3367.94299,0.07177
3366.91272,0.07143
3365.88245,0.07113
3364.85219,0.07077
3363.82192,0.07060
3362.79165,0.07051
3361.76138,0.07003
3360.73112,0.06899
3359.70085,0.06820
3358.67058,0.06803
3357.64032,0.06780
3356.61005,0.06752
3355.57978,0.06745
3354.54952,0.06727
3353.51925,0.06678
3352.48898,0.06621
3351.45871,0.06595
3350.42845,0.06579
3349.39818,0.06522
3348.36791,0.06453
3347.33765,0.06437
3346.30738,0.06437
3345.27711,0.06414
3344.24684,0.06387
3343.21658,0.06361
3342.18631,0.06316
3341.15604,0.06250
3340.12578,0.06211
3339.09551,0.06188
3338.06524,0.06161
3337.03498,0.06161
3336.00471,0.06159
3334.97444,0.06122
3333.94417,0.06086
3332.91391,0.06066
3331.88364,0.06031
3330.85337,0.05989
3329.82311,0.05960
3328.79284,0.05932
3327.76257,0.05912
3326.73231,0.05895
3325.70204,0.05843
3324.67177,0.05779
3323.64150,0.05759
3322.61124,0.05784
3321.58097,0.05803
3320.55070,0.05773
3319.52044,0.05709
3318.49017,0.05635
3317.45990,0.05576
3316.42963,0.05565
3315.39937,0.05603
3314.36910,0.05645
3313.33883,0.05623
3312.30857,0.05538
3311.27830,0.05465
3310.24803,0.05446
3309.21777,0.05472
3308.18750,0.05496
3307.15723,0.05470
3306.12696,0.05428
3305.09670,0.05400
3304.06643,0.05359
3303.03616,0.05306
3302.00590,0.05259
3300.97563,0.05262
3299.94536,0.05315
3298.91509,0.05332
3297.88483,0.05267
3296.85456,0.05179
3295.82429,0.05124
3294.79403,0.05101
3293.76376,0.05110
3292.73349,0.05136
3291.70323,0.05148
3290.67296,0.05136
3289.64269,0.05103
3288.61242,0.05041
3287.58216,0.04992
3286.55189,0.05003
3285.52162,0.05026
3284.49136,0.05008
3283.46109,0.04976
3282.43082,0.04960
3281.40055,0.04931
3280.37029,0.04874
3279.34002,0.04828
3278.30975,0.04823
3277.27949,0.04828
3276.24922,0.04817
3275.21895,0.04810
3274.18869,0.04807
3273.15842,0.04781
3272.12815,0.04734
3271.09788,0.04714
3270.06762,0.04729
3269.03735,0.04722
3268.00708,0.04679
3266.97682,0.04655
3265.94655,0.04656
3264.91628,0.04620
3263.88602,0.04552
3262.85575,0.04511
3261.82548,0.04494
3260.79521,0.04466
3259.76495,0.04447
3258.73468,0.04455
3257.70441,0.04440
3256.67415,0.04395
3255.64388,0.04373
3254.61361,0.04350
3253.58334,0.04302
3252.55308,0.04266
3251.52281,0.04246
3250.49254,0.04204
3249.46228,0.04149
3248.43201,0.04119
3247.40174,0.04123
3246.37148,0.04117
3245.34121,0.04084
3244.31094,0.04066
3243.28067,0.04058
3242.25041,0.04029
3241.22014,0.04005
3240.18987,0.04001
3239.15961,0.03993
3238.12934,0.03993
3237.09907,0.03977
3236.06880,0.03906
3235.03854,0.03829
3234.00827,0.03786
3232.97800,0.03757
3231.94774,0.03732
3230.91747,0.03708
3229.88720,0.03669
3228.85694,0.03642
3227.82667,0.03661
3226.79640,0.03695
3225.76613,0.03665
3224.73587,0.03563
3223.70560,0.03496
3222.67533,0.03488
3221.64507,0.03479
3220.61480,0.03462
3219.58453,0.03438
3218.55426,0.03414
3217.52400,0.03386
3216.49373,0.03330
3215.46346,0.03271
3214.43320,0.03228
3213.40293,0.03201
3212.37266,0.03200
3211.34240,0.03190
3210.31213,0.03149
3209.28186,0.03151
3208.25159,0.03184
3207.22133,0.03151
3206.19106,0.03060
3205.16079,0.02963
3204.13053,0.02898
3203.10026,0.02886
3202.06999,0.02888
3201.03972,0.02887
3200.00946,0.02880
3198.97919,0.02844
3197.94892,0.02795
3196.91866,0.02762
3195.88839,0.02740
3194.85812,0.02726
3193.82786,0.02722
3192.79759,0.02703
3191.76732,0.02641
3190.73705,0.02580
3189.70679,0.02564
3188.67652,0.02562
3187.64625,0.02563
3186.61599,0.02568
3185.58572,0.02537
3184.55545,0.02473
3183.52519,0.02422
3182.49492,0.02407
3181.46465,0.02408
3180.43438,0.02369
3179.40412,0.02306
3178.37385,0.02283
3177.34358,0.02263
3176.31332,0.02208
3175.28305,0.02196
3174.25278,0.02225
3173.22251,0.02216
3172.19225,0.02176
3171.16198,0.02134
3170.13171,0.02102
3169.10145,0.02083
3168.07118,0.02085
3167.04091,0.02100
3166.01065,0.02104
3164.98038,0.02095
3163.95011,0.02064
3162.91984,0.02023
3161.88958,0.01988
3160.85931,0.01954
3159.82904,0.01943
3158.79878,0.01964
3157.76851,0.01978
3156.73824,0.01943
3155.70797,0.01852
3154.67771,0.01763
3153.64744,0.01755
3152.61717,0.01815
3151.58691,0.01846
3150.55664,0.01798
3149.52637,0.01725
3148.49611,0.01706
3147.46584,0.01733
3146.43557,0.01734
3145.40530,0.01706
3144.37504,0.01690
3143.34477,0.01672
3142.31450,0.01639
3141.28424,0.01622
3140.25397,0.01606
3139.22370,0.01567
3138.19343,0.01555
3137.16317,0.01582
3136.13290,0.01589
3135.10263,0.01574
3134.07237,0.01580
3133.04210,0.01590
3132.01183,0.01573
3130.98157,0.01527
3129.95130,0.01479
3128.92103,0.01474
3127.89076,0.01492
3126.86050,0.01481
3125.83023,0.01465
3124.79996,0.01445
3123.76970,0.01388
3122.73943,0.01326
3121.70916,0.01300
3120.67890,0.01322
3119.64863,0.01366
3118.61836,0.01371
3117.58809,0.01333
3116.55783,0.01301
3115.52756,0.01287
3114.49729,0.01288
3113.46703,0.01313
3112.43676,0.01335
3111.40649,0.01298
3110.37622,0.01208
3109.34596,0.01163
3108.31569,0.01192
3107.28542,0.01232
3106.25516,0.01230
3105.22489,0.01201
3104.19462,0.01212
3103.16436,0.01255
3102.13409,0.01260
3101.10382,0.01232
3100.07355,0.01203
3099.04329,0.01185
3098.01302,0.01174
3096.98275,0.01167
3095.95249,0.01169
3094.92222,0.01185
3093.89195,0.01198
3092.86168,0.01185
3091.83142,0.01155
3090.80115,0.01145
3089.77088,0.01150
3088.74062,0.01147
3087.71035,0.01147
3086.68008,0.01157
3085.64982,0.01169
3084.61955,0.01156
3083.58928,0.01113
3082.55901,0.01077
3081.52875,0.01061
3080.49848,0.01044
3079.46821,0.01012
3078.43795,0.00982
3077.40768,0.00973
3076.37741,0.00979
3075.34714,0.00988
3074.31688,0.00985
3073.28661,0.00977
3072.25634,0.00988
3071.22608,0.01011
3070.19581,0.01023
3069.16554,0.01041
3068.13528,0.01053
3067.10501,0.01043
3066.07474,0.01057
3065.04447,0.01088
3064.01421,0.01076
3062.98394,0.01035
3061.95367,0.01010
3060.92341,0.00999
3059.89314,0.00992
3058.86287,0.00981
3057.83261,0.00956
3056.80234,0.00928
3055.77207,0.00919
3054.74180,0.00938
3053.71154,0.00958
3052.68127,0.00955
3051.65100,0.00948
3050.62074,0.00944
3049.59047,0.00936
3048.56020,0.00938
3047.52993,0.00941
3046.49967,0.00933
3045.46940,0.00927
3044.43913,0.00931
3043.40887,0.00927
3042.37860,0.00919
3041.34833,0.00919
3040.31807,0.00929
3039.28780,0.00929
3038.25753,0.00905
3037.22726,0.00881
3036.19700,0.00875
3035.16673,0.00894
3034.13646,0.00929
3033.10620,0.00959
3032.07593,0.00947
3031.04566,0.00901
3030.01539,0.00890
3028.98513,0.00915
3027.95486,0.00941
3026.92459,0.00949
3025.89433,0.00933
3024.86406,0.00912
3023.83379,0.00906
3022.80353,0.00925
3021.77326,0.00938
3020.74299,0.00926
3019.71272,0.00918
3018.68246,0.00923
3017.65219,0.00916
3016.62192,0.00910
3015.59166,0.00946
3014.56139,0.00982
3013.53112,0.00979
3012.50085,0.00965
3011.47059,0.00958
3010.44032,0.00943
3009.41005,0.00924
3008.37979,0.00926
3007.34952,0.00953
3006.31925,0.00989
3005.28899,0.01003
3004.25872,0.01001
3003.22845,0.01014
3002.19818,0.01035
3001.16792,0.01054
3000.13765,0.01066
2999.10738,0.01060
2998.07712,0.01076
2997.04685,0.01133
2996.01658,0.01192
2994.98631,0.01234
2993.95605,0.01257
2992.92578,0.01255
2991.89551,0.01264
2990.86525,0.01326
2989.83498,0.01393
2988.80471,0.01410
2987.77445,0.01441
2986.74418,0.01540
2985.71391,0.01659
2984.68364,0.01743
2983.65338,0.01799
2982.62311,0.01862
2981.59284,0.01971
2980.56258,0.02109
2979.53231,0.02211
2978.50204,0.02298
2977.47178,0.02422
2976.44151,0.02551
2975.41124,0.02677
2974.38097,0.02826
2973.35071,0.02971
2972.32044,0.03103
2971.29017,0.03237
2970.25991,0.03389
2969.22964,0.03581
2968.19937,0.03780
2967.16910,0.03960
2966.13884,0.04126
2965.10857,0.04277
2964.07830,0.04453
2963.04804,0.04681
2962.01777,0.04896
2960.98750,0.05046
2959.95724,0.05211
2958.92697,0.05437
2957.89670,0.05677
2956.86643,0.05910
2955.83617,0.06127
2954.80590,0.06308
2953.77563,0.06490
2952.74537,0.06693
2951.71510,0.06874
2950.68483,0.07017
2949.65456,0.07154
2948.62430,0.07314
2947.59403,0.07467
2946.56376,0.07590
2945.53350,0.07707
2944.50323,0.07828
2943.47296,0.07952
2942.44270,0.08051
2941.41243,0.08100
2940.38216,0.08151
2939.35189,0.08252
2938.32163,0.08382
2937.29136,0.08489
2936.26109,0.08544
2935.23083,0.08583
2934.20056,0.08657
2933.17029,0.08782
2932.14002,0.08891
2931.10976,0.08949
2930.07949,0.09031
2929.04922,0.09179
2928.01896,0.09322
2926.98869,0.09406
2925.95842,0.09475
2924.92816,0.09590
2923.89789,0.09728
2922.86762,0.09828
2921.83735,0.09912
2920.80709,0.10060
2919.77682,0.10251
2918.74655,0.10433
2917.71629,0.10601
2916.68602,0.10737
2915.65575,0.10855
2914.62549,0.10997
2913.59522,0.11158
2912.56495,0.11325
2911.53468,0.11499
2910.50442,0.11632
2909.47415,0.11716
2908.44388,0.11825
2907.41362,0.11962
2906.38335,0.12068
2905.35308,0.12143
2904.32281,0.12244
2903.29255,0.12358
2902.26228,0.12449
2901.23201,0.12537
2900.20175,0.12637
2899.17148,0.12743
2898.14121,0.12831
2897.11095,0.12915
2896.08068,0.13050
2895.05041,0.13215
2894.02014,0.13340
2892.98988,0.13424
2891.95961,0.13510
2890.92934,0.13630
2889.89908,0.13777
2888.86881,0.13942
2887.83854,0.14127
2886.80827,0.14319
2885.77801,0.14508
2884.74774,0.14701
2883.71747,0.14915
2882.68721,0.15120
2881.65694,0.15308
2880.62667,0.15506
2879.59641,0.15677
2878.56614,0.15819
2877.53587,0.15987
2876.50560,0.16187
2875.47534,0.16382
2874.44507,0.16538
2873.41480,0.16670
2872.38454,0.16844
2871.35427,0.17035
2870.32400,0.17170
2869.29373,0.17226
2868.26347,0.17228
2867.23320,0.17215
2866.20293,0.17168
2865.17267,0.17061
2864.14240,0.16909
2863.11213,0.16714
2862.08187,0.16484
2861.05160,0.16263
2860.02133,0.16019
2858.99106,0.15679
2857.96080,0.15281
2856.93053,0.14893
2855.90026,0.14478
2854.87000,0.14020
2853.83973,0.13561
2852.80946,0.13122
2851.77919,0.12720
2850.74893,0.12316
2849.71866,0.11855
2848.68839,0.11384
2847.65813,0.10985
2846.62786,0.10628
2845.59759,0.10266
2844.56733,0.09914
2843.53706,0.09574
2842.50679,0.09238
2841.47652,0.08896
2840.44626,0.08557
2839.41599,0.08263
2838.38572,0.08024
2837.35546,0.07796
2836.32519,0.07544
2835.29492,0.07290
2834.26466,0.07062
2833.23439,0.06855
2832.20412,0.06656
2831.17385,0.06471
2830.14359,0.06317
2829.11332,0.06174
2828.08305,0.06037
2827.05279,0.05918
2826.02252,0.05803
2824.99225,0.05683
2823.96198,0.05552
2822.93172,0.05426
2821.90145,0.05323
2820.87118,0.05230
2819.84092,0.05133
2818.81065,0.05040
2817.78038,0.04951
2816.75012,0.04865
2815.71985,0.04791
2814.68958,0.04734
2813.65931,0.04681
2812.62905,0.04601
2811.59878,0.04491
2810.56851,0.04384
2809.53825,0.04303
2808.50798,0.04224
2807.47771,0.04142
2806.44744,0.04077
2805.41718,0.04005
2804.38691,0.03918
2803.35664,0.03812
2802.32638,0.03675
2801.29611,0.03579
2800.26584,0.03553
2799.23558,0.03514
2798.20531,0.03417
2797.17504,0.03322
2796.14477,0.03257
2795.11451,0.03187
2794.08424,0.03128
2793.05397,0.03101
2792.02371,0.03073
2790.99344,0.03014
2789.96317,0.02940
2788.93290,0.02893
2787.90264,0.02854
2786.87237,0.02796
2785.84210,0.02739
2784.81184,0.02694
2783.78157,0.02649
2782.75130,0.02595
2781.72104,0.02540
2780.69077,0.02498
2779.66050,0.02462
2778.63023,0.02418
2777.59997,0.02384
2776.56970,0.02361
2775.53943,0.02335
2774.50917,0.02329
2773.47890,0.02334
2772.44863,0.02321
2771.41837,0.02287
2770.38810,0.02226
2769.35783,0.02160
2768.32756,0.02121
2767.29730,0.02092
2766.26703,0.02060
2765.23676,0.02038
2764.20650,0.02015
2763.17623,0.01977
2762.14596,0.01959
2761.11569,0.01967
2760.08543,0.01957
2759.05516,0.01918
2758.02489,0.01893
2756.99463,0.01909
2755.96436,0.01943
2754.93409,0.01966
2753.90383,0.01978
2752.87356,0.01997
2751.84329,0.01996
2750.81302,0.01965
2749.78276,0.01938
2748.75249,0.01909
2747.72222,0.01874
2746.69196,0.01868
2745.66169,0.01882
2744.63142,0.01888
2743.60115,0.01894
2742.57089,0.01883
2741.54062,0.01854
2740.51035,0.01838
2739.48009,0.01835
2738.44982,0.01835
2737.41955,0.01840
2736.38929,0.01844
2735.35902,0.01832
2734.32875,0.01824
2733.29848,0.01830
2732.26822,0.01812
2731.23795,0.01771
2730.20768,0.01742
2729.17742,0.01732
2728.14715,0.01723
2727.11688,0.01717
2726.08661,0.01707
2725.05635,0.01672
2724.02608,0.01638
2722.99581,0.01624
2721.96555,0.01595
2720.93528,0.01570
2719.90501,0.01600
2718.87475,0.01617
2717.84448,0.01567
2716.81421,0.01518
2715.78394,0.01501
2714.75368,0.01488
2713.72341,0.01481
2712.69314,0.01476
2711.66288,0.01468
2710.63261,0.01478
2709.60234,0.01502
2708.57207,0.01495
2707.54181,0.01449
2706.51154,0.01390
2705.48127,0.01335
2704.45101,0.01313
2703.42074,0.01319
2702.39047,0.01315
2701.36021,0.01302
2700.32994,0.01284
2699.29967,0.01274
2698.26940,0.01291
2697.23914,0.01300
2696.20887,0.01260
2695.17860,0.01198
2694.14834,0.01161
2693.11807,0.01157
2692.08780,0.01150
2691.05754,0.01121
2690.02727,0.01089
2688.99700,0.01052
2687.96673,0.00996
2686.93647,0.00952
2685.90620,0.00939
2684.87593,0.00929
2683.84567,0.00904
2682.81540,0.00876
2681.78513,0.00876
2680.75486,0.00901
2679.72460,0.00881
2678.69433,0.00802
2677.66406,0.00754
2676.63380,0.00766
2675.60353,0.00774
2674.57326,0.00774
2673.54300,0.00784
2672.51273,0.00787
2671.48246,0.00766
2670.45219,0.00724
2669.42193,0.00691
2668.39166,0.00693
2667.36139,0.00709
2666.33113,0.00696
2665.30086,0.00669
2664.27059,0.00678
2663.24032,0.00705
2662.21006,0.00693
2661.17979,0.00651
2660.14952,0.00627
2659.11926,0.00632
2658.08899,0.00657
2657.05872,0.00690
2656.02846,0.00704
2654.99819,0.00680
2653.96792,0.00646
2652.93765,0.00652
2651.90739,0.00668
2650.87712,0.00651
2649.84685,0.00625
2648.81659,0.00619
2647.78632,0.00625
2646.75605,0.00609
2645.72578,0.00578
2644.69552,0.00565
2643.66525,0.00575
2642.63498,0.00594
2641.60472,0.00582
2640.57445,0.00539
2639.54418,0.00527
2638.51392,0.00571
2637.48365,0.00615
2636.45338,0.00626
2635.42311,0.00624
2634.39285,0.00621
2633.36258,0.00621
2632.33231,0.00606
2631.30205,0.00594
2630.27178,0.00627
2629.24151,0.00649
2628.21125,0.00624
2627.18098,0.00601
2626.15071,0.00589
2625.12044,0.00557
2624.09018,0.00516
2623.05991,0.00488
2622.02964,0.00484
2620.99938,0.00495
2619.96911,0.00514
2618.93884,0.00538
2617.90857,0.00546
2616.87831,0.00530
2615.84804,0.00504
2614.81777,0.00483
2613.78751,0.00486
2612.75724,0.00492
2611.72697,0.00487
2610.69671,0.00510
2609.66644,0.00545
2608.63617,0.00544
2607.60590,0.00524
2606.57564,0.00504
2605.54537,0.00490
2604.51510,0.00502
2603.48484,0.00508
2602.45457,0.00475
2601.42430,0.00448
2600.39403,0.00459
2599.36377,0.00463
2598.33350,0.00459
2597.30323,0.00458
2596.27297,0.00434
2595.24270,0.00435
2594.21243,0.00477
2593.18217,0.00490
2592.15190,0.00461
2591.12163,0.00409
2590.09136,0.00373
2589.06110,0.00392
2588.03083,0.00439
2587.00056,0.00493
2585.97030,0.00534
2584.94003,0.00509
2583.90976,0.00466
2582.87949,0.00475
2581.84923,0.00512
2580.81896,0.00543
2579.78869,0.00527
2578.75843,0.00466
2577.72816,0.00420
2576.69789,0.00412
2575.66763,0.00408
2574.63736,0.00421
2573.60709,0.00460
2572.57682,0.00483
2571.54656,0.00487
2570.51629,0.00470
2569.48602,0.00420
2568.45576,0.00381
2567.42549,0.00380
2566.39522,0.00397
2565.36496,0.00429
2564.33469,0.00460
2563.30442,0.00429
2562.27415,0.00359
2561.24389,0.00318
2560.21362,0.00330
2559.18335,0.00365
2558.15309,0.00370
2557.12282,0.00362
2556.09255,0.00389
2555.06228,0.00427
2554.03202,0.00421
2553.00175,0.00394
2551.97148,0.00395
2550.94122,0.00413
2549.91095,0.00420
2548.88068,0.00418
2547.85042,0.00422
2546.82015,0.00418
2545.78988,0.00387
2544.75961,0.00371
2543.72935,0.00378
2542.69908,0.00346
2541.66881,0.00303
2540.63855,0.00330
2539.60828,0.00400
2538.57801,0.00426
2537.54774,0.00422
2536.51748,0.00442
2535.48721,0.00456
2534.45694,0.00431
2533.42668,0.00413
2532.39641,0.00434
2531.36614,0.00451
2530.33588,0.00461
2529.30561,0.00464
2528.27534,0.00432
2527.24507,0.00388
2526.21481,0.00366
2525.18454,0.00386
2524.15427,0.00431
2523.12401,0.00440
2522.09374,0.00410
2521.06347,0.00381
2520.03320,0.00353
2519.00294,0.00341
2517.97267,0.00361
2516.94240,0.00407
2515.91214,0.00431
2514.88187,0.00407
2513.85160,0.00394
2512.82134,0.00412
2511.79107,0.00421
2510.76080,0.00392
2509.73053,0.00352
2508.70027,0.00364
2507.67000,0.00417
2506.63973,0.00452
2505.60947,0.00463
2504.57920,0.00449
2503.54893,0.00404
2502.51866,0.00387
2501.48840,0.00407
2500.45813,0.00393
2499.42786,0.00363
2498.39760,0.00371
2497.36733,0.00386
2496.33706,0.00393
2495.30680,0.00409
2494.27653,0.00427
2493.24626,0.00432
2492.21599,0.00413
2491.18573,0.00366
2490.15546,0.00327
2489.12519,0.00339
2488.09493,0.00381
2487.06466,0.00404
2486.03439,0.00392
2485.00413,0.00362
2483.97386,0.00315
2482.94359,0.00271
2481.91332,0.00294
2480.88306,0.00370
2479.85279,0.00424
2478.82252,0.00446
2477.79226,0.00444
2476.76199,0.00401
2475.73172,0.00340
2474.70145,0.00321
2473.67119,0.00355
2472.64092,0.00389
2471.61065,0.00390
2470.58039,0.00364
2469.55012,0.00349
2468.51985,0.00355
2467.48959,0.00359
2466.45932,0.00356
2465.42905,0.00339
2464.39878,0.00305
2463.36852,0.00281
2462.33825,0.00300
2461.30798,0.00320
2460.27772,0.00317
2459.24745,0.00337
2458.21718,0.00393
2457.18691,0.00428
2456.15665,0.00409
2455.12638,0.00377
2454.09611,0.00351
2453.06585,0.00318
2452.03558,0.00297
2451.00531,0.00303
2449.97505,0.00319
2448.94478,0.00318
2447.91451,0.00307
2446.88424,0.00295
2445.85398,0.00287
2444.82371,0.00322
2443.79344,0.00396
2442.76318,0.00432
2441.73291,0.00397
2440.70264,0.00343
2439.67237,0.00324
2438.64211,0.00321
2437.61184,0.00316
2436.58157,0.00330
2435.55131,0.00360
2434.52104,0.00385
2433.49077,0.00371
2432.46051,0.00331
2431.43024,0.00321
2430.39997,0.00347
2429.36970,0.00391
2428.33944,0.00442
2427.30917,0.00457
2426.27890,0.00414
2425.24864,0.00389
2424.21837,0.00414
2423.18810,0.00446
2422.15784,0.00461
2421.12757,0.00436
2420.09730,0.00382
2419.06703,0.00353
2418.03677,0.00375
2417.00650,0.00401
2415.97623,0.00403
2414.94597,0.00410
2413.91570,0.00418
2412.88543,0.00427
2411.85516,0.00427
2410.82490,0.00434
2409.79463,0.00440
2408.76436,0.00420
2407.73410,0.00412
2406.70383,0.00375
2405.67356,0.00328
2404.64330,0.00362
2403.61303,0.00409
2402.58276,0.00413
2401.55249,0.00411
2400.52223,0.00416
2399.49196,0.00431
2398.46169,0.00447
2397.43143,0.00443
2396.40116,0.00429
2395.37089,0.00428
2394.34062,0.00427
2393.31036,0.00396
2392.28009,0.00373
2391.24982,0.00392
2390.21956,0.00395
2389.18929,0.00362
2388.15902,0.00344
2387.12876,0.00360
2386.09849,0.00364
2385.06822,0.00358
2384.03795,0.00377
2383.00769,0.00388
2381.97742,0.00355
2380.94715,0.00318
2379.91689,0.00345
2378.88662,0.00424
2377.85635,0.00476
2376.82608,0.00453
2375.79582,0.00395
2374.76555,0.00400
2373.73528,0.00482
2372.70502,0.00562
2371.67475,0.00580
2370.64448,0.00553
2369.61422,0.00562
2368.58395,0.00632
2367.55368,0.00691
2366.52341,0.00673
2365.49315,0.00614
2364.46288,0.00621
2363.43261,0.00687
2362.40235,0.00701
2361.37208,0.00654
2360.34181,0.00562
2359.31154,0.00479
2358.28128,0.00501
2357.25101,0.00570
2356.22074,0.00588
2355.19048,0.00508
2354.16021,0.00411
2353.12994,0.00438
2352.09968,0.00535
2351.06941,0.00599
2350.03914,0.00620
2349.00887,0.00595
2347.97861,0.00543
2346.94834,0.00513
2345.91807,0.00525
2344.88781,0.00567
2343.85754,0.00626
2342.82727,0.00651
2341.79701,0.00633
2340.76674,0.00601
2339.73647,0.00599
2338.70620,0.00648
2337.67594,0.00649
2336.64567,0.00537
2335.61540,0.00421
2334.58514,0.00429
2333.55487,0.00505
2332.52460,0.00503
2331.49433,0.00423
2330.46407,0.00404
2329.43380,0.00479
2328.40353,0.00550
2327.37327,0.00583
2326.34300,0.00547
2325.31273,0.00448
2324.28247,0.00419
2323.25220,0.00474
2322.22193,0.00501
2321.19166,0.00492
2320.16140,0.00496
2319.13113,0.00485
2318.10086,0.00466
2317.07060,0.00490
2316.04033,0.00510
2315.01006,0.00482
2313.97979,0.00422
2312.94953,0.00377
2311.91926,0.00401
2310.88899,0.00477
2309.85873,0.00517
2308.82846,0.00504
2307.79819,0.00465
2306.76793,0.00418
2305.73766,0.00402
2304.70739,0.00411
2303.67712,0.00428
2302.64686,0.00456
2301.61659,0.00465
2300.58632,0.00441
2299.55606,0.00408
2298.52579,0.00384
2297.49552,0.00375
2296.46525,0.00384
2295.43499,0.00407
2294.40472,0.00434
2293.37445,0.00458
2292.34419,0.00442
2291.31392,0.00398
2290.28365,0.00397
2289.25339,0.00389
2288.22312,0.00339
2287.19285,0.00304
2286.16258,0.00312
2285.13232,0.00365
2284.10205,0.00387
2283.07178,0.00340
2282.04152,0.00312
2281.01125,0.00296
2279.98098,0.00234
2278.95072,0.00201
2277.92045,0.00228
2276.89018,0.00270
2275.85991,0.00288
2274.82965,0.00270
2273.79938,0.00275
2272.76911,0.00284
2271.73885,0.00256
2270.70858,0.00265
2269.67831,0.00335
2268.64804,0.00370
2267.61778,0.00324
2266.58751,0.00281
2265.55724,0.00293
2264.52698,0.00324
2263.49671,0.00333
2262.46644,0.00329
2261.43618,0.00345
2260.40591,0.00344
2259.37564,0.00318
2258.34537,0.00289
2257.31511,0.00240
2256.28484,0.00215
2255.25457,0.00274
2254.22431,0.00398
2253.19404,0.00483
2252.16377,0.00459
2251.13350,0.00416
2250.10324,0.00430
2249.07297,0.00457
2248.04270,0.00472
2247.01244,0.00424
2245.98217,0.00306
2244.95190,0.00232
2243.92164,0.00253
2242.89137,0.00315
2241.86110,0.00334
2240.83083,0.00302
2239.80057,0.00225
2238.77030,0.00128
2237.74003,0.00097
2236.70977,0.00124
2235.67950,0.00143
2234.64923,0.00114
2233.61896,0.00033
2232.58870,-0.00043
2231.55843,-0.00010
2230.52816,0.00159
2229.49790,0.00326
2228.46763,0.00356
2227.43736,0.00265
2226.40710,0.00209
2225.37683,0.00234
2224.34656,0.00237
2223.31629,0.00243
2222.28603,0.00310
2221.25576,0.00289
2220.22549,0.00146
2219.19523,0.00067
2218.16496,0.00119
2217.13469,0.00175
2216.10442,0.00114
2215.07416,0.00022
2214.04389,0.00031
2213.01362,0.00151
2211.98336,0.00301
2210.95309,0.00314
2209.92282,0.00198
2208.89256,0.00130
2207.86229,0.00078
2206.83202,0.00008
2205.80175,-0.00026
2204.77149,0.00013
2203.74122,0.00200
2202.71095,0.00287
2201.68069,0.00157
2200.65042,0.00147
2199.62015,0.00306
2198.58989,0.00372
2197.55962,0.00308
2196.52935,0.00261
2195.49908,0.00243
2194.46882,0.00178
2193.43855,0.00054
2192.40828,-0.00007
2191.37802,0.00059
2190.34775,0.00090
2189.31748,0.00065
2188.28721,0.00129
2187.25695,0.00237
2186.22668,0.00301
2185.19641,0.00374
2184.16615,0.00344
2183.13588,0.00131
2182.10561,-0.00011
2181.07535,-0.00008
2180.04508,0.00015
2179.01481,0.00160
2177.98454,0.00420
2176.95428,0.00556
2175.92401,0.00506
2174.89374,0.00418
2173.86348,0.00315
2172.83321,0.00181
2171.80294,0.00088
2170.77267,-0.00008
2169.74241,-0.00161
2168.71214,-0.00259
2167.68187,-0.00226
2166.65161,-0.00099
2165.62134,0.00066
2164.59107,0.00171
2163.56081,0.00266
2162.53054,0.00312
2161.50027,0.00110
2160.47000,-0.00178
2159.43974,-0.00335
2158.40947,-0.00286
2157.37920,-0.00130
2156.34894,-0.00125
2155.31867,-0.00197
2154.28840,-0.00136
2153.25813,-0.00013
2152.22787,0.00037
2151.19760,0.00064
2150.16733,0.00127
2149.13707,0.00193
2148.10680,0.00201
2147.07653,0.00138
2146.04627,0.00072
2145.01600,0.00153
2143.98573,0.00302
2142.95546,0.00339
2141.92520,0.00342
2140.89493,0.00375
2139.86466,0.00435
2138.83440,0.00487
2137.80413,0.00534
2136.77386,0.00646
2135.74360,0.00762
2134.71333,0.00783
2133.68306,0.00677
2132.65279,0.00559
2131.62253,0.00524
2130.59226,0.00536
2129.56199,0.00581
2128.53173,0.00600
2127.50146,0.00544
2126.47119,0.00471
2125.44092,0.00495
2124.41066,0.00596
2123.38039,0.00616
2122.35012,0.00579
2121.31986,0.00580
2120.28959,0.00594
2119.25932,0.00595
2118.22906,0.00570
2117.19879,0.00543
2116.16852,0.00545
2115.13825,0.00549
2114.10799,0.00571
2113.07772,0.00596
2112.04745,0.00555
2111.01719,0.00533
2109.98692,0.00573
2108.95665,0.00571
2107.92638,0.00532
2106.89612,0.00519
2105.86585,0.00520
2104.83558,0.00511
2103.80532,0.00496
2102.77505,0.00485
2101.74478,0.00475
2100.71452,0.00446
2099.68425,0.00433
2098.65398,0.00494
2097.62371,0.00611
2096.59345,0.00664
2095.56318,0.00573
2094.53291,0.00458
2093.50265,0.00407
2092.47238,0.00452
2091.44211,0.00616
2090.41184,0.00731
2089.38158,0.00664
2088.35131,0.00504
2087.32104,0.00371
2086.29078,0.00308
2085.26051,0.00343
2084.23024,0.00444
2083.19998,0.00520
2082.16971,0.00500
2081.13944,0.00419
2080.10917,0.00358
2079.07891,0.00285
2078.04864,0.00245
2077.01837,0.00297
2075.98811,0.00394
2074.95784,0.00560
2073.92757,0.00639
2072.89731,0.00492
2071.86704,0.00369
2070.83677,0.00392
2069.80650,0.00390
2068.77624,0.00327
2067.74597,0.00311
2066.71570,0.00326
2065.68544,0.00327
2064.65517,0.00377
2063.62490,0.00411
2062.59463,0.00343
2061.56437,0.00314
2060.53410,0.00438
2059.50383,0.00570
2058.47357,0.00508
2057.44330,0.00355
2056.41303,0.00314
2055.38277,0.00362
2054.35250,0.00411
2053.32223,0.00442
2052.29196,0.00422
2051.26170,0.00339
2050.23143,0.00321
2049.20116,0.00382
2048.17090,0.00366
2047.14063,0.00389
2046.11036,0.00474
2045.08009,0.00498
2044.04983,0.00589
2043.01956,0.00701
2041.98929,0.00640
2040.95903,0.00483
2039.92876,0.00415
2038.89849,0.00437
2037.86823,0.00506
2036.83796,0.00612
2035.80769,0.00678
2034.77742,0.00636
2033.74716,0.00492
2032.71689,0.00352
2031.68662,0.00286
2030.65636,0.00282
2029.62609,0.00292
2028.59582,0.00318
2027.56555,0.00365
2026.53529,0.00419
2025.50502,0.00446
2024.47475,0.00368
2023.44449,0.00173
2022.41422,0.00003
2021.38395,0.00120
2020.35369,0.00417
2019.32342,0.00565
2018.29315,0.00557
2017.26288,0.00493
2016.23262,0.00460
2015.20235,0.00517
2014.17208,0.00565
2013.14182,0.00510
2012.11155,0.00436
2011.08128,0.00369
2010.05101,0.00243
2009.02075,0.00203
2007.99048,0.00371
2006.96021,0.00503
2005.92995,0.00494
2004.89968,0.00587
2003.86941,0.00745
2002.83915,0.00704
2001.80888,0.00535
2000.77861,0.00521
1999.74834,0.00601
1998.71808,0.00579
1997.68781,0.00524
1996.65754,0.00549
1995.62728,0.00661
1994.59701,0.00681
1993.56674,0.00527
1992.53648,0.00350
1991.50621,0.00285
1990.47594,0.00358
1989.44567,0.00515
1988.41541,0.00708
1987.38514,0.00739
1986.35487,0.00687
1985.32461,0.00750
1984.29434,0.00728
1983.26407,0.00664
1982.23380,0.00749
1981.20354,0.00749
1980.17327,0.00450
1979.14300,0.00159
1978.11274,0.00259
1977.08247,0.00608
1976.05220,0.00871
1975.02194,0.00914
1973.99167,0.00798
1972.96140,0.00686
1971.93113,0.00602
1970.90087,0.00496
1969.87060,0.00424
1968.84033,0.00413
1967.81007,0.00548
1966.77980,0.00764
1965.74953,0.00813
1964.71926,0.00719
1963.68900,0.00626
1962.65873,0.00588
1961.62846,0.00629
1960.59820,0.00692
1959.56793,0.00677
1958.53766,0.00584
1957.50740,0.00523
1956.47713,0.00607
1955.44686,0.00790
1954.41659,0.00906
1953.38633,0.00819
1952.35606,0.00628
1951.32579,0.00574
1950.29553,0.00620
1949.26526,0.00626
1948.23499,0.00682
1947.20472,0.00759
1946.17446,0.00685
1945.14419,0.00646
1944.11392,0.00758
1943.08366,0.00822
1942.05339,0.00874
1941.02312,0.00985
1939.99286,0.00978
1938.96259,0.00831
1937.93232,0.00745
1936.90205,0.00787
1935.87179,0.00797
1934.84152,0.00700
1933.81125,0.00648
1932.78099,0.00728
1931.75072,0.00824
1930.72045,0.00846
1929.69019,0.00823
1928.65992,0.00785
1927.62965,0.00736
1926.59938,0.00699
1925.56912,0.00716
1924.53885,0.00763
1923.50858,0.00763
1922.47832,0.00696
1921.44805,0.00621
1920.41778,0.00597
1919.38751,0.00602
1918.35725,0.00597
1917.32698,0.00628
1916.29671,0.00671
1915.26645,0.00681
1914.23618,0.00684
1913.20591,0.00662
1912.17565,0.00600
1911.14538,0.00580
1910.11511,0.00611
1909.08484,0.00590
1908.05458,0.00546
1907.02431,0.00548
1905.99404,0.00538
1904.96378,0.00486
1903.93351,0.00471
1902.90324,0.00516
1901.87297,0.00533
1900.84271,0.00478
1899.81244,0.00410
1898.78217,0.00400
1897.75191,0.00406
1896.72164,0.00360
1895.69137,0.00324
1894.66111,0.00372
1893.63084,0.00406
1892.60057,0.00366
1891.57030,0.00349
1890.54004,0.00361
1889.50977,0.00343
1888.47950,0.00356
1887.44924,0.00420
1886.41897,0.00474
1885.38870,0.00503
1884.35843,0.00490
1883.32817,0.00445
1882.29790,0.00390
1881.26763,0.00343
1880.23737,0.00334
1879.20710,0.00352
1878.17683,0.00368
1877.14657,0.00378
1876.11630,0.00366
1875.08603,0.00357
1874.05576,0.00365
1873.02550,0.00348
1871.99523,0.00333
1870.96496,0.00339
1869.93470,0.00345
1868.90443,0.00404
1867.87416,0.00462
1866.84389,0.00445
1865.81363,0.00421
1864.78336,0.00397
1863.75309,0.00337
1862.72283,0.00290
1861.69256,0.00309
1860.66229,0.00364
1859.63203,0.00385
1858.60176,0.00375
1857.57149,0.00375
1856.54122,0.00380
1855.51096,0.00392
1854.48069,0.00415
1853.45042,0.00422
1852.42016,0.00394
1851.38989,0.00345
1850.35962,0.00317
1849.32936,0.00320
1848.29909,0.00310
1847.26882,0.00297
1846.23855,0.00317
1845.20829,0.00344
1844.17802,0.00356
1843.14775,0.00361
1842.11749,0.00347
1841.08722,0.00332
1840.05695,0.00348
1839.02668,0.00385
1837.99642,0.00412
1836.96615,0.00408
1835.93588,0.00361
1834.90562,0.00317
1833.87535,0.00338
1832.84508,0.00382
1831.81482,0.00385
1830.78455,0.00374
1829.75428,0.00384
1828.72401,0.00382
1827.69375,0.00367
1826.66348,0.00384
1825.63321,0.00418
1824.60295,0.00407
1823.57268,0.00362
1822.54241,0.00353
1821.51214,0.00387
1820.48188,0.00391
1819.45161,0.00362
1818.42134,0.00372
1817.39108,0.00425
1816.36081,0.00456
1815.33054,0.00426
1814.30028,0.00371
1813.27001,0.00342
1812.23974,0.00354
1811.20947,0.00401
1810.17921,0.00456
1809.14894,0.00481
1808.11867,0.00480
1807.08841,0.00479
1806.05814,0.00480
1805.02787,0.00479
1803.99760,0.00486
1802.96734,0.00511
1801.93707,0.00535
1800.90680,0.00515
1799.87654,0.00476
1798.84627,0.00473
1797.81600,0.00497
1796.78574,0.00511
1795.75547,0.00502
1794.72520,0.00493
1793.69493,0.00490
1792.66467,0.00469
1791.63440,0.00489
1790.60413,0.00555
1789.57387,0.00572
1788.54360,0.00544
1787.51333,0.00516
1786.48307,0.00505
1785.45280,0.00507
1784.42253,0.00500
1783.39226,0.00493
1782.36200,0.00491
1781.33173,0.00495
1780.30146,0.00499
1779.27120,0.00504
1778.24093,0.00513
1777.21066,0.00523
1776.18039,0.00556
1775.15013,0.00592
1774.11986,0.00598
1773.08959,0.00601
1772.05933,0.00607
1771.02906,0.00583
1769.99879,0.00548
1768.96853,0.00542
1767.93826,0.00574
1766.90799,0.00608
1765.87772,0.00602
1764.84746,0.00582
1763.81719,0.00593
1762.78692,0.00630
1761.75666,0.00650
1760.72639,0.00639
1759.69612,0.00638
1758.66585,0.00653
1757.63559,0.00647
1756.60532,0.00605
1755.57505,0.00566
1754.54479,0.00562
1753.51452,0.00597
1752.48425,0.00627
1751.45399,0.00618
1750.42372,0.00606
1749.39345,0.00623
1748.36318,0.00628
1747.33292,0.00614
1746.30265,0.00624
1745.27238,0.00652
1744.24212,0.00670
1743.21185,0.00660
1742.18158,0.00632
1741.15131,0.00615
1740.12105,0.00633
1739.09078,0.00672
1738.06051,0.00689
1737.03025,0.00687
1735.99998,0.00676
1734.96971,0.00687
1733.93945,0.00753
1732.90918,0.00772
1731.87891,0.00737
1730.84864,0.00716
1729.81838,0.00719
1728.78811,0.00736
1727.75784,0.00740
1726.72758,0.00737
1725.69731,0.00752
1724.66704,0.00782
1723.63677,0.00810
1722.60651,0.00819
1721.57624,0.00806
1720.54597,0.00824
1719.51571,0.00896
1718.48544,0.00934
1717.45517,0.00886
1716.42491,0.00872
1715.39464,0.00904
1714.36437,0.00940
1713.33410,0.00949
1712.30384,0.00940
1711.27357,0.00942
1710.24330,0.00957
1709.21304,0.00970
1708.18277,0.00988
1707.15250,0.01038
1706.12224,0.01084
1705.09197,0.01069
1704.06170,0.01033
1703.03143,0.01028
1702.00117,0.01058
1700.97090,0.01121
1699.94063,0.01197
1698.91037,0.01237
1697.88010,0.01265
1696.84983,0.01284
1695.81956,0.01306
1694.78930,0.01324
1693.75903,0.01328
1692.72876,0.01358
1691.69850,0.01439
1690.66823,0.01537
1689.63796,0.01598
1688.60770,0.01630
1687.57743,0.01669
1686.54716,0.01723
1685.51689,0.01824
1684.48663,0.01977
1683.45636,0.02028
1682.42609,0.02040
1681.39583,0.02088
1680.36556,0.02149
1679.33529,0.02225
1678.30502,0.02315
1677.27476,0.02395
1676.24449,0.02461
1675.21422,0.02564
1674.18396,0.02689
1673.15369,0.02786
1672.12342,0.02899
1671.09316,0.03015
1670.06289,0.03083
1669.03262,0.03154
1668.00235,0.03280
1666.97209,0.03420
1665.94182,0.03548
1664.91155,0.03657
1663.88129,0.03780
1662.85102,0.03927
1661.82075,0.04057
1660.79048,0.04164
1659.76022,0.04268
1658.72995,0.04373
1657.69968,0.04481
1656.66942,0.04588
1655.63915,0.04697
1654.60888,0.04831
1653.57862,0.04989
1652.54835,0.05036
1651.51808,0.05029
1650.48781,0.05080
1649.45755,0.05164
1648.42728,0.05253
1647.39701,0.05300
1646.36675,0.05290
1645.33648,0.05256
1644.30621,0.05230
1643.27595,0.05216
1642.24568,0.05216
1641.21541,0.05200
1640.18514,0.05158
1639.15488,0.05115
1638.12461,0.05069
1637.09434,0.05044
1636.06408,0.05037
1635.03381,0.04927
1634.00354,0.04790
1632.97327,0.04714
1631.94301,0.04633
1630.91274,0.04543
1629.88247,0.04467
1628.85221,0.04389
1627.82194,0.04282
1626.79167,0.04174
1625.76141,0.04077
1624.73114,0.03963
1623.70087,0.03833
1622.67060,0.03711
1621.64034,0.03609
1620.61007,0.03506
1619.57980,0.03392
1618.54954,0.03285
1617.51927,0.03170
1616.48900,0.03014
1615.45873,0.02888
1614.42847,0.02803
1613.39820,0.02718
1612.36793,0.02629
1611.33767,0.02541
1610.30740,0.02459
1609.27713,0.02393
1608.24687,0.02335
1607.21660,0.02251
1606.18633,0.02167
1605.15606,0.02098
1604.12580,0.02038
1603.09553,0.01983
1602.06526,0.01929
1601.03500,0.01886
1600.00473,0.01856
1598.97446,0.01814
1597.94419,0.01767
1596.91393,0.01743
1595.88366,0.01725
1594.85339,0.01683
1593.82313,0.01611
1592.79286,0.01554
1591.76259,0.01524
1590.73233,0.01487
1589.70206,0.01449
1588.67179,0.01418
1587.64152,0.01386
1586.61126,0.01358
1585.58099,0.01327
1584.55072,0.01303
1583.52046,0.01279
1582.49019,0.01240
1581.45992,0.01200
1580.42966,0.01170
1579.39939,0.01158
1578.36912,0.01164
1577.33885,0.01169
1576.30859,0.01152
1575.27832,0.01127
1574.24805,0.01118
1573.21779,0.01110
1572.18752,0.01105
1571.15725,0.01111
1570.12698,0.01116
1569.09672,0.01101
1568.06645,0.01070
1567.03618,0.01049
1566.00592,0.01052
1564.97565,0.01074
1563.94538,0.01089
1562.91512,0.01087
1561.88485,0.01095
1560.85458,0.01128
1559.82431,0.01175
1558.79405,0.01192
1557.76378,0.01111
1556.73351,0.01018
1555.70325,0.00988
1554.67298,0.00999
1553.64271,0.01018
1552.61244,0.01015
1551.58218,0.00990
1550.55191,0.00974
1549.52164,0.00987
1548.49138,0.00986
1547.46111,0.00976
1546.43084,0.00994
1545.40058,0.01017
1544.37031,0.00988
1543.34004,0.00961
1542.30977,0.00996
1541.27951,0.01055
1540.24924,0.01076
1539.21897,0.01023
1538.18871,0.00944
1537.15844,0.00908
1536.12817,0.00914
1535.09790,0.00953
1534.06764,0.01006
1533.03737,0.01047
1532.00710,0.01057
1530.97684,0.01042
1529.94657,0.01031
1528.91630,0.01039
1527.88604,0.01066
1526.85577,0.01109
1525.82550,0.01123
1524.79523,0.01091
1523.76497,0.01079
1522.73470,0.01104
1521.70443,0.01148
1520.67417,0.01176
1519.64390,0.01164
1518.61363,0.01150
1517.58336,0.01158
1516.55310,0.01182
1515.52283,0.01175
1514.49256,0.01139
1513.46230,0.01112
1512.43203,0.01120
1511.40176,0.01158
1510.37150,0.01204
1509.34123,0.01251
1508.31096,0.01293
1507.28069,0.01301
1506.25043,0.01267
1505.22016,0.01267
1504.18989,0.01310
1503.15963,0.01354
1502.12936,0.01371
1501.09909,0.01390
1500.06883,0.01447
1499.03856,0.01526
1498.00829,0.01603
1496.97802,0.01699
1495.94776,0.01849
1494.91749,0.01999
1493.88722,0.02154
1492.85696,0.02339
1491.82669,0.02546
1490.79642,0.02768
1489.76615,0.02952
1488.73589,0.03071
1487.70562,0.03194
1486.67535,0.03322
1485.64509,0.03410
1484.61482,0.03482
1483.58455,0.03580
1482.55429,0.03707
1481.52402,0.03850
1480.49375,0.04025
1479.46348,0.04248
1478.43322,0.04505
1477.40295,0.04795
1476.37268,0.05172
1475.34242,0.05561
1474.31215,0.05887
1473.28188,0.06233
1472.25161,0.06551
1471.22135,0.06746
1470.19108,0.06858
1469.16081,0.06926
1468.13055,0.06977
1467.10028,0.07052
1466.07001,0.07141
1465.03975,0.07220
1464.00948,0.07310
1462.97921,0.07412
1461.94894,0.07510
1460.91868,0.07601
1459.88841,0.07693
1458.85814,0.07792
1457.82788,0.07911
1456.79761,0.07999
1455.76734,0.08002
1454.73707,0.07981
1453.70681,0.07965
1452.67654,0.07939
1451.64627,0.07863
1450.61601,0.07706
1449.58574,0.07498
1448.55547,0.07269
1447.52521,0.07003
1446.49494,0.06752
1445.46467,0.06538
1444.43440,0.06341
1443.40414,0.06162
1442.37387,0.05999
1441.34360,0.05828
1440.31334,0.05633
1439.28307,0.05419
1438.25280,0.05212
1437.22254,0.04966
1436.19227,0.04599
1435.16200,0.04313
1434.13173,0.04147
1433.10147,0.03990
1432.07120,0.03819
1431.04093,0.03677
1430.01067,0.03561
1428.98040,0.03460
1427.95013,0.03403
1426.91986,0.03371
1425.88960,0.03331
1424.85933,0.03293
1423.82906,0.03271
1422.79880,0.03252
1421.76853,0.03236
1420.73826,0.03240
1419.70800,0.03270
1418.67773,0.03299
1417.64746,0.03298
1416.61719,0.03275
1415.58693,0.03251
1414.55666,0.03247
1413.52639,0.03252
1412.49613,0.03243
1411.46586,0.03241
1410.43559,0.03262
1409.40532,0.03275
1408.37506,0.03269
1407.34479,0.03274
1406.31452,0.03317
1405.28426,0.03368
1404.25399,0.03361
1403.22372,0.03317
1402.19346,0.03309
1401.16319,0.03333
1400.13292,0.03351
1399.10265,0.03355
1398.07239,0.03357
1397.04212,0.03382
1396.01185,0.03424
1394.98159,0.03439
1393.95132,0.03440
1392.92105,0.03454
1391.89078,0.03468
1390.86052,0.03485
1389.83025,0.03512
1388.79998,0.03537
1387.76972,0.03557
1386.73945,0.03576
1385.70918,0.03607
1384.67892,0.03664
1383.64865,0.03724
1382.61838,0.03760
1381.58811,0.03793
1380.55785,0.03848
1379.52758,0.03935
1378.49731,0.04040
1377.46705,0.04128
1376.43678,0.04202
1375.40651,0.04302
1374.37624,0.04424
1373.34598,0.04533
1372.31571,0.04631
1371.28544,0.04733
1370.25518,0.04853
1369.22491,0.05016
1368.19464,0.05220
1367.16438,0.05424
1366.13411,0.05623
1365.10384,0.05836
1364.07357,0.06075
1363.04331,0.06352
1362.01304,0.06650
1360.98277,0.06961
1359.95251,0.07315
1358.92224,0.07734
1357.89197,0.08217
1356.86171,0.08720
1355.83144,0.09241
1354.80117,0.09792
1353.77090,0.10345
1352.74064,0.10882
1351.71037,0.11414
1350.68010,0.11914
1349.64984,0.12316
1348.61957,0.12515
1347.58930,0.12389
1346.55903,0.11893
1345.52877,0.11038
1344.49850,0.09896
1343.46823,0.08639
1342.43797,0.07496
1341.40770,0.06605
1340.37743,0.05967
1339.34717,0.05542
1338.31690,0.05292
1337.28663,0.05159
1336.25636,0.05108
1335.22610,0.05132
1334.19583,0.05206
1333.16556,0.05294
1332.13530,0.05389
1331.10503,0.05509
1330.07476,0.05650
1329.04449,0.05788
1328.01423,0.05897
1326.98396,0.05970
1325.95369,0.06005
1324.92343,0.05966
1323.89316,0.05848
1322.86289,0.05702
1321.83263,0.05553
1320.80236,0.05405
1319.77209,0.05287
1318.74182,0.05215
1317.71156,0.05180
1316.68129,0.05206
1315.65102,0.05303
1314.62076,0.05438
1313.59049,0.05607
1312.56022,0.05837
1311.52995,0.06094
1310.49969,0.06374
1309.46942,0.06711
1308.43915,0.07043
1307.40889,0.07330
1306.37862,0.07614
1305.34835,0.07903
1304.31809,0.08165
1303.28782,0.08369
1302.25755,0.08521
1301.22728,0.08647
1300.19702,0.08752
1299.16675,0.08825
1298.13648,0.08859
1297.10622,0.08870
1296.07595,0.08870
1295.04568,0.08864
1294.01542,0.08853
1292.98515,0.08825
1291.95488,0.08772
1290.92461,0.08708
1289.89435,0.08655
1288.86408,0.08615
1287.83381,0.08557
1286.80355,0.08479
1285.77328,0.08402
1284.74301,0.08317
1283.71274,0.08210
1282.68248,0.08074
1281.65221,0.07909
1280.62194,0.07744
1279.59168,0.07589
1278.56141,0.07409
1277.53114,0.07195
1276.50088,0.06978
1275.47061,0.06805
1274.44034,0.06680
1273.41007,0.06566
1272.37981,0.06453
1271.34954,0.06350
1270.31927,0.06264
1269.28901,0.06226
1268.25874,0.06237
1267.22847,0.06268
1266.19820,0.06334
1265.16794,0.06460
1264.13767,0.06627
1263.10740,0.06825
1262.07714,0.07081
1261.04687,0.07379
1260.01660,0.07690
1258.98634,0.08025
1257.95607,0.08364
1256.92580,0.08693
1255.89553,0.09027
1254.86527,0.09341
1253.83500,0.09609
1252.80473,0.09845
1251.77447,0.10035
1250.74420,0.10172
1249.71393,0.10267
1248.68366,0.10310
1247.65340,0.10278
1246.62313,0.10179
1245.59286,0.10020
1244.56260,0.09795
1243.53233,0.09517
1242.50206,0.09206
1241.47180,0.08902
1240.44153,0.08602
1239.41126,0.08260
1238.38099,0.07902
1237.35073,0.07570
1236.32046,0.07256
1235.29019,0.06948
1234.25993,0.06644
1233.22966,0.06341
1232.19939,0.06060
1231.16912,0.05800
1230.13886,0.05549
1229.10859,0.05333
1228.07832,0.05159
1227.04806,0.05012
1226.01779,0.04874
1224.98752,0.04740
1223.95726,0.04610
1222.92699,0.04476
1221.89672,0.04367
1220.86645,0.04302
1219.83619,0.04243
1218.80592,0.04167
1217.77565,0.04078
1216.74539,0.03975
1215.71512,0.03872
1214.68485,0.03776
1213.65459,0.03675
1212.62432,0.03572
1211.59405,0.03485
1210.56378,0.03413
1209.53352,0.03345
1208.50325,0.03278
1207.47298,0.03214
1206.44272,0.03167
1205.41245,0.03150
1204.38218,0.03135
1203.35191,0.03111
1202.32165,0.03076
1201.29138,0.03040
1200.26111,0.03037
1199.23085,0.03058
1198.20058,0.03056
1197.17031,0.03012
1196.14005,0.02972
1195.10978,0.02975
1194.07951,0.03003
1193.04924,0.03037
1192.01898,0.03061
1190.98871,0.03075
1189.95844,0.03099
1188.92818,0.03132
1187.89791,0.03159
1186.86764,0.03198
1185.83737,0.03254
1184.80711,0.03313
1183.77684,0.03371
1182.74657,0.03423
1181.71631,0.03476
1180.68604,0.03551
1179.65577,0.03645
1178.62551,0.03741
1177.59524,0.03841
1176.56497,0.03965
1175.53470,0.04110
1174.50444,0.04242
1173.47417,0.04376
1172.44390,0.04560
1171.41364,0.04762
1170.38337,0.04955
1169.35310,0.05174
1168.32283,0.05419
1167.29257,0.05680
1166.26230,0.06004
1165.23203,0.06408
1164.20177,0.06867
1163.17150,0.07386
1162.14123,0.07969
1161.11097,0.08611
1160.08070,0.09317
1159.05043,0.10060
1158.02016,0.10831
1156.98990,0.11676
1155.95963,0.12601
1154.92936,0.13561
1153.89910,0.14539
1152.86883,0.15546
1151.83856,0.16580
1150.80830,0.17630
1149.77803,0.18655
1148.74776,0.19635
1147.71749,0.20608
1146.68723,0.21572
1145.65696,0.22473
1144.62669,0.23310
1143.59643,0.24123
1142.56616,0.24907
1141.53589,0.25622
1140.50562,0.26261
1139.47536,0.26878
1138.44509,0.27509
1137.41482,0.28103
1136.38456,0.28631
1135.35429,0.29138
1134.32402,0.29646
1133.29376,0.30111
1132.26349,0.30531
1131.23322,0.30967
1130.20295,0.31459
1129.17269,0.31971
1128.14242,0.32458
1127.11215,0.32972
1126.08189,0.33576
1125.05162,0.34203
1124.02135,0.34817
1122.99108,0.35481
1121.96082,0.36191
1120.93055,0.36881
1119.90028,0.37543
1118.87002,0.38206
1117.83975,0.38888
1116.80948,0.39595
1115.77922,0.40320
1114.74895,0.41059
1113.71868,0.41821
1112.68841,0.42607
1111.65815,0.43405
1110.62788,0.44216
1109.59761,0.45057
1108.56735,0.45903
1107.53708,0.46708
1106.50681,0.47516
1105.47654,0.48412
1104.44628,0.49342
1103.41601,0.50208
1102.38574,0.51079
1101.35548,0.52033
1100.32521,0.52931
1099.29494,0.53707
1098.26468,0.54461
1097.23441,0.55117
1096.20414,0.55633
1095.17387,0.56130
1094.14361,0.56630
1093.11334,0.57074
1092.08307,0.57389
1091.05281,0.57521
1090.02254,0.57528
1088.99227,0.57533
1087.96201,0.57523
1086.93174,0.57387
1085.90147,0.57138
1084.87120,0.56829
1083.84094,0.56417
1082.81067,0.55889
1081.78040,0.55314
1080.75014,0.54732
1079.71987,0.54149
1078.68960,0.53559
1077.65933,0.52982
1076.62907,0.52431
1075.59880,0.51889
1074.56853,0.51329
1073.53827,0.50763
1072.50800,0.50201
1071.47773,0.49644
1070.44747,0.49167
1069.41720,0.48800
1068.38693,0.48389
1067.35666,0.47863
1066.32640,0.47317
1065.29613,0.46761
1064.26586,0.46111
1063.23560,0.45327
1062.20533,0.44398
1061.17506,0.43372
1060.14479,0.42307
1059.11453,0.41176
1058.08426,0.39981
1057.05399,0.38775
1056.02373,0.37559
1054.99346,0.36350
1053.96319,0.35188
1052.93293,0.34080
1051.90266,0.33011
1050.87239,0.31992
1049.84212,0.31042
1048.81186,0.30234
1047.78159,0.29617
1046.75132,0.29146
1045.72106,0.28777
1044.69079,0.28493
1043.66052,0.28292
1042.63025,0.28172
1041.59999,0.28078
1040.56972,0.28013
1039.53945,0.27986
1038.50919,0.27953
1037.47892,0.27905
1036.44865,0.27808
1035.41839,0.27637
1034.38812,0.27413
1033.35785,0.27143
1032.32758,0.26804
1031.29732,0.26407
1030.26705,0.25968
1029.23678,0.25469
1028.20652,0.24879
1027.17625,0.24200
1026.14598,0.23462
1025.11571,0.22702
1024.08545,0.21925
1023.05518,0.21125
1022.02491,0.20317
1020.99465,0.19488
1019.96438,0.18652
1018.93411,0.17887
1017.90385,0.17215
1016.87358,0.16570
1015.84331,0.15918
1014.81304,0.15282
1013.78278,0.14696
1012.75251,0.14188
1011.72224,0.13737
1010.69198,0.13315
1009.66171,0.12939
1008.63144,0.12631
1007.60118,0.12397
1006.57091,0.12241
1005.54064,0.12128
1004.51037,0.11998
1003.48011,0.11863
1002.44984,0.11772
1001.41957,0.11748
1000.38931,0.11761
999.35904,0.11763
998.32877,0.11759
997.29850,0.11739
996.26824,0.11675
995.23797,0.11603
994.20770,0.11546
993.17744,0.11480
992.14717,0.11393
991.11690,0.11249
990.08664,0.11064
989.05637,0.10925
988.02610,0.10805
986.99583,0.10603
985.96557,0.10327
984.93530,0.10050
983.90503,0.09803
982.87477,0.09579
981.84450,0.09376
980.81423,0.09187
979.78396,0.09000
978.75370,0.08816
977.72343,0.08652
976.69316,0.08514
975.66290,0.08391
974.63263,0.08305
973.60236,0.08272
972.57210,0.08284
971.54183,0.08352
970.51156,0.08477
969.48129,0.08642
968.45103,0.08834
967.42076,0.09080
966.39049,0.09428
965.36023,0.09852
964.32996,0.10315
963.29969,0.10852
962.26942,0.11469
961.23916,0.12127
960.20889,0.12829
959.17862,0.13598
958.14836,0.14426
957.11809,0.15263
956.08782,0.16073
955.05756,0.16845
954.02729,0.17565
952.99702,0.18246
951.96675,0.18859
950.93649,0.19351
949.90622,0.19773
948.87595,0.20142
947.84569,0.20393
946.81542,0.20528
945.78515,0.20567
944.75489,0.20530
943.72462,0.20464
942.69435,0.20343
941.66408,0.20131
940.63382,0.19858
939.60355,0.19604
938.57328,0.19407
937.54302,0.19195
936.51275,0.18935
935.48248,0.18666
934.45221,0.18359
933.42195,0.18021
932.39168,0.17718
931.36141,0.17423
930.33115,0.17077
929.30088,0.16689
928.27061,0.16302
927.24035,0.15957
926.21008,0.15653
925.17981,0.15370
924.14954,0.15084
923.11928,0.14812
922.08901,0.14554
921.05874,0.14270
920.02848,0.13985
918.99821,0.13747
917.96794,0.13526
916.93767,0.13261
915.90741,0.12987
914.87714,0.12754
913.84687,0.12520
912.81661,0.12263
911.78634,0.11982
910.75607,0.11674
909.72581,0.11384
908.69554,0.11138
907.66527,0.10905
906.63500,0.10652
905.60474,0.10388
904.57447,0.10152
903.54420,0.09936
902.51394,0.09730
901.48367,0.09575
900.45340,0.09492
899.42313,0.09459
898.39287,0.09468
897.36260,0.09527
896.33233,0.09639
895.30207,0.09804
894.27180,0.10005
893.24153,0.10233
892.21127,0.10510
891.18100,0.10838
890.15073,0.11170
889.12046,0.11491
888.09020,0.11796
887.05993,0.12042
886.02966,0.12201
884.99940,0.12268
883.96913,0.12264
882.93886,0.12234
881.90859,0.12151
880.87833,0.11968
879.84806,0.11722
878.81779,0.11470
877.78753,0.11220
876.75726,0.10984
875.72699,0.10831
874.69673,0.10799
873.66646,0.10831
872.63619,0.10884
871.60592,0.10964
870.57566,0.11084
869.54539,0.11262
868.51512,0.11452
867.48486,0.11601
866.45459,0.11756
865.42432,0.11923
864.39406,0.12028
863.36379,0.12078
862.33352,0.12126
861.30325,0.12181
860.27299,0.12253
859.24272,0.12390
858.21245,0.12595
857.18219,0.12795
856.15192,0.12932
855.12165,0.13013
854.09138,0.13152
853.06112,0.13420
852.03085,0.13699
851.00058,0.13893
849.97032,0.14058
848.94005,0.14265
847.90978,0.14450
846.87952,0.14548
845.84925,0.14622
844.81898,0.14705
843.78871,0.14753
842.75845,0.14743
841.72818,0.14729
840.69791,0.14768
839.66765,0.14817
838.63738,0.14807
837.60711,0.14707
836.57684,0.14522
835.54658,0.14295
834.51631,0.14076
833.48604,0.13877
832.45578,0.13633
831.42551,0.13305
830.39524,0.12985
829.36498,0.12724
828.33471,0.12452
827.30444,0.12173
826.27417,0.11928
825.24391,0.11692
824.21364,0.11476
823.18337,0.11279
822.15311,0.11059
821.12284,0.10867
820.09257,0.10732
819.06230,0.10594
818.03204,0.10451
817.00177,0.10314
815.97150,0.10152
814.94124,0.09994
813.91097,0.09878
812.88070,0.09780
811.85044,0.09688
810.82017,0.09596
809.78990,0.09515
808.75963,0.09449
807.72937,0.09389
806.69910,0.09335
805.66883,0.09250
804.63857,0.09125
803.60830,0.09010
802.57803,0.08914
801.54777,0.08802
800.51750,0.08676
799.48723,0.08534
798.45696,0.08375
797.42670,0.08246
796.39643,0.08167
795.36616,0.08107
794.33590,0.08035
793.30563,0.07945
792.27536,0.07848
791.24509,0.07761
790.21483,0.07689
789.18456,0.07617
788.15429,0.07545
787.12403,0.07489
786.09376,0.07443
785.06349,0.07364
784.03323,0.07281
783.00296,0.07233
781.97269,0.07190
780.94242,0.07153
779.91216,0.07137
778.88189,0.07108
777.85162,0.07055
776.82136,0.06981
775.79109,0.06897
774.76082,0.06859
773.73055,0.06881
772.70029,0.06922
771.67002,0.06948
770.63975,0.06955
769.60949,0.06972
768.57922,0.07017
767.54895,0.07068
766.51869,0.07101
765.48842,0.07125
764.45815,0.07147
763.42788,0.07161
762.39762,0.07198
761.36735,0.07266
760.33708,0.07308
759.30682,0.07344
758.27655,0.07389
757.24628,0.07390
756.21601,0.07409
755.18575,0.07490
754.15548,0.07545
753.12521,0.07590
752.09495,0.07694
751.06468,0.07784
750.03441,0.07801
749.00415,0.07798
747.97388,0.07820
746.94361,0.07867
745.91334,0.07920
744.88308,0.07989
743.85281,0.08089
742.82254,0.08174
741.79228,0.08213
740.76201,0.08261
739.73174,0.08342
738.70147,0.08408
737.67121,0.08480
736.64094,0.08545
735.61067,0.08561
734.58041,0.08576
733.55014,0.08628
732.51987,0.08678
731.48961,0.08710
730.45934,0.08761
729.42907,0.08855
728.39880,0.08954
727.36854,0.09004
726.33827,0.09050
725.30800,0.09126
724.27774,0.09189
723.24747,0.09237
722.21720,0.09284
721.18694,0.09334
720.15667,0.09427
719.12640,0.09556
718.09613,0.09619
717.06587,0.09599
716.03560,0.09626
715.00533,0.09830
713.97507,0.10053
712.94480,0.10074
711.91453,0.10004
710.88426,0.09978
709.85400,0.10006
708.82373,0.10114
707.79346,0.10240
706.76320,0.10318
705.73293,0.10344
704.70266,0.10335
703.67240,0.10361
702.64213,0.10462
701.61186,0.10577
700.58159,0.10664
699.55133,0.10735
698.52106,0.10772
697.49079,0.10790
696.46053,0.10826
695.43026,0.10895
694.39999,0.10965
693.36972,0.10991
692.33946,0.11070
691.30919,0.11256
690.27892,0.11404
689.24866,0.11435
688.21839,0.11442
687.18812,0.11505
686.15786,0.11608
685.12759,0.11697
684.09732,0.11718
683.06705,0.11702
682.03679,0.11725
681.00652,0.11788
679.97625,0.11899
678.94599,0.12037
677.91572,0.12087
676.88545,0.12080
675.85518,0.12114
674.82492,0.12169
673.79465,0.12265
672.76438,0.12396
671.73412,0.12488
670.70385,0.12573
669.67358,0.12709
668.64332,0.12788
667.61305,0.12651
666.58278,0.12661
665.55251,0.12798
664.52225,0.12897
663.49198,0.12934
662.46171,0.12974
661.43145,0.13004
660.40118,0.13052
659.37091,0.13180
658.34065,0.13328
657.31038,0.13403
656.28011,0.13406
655.24984,0.13415
654.21958,0.13459
653.18931,0.13580
652.15904,0.13765
651.12878,0.13875
650.09851,0.13850
649.06824,0.13807
648.03797,0.13837
647.00771,0.13918
645.97744,0.14048
644.94717,0.14131
643.91691,0.14161
642.88664,0.14239
641.85637,0.14294
640.82611,0.14316
639.79584,0.14367
638.76557,0.14425
637.73530,0.14527
636.70504,0.14638
635.67477,0.14687
634.64450,0.14741
633.61424,0.14787
632.58397,0.14828
631.55370,0.14934
630.52343,0.15040
629.49317,0.15093
628.46290,0.15144
627.43263,0.15159
626.40237,0.15096
625.37210,0.15055
624.34183,0.15146
623.31157,0.15307
622.28130,0.15403
621.25103,0.15488
620.22076,0.15673
619.19050,0.15857
618.16023,0.15881
617.12996,0.15869
616.09970,0.15958
615.06943,0.16007
614.03916,0.15979
613.00889,0.15992
611.97863,0.16022
610.94836,0.16033
609.91809,0.16129
608.88783,0.16315
607.85756,0.16423
606.82729,0.16465
605.79703,0.16590
604.76676,0.16704
603.73649,0.16734
602.70622,0.16842
601.67596,0.16987
600.64569,0.16978
599.61542,0.16913
598.58516,0.16973
597.55489,0.17144
596.52462,0.17357
595.49436,0.17512
594.46409,0.17565
593.43382,0.17599
592.40355,0.17758
591.37329,0.18059
590.34302,0.18245
589.31275,0.18211
588.28249,0.18210
587.25222,0.18379
586.22195,0.18527
585.19168,0.18575
584.16142,0.18672
583.13115,0.18863
582.10088,0.19037
581.07062,0.19111
580.04035,0.19134
579.01008,0.19149
577.97982,0.19254
576.94955,0.19489
575.91928,0.19674
574.88901,0.19733
573.85875,0.19753
572.82848,0.19796
571.79821,0.19849
570.76795,0.19843
569.73768,0.19873
568.70741,0.20009
567.67714,0.20110
566.64688,0.20127
565.61661,0.20103
564.58634,0.20045
563.55608,0.20053
562.52581,0.20218
561.49554,0.20444
560.46528,0.20556
559.43501,0.20546
558.40474,0.20531
557.37447,0.20546
556.34421,0.20652
555.31394,0.20896
554.28367,0.21154
553.25341,0.21288
552.22314,0.21379
551.19287,0.21453
550.16260,0.21347
549.13234,0.21183
548.10207,0.21186
547.07180,0.21285
546.04154,0.21413
545.01127,0.21621
543.98100,0.21808
542.95074,0.21807
541.92047,0.21749
540.89020,0.21733
539.85993,0.21674
538.82967,0.21587
537.79940,0.21555
536.76913,0.21717
535.73887,0.22000
534.70860,0.22125
533.67833,0.22173
532.64806,0.22323
531.61780,0.22440
530.58753,0.22361
529.55726,0.22244
528.52700,0.22390
527.49673,0.22703
526.46646,0.22870
525.43620,0.22932
524.40593,0.23017
523.37566,0.22946
522.34539,0.22732
521.31513,0.22728
520.28486,0.22905
519.25459,0.22965
518.22433,0.22917
517.19406,0.22817
516.16379,0.22713
515.13353,0.22732
514.10326,0.22862
513.07299,0.22897
512.04272,0.22734
511.01246,0.22517
509.98219,0.22460
508.95192,0.22614
507.92166,0.22663
506.89139,0.22536
505.86112,0.22479
504.83085,0.22440
503.80059,0.22519
502.77032,0.22724
501.74005,0.22724
500.70979,0.22537
499.67952,0.22445
498.64925,0.22510
497.61899,0.22417
496.58872,0.22224
495.55845,0.22273
494.52818,0.22312
493.49792,0.22126
492.46765,0.21988
491.43738,0.22113
490.40712,0.22173
489.37685,0.22043
488.34658,0.22028
487.31631,0.22136
486.28605,0.22252
485.25578,0.22289
484.22551,0.22113
483.19525,0.21738
482.16498,0.21483
481.13471,0.21521
480.10445,0.21693
479.07418,0.21799
478.04391,0.21756
477.01364,0.21583
475.98338,0.21404
474.95311,0.21441
473.92284,0.21653
472.89258,0.21783
471.86231,0.21713
470.83204,0.21528
469.80177,0.21372
468.77151,0.21401
467.74124,0.21541
466.71097,0.21558
465.68071,0.21424
464.65044,0.21355
463.62017,0.21349
462.58991,0.21201
461.55964,0.20990
460.52937,0.20827
459.49910,0.20936
458.46884,0.21328
457.43857,0.21396
456.40830,0.21044
455.37804,0.20929
454.34777,0.20986
453.31750,0.20879
452.28724,0.21011
451.25697,0.21364
450.22670,0.21320
449.19643,0.21034
448.16617,0.20797
447.13590,0.20723
446.10563,0.20811
445.07537,0.20866
444.04510,0.21105
443.01483,0.21468
441.98456,0.21525
440.95430,0.21529
439.92403,0.21769
438.89376,0.21956
437.86350,0.21878
436.83323,0.21893
435.80296,0.21959
434.77270,0.21551
433.74243,0.21009
432.71216,0.20712
431.68189,0.20602
430.65163,0.20776
429.62136,0.20921
428.59109,0.20813
427.56083,0.20827
426.53056,0.21051
425.50029,0.21288
424.47002,0.21179
423.43976,0.20388
422.40949,0.19485
421.37922,0.19254
420.34896,0.19532
419.31869,0.20012
418.28842,0.20532
417.25816,0.20778
416.22789,0.20500
415.19762,0.19976
414.16735,0.19661
413.13709,0.19624
412.10682,0.19652
411.07655,0.19681
410.04629,0.20008
409.01602,0.20378
407.98575,0.20206
406.95548,0.19950
405.92522,0.20086
404.89495,0.20215
403.86468,0.20208
402.83442,0.19922
401.80415,0.19239
400.77388,0.18979
399.74362,0.19399
