4998.85573,0.00134
4997.82546,0.00091
4996.79519,0.00143
4995.76493,0.00216
4994.73466,0.00209
4993.70439,0.00186
4992.67413,0.00221
4991.64386,0.00224
4990.61359,0.00182
4989.58332,0.00187
4988.55306,0.00196
4987.52279,0.00174
4986.49252,0.00214
4985.46226,0.00230
4984.43199,0.00126
4983.40172,0.00041
4982.37145,0.00063
4981.34119,0.00164
4980.31092,0.00261
4979.28065,0.00274
4978.25039,0.00187
4977.22012,0.00073
4976.18985,0.00087
4975.15959,0.00185
4974.12932,0.00205
4973.09905,0.00174
4972.06878,0.00141
4971.03852,0.00117
4970.00825,0.00179
4968.97798,0.00276
4967.94772,0.00255
4966.91745,0.00145
4965.88718,0.00121
4964.85691,0.00167
4963.82665,0.00153
4962.79638,0.00116
4961.76611,0.00142
4960.73585,0.00179
4959.70558,0.00158
4958.67531,0.00142
4957.64505,0.00172
4956.61478,0.00174
4955.58451,0.00142
4954.55424,0.00169
4953.52398,0.00232
4952.49371,0.00239
4951.46344,0.00217
4950.43318,0.00159
4949.40291,0.00023
4948.37264,-0.00054
4947.34238,0.00044
4946.31211,0.00191
4945.28184,0.00197
4944.25157,0.00107
4943.22131,0.00074
4942.19104,0.00122
4941.16077,0.00204
4940.13051,0.00176
4939.10024,0.00065
4938.06997,0.00053
4937.03970,0.00087
4936.00944,0.00116
4934.97917,0.00190
4933.94890,0.00273
4932.91864,0.00295
4931.88837,0.00226
4930.85810,0.00130
4929.82784,0.00105
4928.79757,0.00133
4927.76730,0.00143
4926.73703,0.00158
4925.70677,0.00232
4924.67650,0.00309
4923.64623,0.00296
4922.61597,0.00240
4921.58570,0.00184
4920.55543,0.00123
4919.52516,0.00144
4918.49490,0.00243
4917.46463,0.00275
4916.43436,0.00185
4915.40410,0.00020
4914.37383,-0.00116
4913.34356,-0.00089
4912.31330,0.00093
4911.28303,0.00207
4910.25276,0.00103
4909.22249,-0.00005
4908.19223,0.00092
4907.16196,0.00215
4906.13169,0.00175
4905.10143,0.00113
4904.07116,0.00205
4903.04089,0.00289
4902.01062,0.00191
4900.98036,0.00086
4899.95009,0.00062
4898.91982,0.00004
4897.88956,-0.00015
4896.85929,0.00096
4895.82902,0.00227
4894.79876,0.00292
4893.76849,0.00316
4892.73822,0.00290
4891.70795,0.00206
4890.67769,0.00127
4889.64742,0.00095
4888.61715,0.00095
4887.58689,0.00126
4886.55662,0.00182
4885.52635,0.00212
4884.49609,0.00212
4883.46582,0.00196
4882.43555,0.00189
4881.40528,0.00183
4880.37502,0.00126
4879.34475,0.00068
4878.31448,0.00082
4877.28422,0.00121
4876.25395,0.00129
4875.22368,0.00142
4874.19341,0.00193
4873.16315,0.00236
4872.13288,0.00224
4871.10261,0.00157
4870.07235,0.00119
4869.04208,0.00177
4868.01181,0.00207
4866.98155,0.00133
4865.95128,0.00057
4864.92101,0.00043
4863.89074,0.00084
4862.86048,0.00129
4861.83021,0.00111
4860.79994,0.00040
4859.76968,0.00007
4858.73941,0.00078
4857.70914,0.00201
4856.67887,0.00252
4855.64861,0.00216
4854.61834,0.00169
4853.58807,0.00160
4852.55781,0.00239
4851.52754,0.00328
4850.49727,0.00344
4849.46701,0.00344
4848.43674,0.00313
4847.40647,0.00248
4846.37620,0.00243
4845.34594,0.00308
4844.31567,0.00356
4843.28540,0.00290
4842.25514,0.00163
4841.22487,0.00117
4840.19460,0.00121
4839.16433,0.00055
4838.13407,-0.00006
4837.10380,0.00059
4836.07353,0.00116
4835.04327,0.00074
4834.01300,0.00077
4832.98273,0.00169
4831.95247,0.00255
4830.92220,0.00261
4829.89193,0.00199
4828.86166,0.00133
4827.83140,0.00109
4826.80113,0.00118
4825.77086,0.00173
4824.74060,0.00269
4823.71033,0.00330
4822.68006,0.00330
4821.64979,0.00329
4820.61953,0.00326
4819.58926,0.00272
4818.55899,0.00242
4817.52873,0.00269
4816.49846,0.00254
4815.46819,0.00189
4814.43793,0.00164
4813.40766,0.00179
4812.37739,0.00158
4811.34712,0.00147
4810.31686,0.00207
4809.28659,0.00242
4808.25632,0.00207
4807.22606,0.00127
4806.19579,0.00046
4805.16552,0.00058
4804.13526,0.00129
4803.10499,0.00164
4802.07472,0.00170
4801.04445,0.00177
4800.01419,0.00140
4798.98392,0.00038
4797.95365,0.00013
4796.92339,0.00100
4795.89312,0.00149
4794.86285,0.00135
4793.83258,0.00124
4792.80232,0.00111
4791.77205,0.00159
4790.74178,0.00268
4789.71152,0.00248
4788.68125,0.00097
4787.65098,0.00047
4786.62072,0.00137
4785.59045,0.00206
4784.56018,0.00188
4783.52991,0.00161
4782.49965,0.00175
4781.46938,0.00232
4780.43911,0.00278
4779.40885,0.00265
4778.37858,0.00227
4777.34831,0.00137
4776.31804,0.00045
4775.28778,0.00057
4774.25751,0.00086
4773.22724,0.00077
4772.19698,0.00096
4771.16671,0.00150
4770.13644,0.00164
4769.10618,0.00130
4768.07591,0.00138
4767.04564,0.00190
4766.01537,0.00210
4764.98511,0.00167
4763.95484,0.00120
4762.92457,0.00135
4761.89431,0.00130
4760.86404,0.00066
4759.83377,0.00055
4758.80350,0.00104
4757.77324,0.00140
4756.74297,0.00134
4755.71270,0.00163
4754.68244,0.00273
4753.65217,0.00370
4752.62190,0.00387
4751.59164,0.00340
4750.56137,0.00278
4749.53110,0.00212
4748.50083,0.00127
4747.47057,0.00085
4746.44030,0.00170
4745.41003,0.00318
4744.37977,0.00367
4743.34950,0.00314
4742.31923,0.00271
4741.28897,0.00229
4740.25870,0.00118
4739.22843,0.00008
4738.19816,0.00006
4737.16790,0.00117
4736.13763,0.00238
4735.10736,0.00233
4734.07710,0.00110
4733.04683,0.00001
4732.01656,0.00009
4730.98629,0.00133
4729.95603,0.00232
4728.92576,0.00217
4727.89549,0.00150
4726.86523,0.00139
4725.83496,0.00231
4724.80469,0.00292
4723.77443,0.00242
4722.74416,0.00194
4721.71389,0.00219
4720.68362,0.00249
4719.65336,0.00204
4718.62309,0.00106
4717.59282,0.00081
4716.56256,0.00201
4715.53229,0.00289
4714.50202,0.00183
4713.47175,0.00080
4712.44149,0.00153
4711.41122,0.00262
4710.38095,0.00270
4709.35069,0.00206
4708.32042,0.00167
4707.29015,0.00162
4706.25989,0.00158
4705.22962,0.00137
4704.19935,0.00054
4703.16908,-0.00023
4702.13882,0.00030
4701.10855,0.00109
4700.07828,0.00089
4699.04802,0.00093
4698.01775,0.00144
4696.98748,0.00139
4695.95721,0.00147
4694.92695,0.00206
4693.89668,0.00245
4692.86641,0.00237
4691.83615,0.00182
4690.80588,0.00114
4689.77561,0.00134
4688.74535,0.00249
4687.71508,0.00321
4686.68481,0.00273
4685.65454,0.00173
4684.62428,0.00097
4683.59401,0.00058
4682.56374,0.00093
4681.53348,0.00175
4680.50321,0.00180
4679.47294,0.00090
4678.44267,0.00009
4677.41241,0.00009
4676.38214,0.00076
4675.35187,0.00160
4674.32161,0.00187
4673.29134,0.00155
4672.26107,0.00137
4671.23081,0.00182
4670.20054,0.00250
4669.17027,0.00229
4668.14000,0.00165
4667.10974,0.00158
4666.07947,0.00169
4665.04920,0.00198
4664.01894,0.00280
4662.98867,0.00337
4661.95840,0.00329
4660.92814,0.00314
4659.89787,0.00257
4658.86760,0.00179
4657.83733,0.00183
4656.80707,0.00200
4655.77680,0.00165
4654.74653,0.00166
4653.71627,0.00226
4652.68600,0.00263
4651.65573,0.00285
4650.62546,0.00309
4649.59520,0.00294
4648.56493,0.00241
4647.53466,0.00198
4646.50440,0.00171
4645.47413,0.00124
4644.44386,0.00120
4643.41360,0.00211
4642.38333,0.00264
4641.35306,0.00172
4640.32279,0.00021
4639.29253,-0.00003
4638.26226,0.00124
4637.23199,0.00231
4636.20173,0.00222
4635.17146,0.00159
4634.14119,0.00110
4633.11092,0.00095
4632.08066,0.00144
4631.05039,0.00174
4630.02012,0.00121
4628.98986,0.00097
4627.95959,0.00146
4626.92932,0.00182
4625.89906,0.00168
4624.86879,0.00146
4623.83852,0.00128
4622.80825,0.00106
4621.77799,0.00112
4620.74772,0.00154
4619.71745,0.00187
4618.68719,0.00187
4617.65692,0.00184
4616.62665,0.00215
4615.59638,0.00263
4614.56612,0.00300
4613.53585,0.00340
4612.50558,0.00319
4611.47532,0.00243
4610.44505,0.00223
4609.41478,0.00225
4608.38452,0.00187
4607.35425,0.00141
4606.32398,0.00152
4605.29371,0.00208
4604.26345,0.00253
4603.23318,0.00275
4602.20291,0.00258
4601.17265,0.00219
4600.14238,0.00194
4599.11211,0.00145
4598.08185,0.00067
4597.05158,0.00038
4596.02131,0.00050
4594.99104,0.00042
4593.96078,0.00058
4592.93051,0.00098
4591.90024,0.00085
4590.86998,0.00058
4589.83971,0.00123
4588.80944,0.00217
4587.77917,0.00193
4586.74891,0.00109
4585.71864,0.00110
4584.68837,0.00189
4583.65811,0.00243
4582.62784,0.00237
4581.59757,0.00233
4580.56731,0.00266
4579.53704,0.00280
4578.50677,0.00231
4577.47650,0.00160
4576.44624,0.00110
4575.41597,0.00074
4574.38570,0.00020
4573.35544,-0.00010
4572.32517,0.00024
4571.29490,0.00043
4570.26463,-0.00005
4569.23437,-0.00007
4568.20410,0.00102
4567.17383,0.00185
4566.14357,0.00185
4565.11330,0.00189
4564.08303,0.00166
4563.05277,0.00078
4562.02250,0.00019
4560.99223,0.00019
4559.96196,0.00006
4558.93170,-0.00006
4557.90143,0.00065
4556.87116,0.00161
4555.84090,0.00144
4554.81063,0.00066
4553.78036,0.00070
4552.75009,0.00161
4551.71983,0.00222
4550.68956,0.00194
4549.65929,0.00158
4548.62903,0.00135
4547.59876,0.00092
4546.56849,0.00094
4545.53823,0.00136
4544.50796,0.00136
4543.47769,0.00093
4542.44742,0.00068
4541.41716,0.00090
4540.38689,0.00080
4539.35662,0.00031
4538.32636,0.00013
4537.29609,0.00046
4536.26582,0.00138
4535.23556,0.00205
4534.20529,0.00168
4533.17502,0.00113
4532.14475,0.00089
4531.11449,0.00073
4530.08422,0.00099
4529.05395,0.00164
4528.02369,0.00191
4526.99342,0.00140
4525.96315,0.00056
4524.93288,0.00028
4523.90262,0.00057
4522.87235,0.00059
4521.84208,0.00046
4520.81182,0.00077
4519.78155,0.00158
4518.75128,0.00250
4517.72102,0.00278
4516.69075,0.00248
4515.66048,0.00225
4514.63021,0.00187
4513.59995,0.00168
4512.56968,0.00190
4511.53941,0.00167
4510.50915,0.00122
4509.47888,0.00147
4508.44861,0.00189
4507.41834,0.00164
4506.38808,0.00116
4505.35781,0.00074
4504.32754,0.00039
4503.29728,0.00079
4502.26701,0.00181
4501.23674,0.00259
4500.20648,0.00270
4499.17621,0.00222
4498.14594,0.00157
4497.11567,0.00123
4496.08541,0.00103
4495.05514,0.00073
4494.02487,0.00050
4492.99461,0.00040
4491.96434,0.00082
4490.93407,0.00169
4489.90380,0.00209
4488.87354,0.00186
4487.84327,0.00150
4486.81300,0.00134
4485.78274,0.00129
4484.75247,0.00128
4483.72220,0.00136
4482.69194,0.00151
4481.66167,0.00206
4480.63140,0.00256
4479.60113,0.00199
4478.57087,0.00125
4477.54060,0.00169
4476.51033,0.00238
4475.48007,0.00212
4474.44980,0.00166
4473.41953,0.00154
4472.38926,0.00148
4471.35900,0.00136
4470.32873,0.00129
4469.29846,0.00138
4468.26820,0.00163
4467.23793,0.00191
4466.20766,0.00173
4465.17740,0.00117
4464.14713,0.00074
4463.11686,0.00065
4462.08659,0.00125
4461.05633,0.00197
4460.02606,0.00212
4458.99579,0.00202
4457.96553,0.00198
4456.93526,0.00177
4455.90499,0.00133
4454.87473,0.00113
4453.84446,0.00137
4452.81419,0.00178
4451.78392,0.00187
4450.75366,0.00136
4449.72339,0.00095
4448.69312,0.00121
4447.66286,0.00193
4446.63259,0.00231
4445.60232,0.00182
4444.57205,0.00124
4443.54179,0.00121
4442.51152,0.00168
4441.48125,0.00212
4440.45099,0.00191
4439.42072,0.00148
4438.39045,0.00145
4437.36019,0.00141
4436.32992,0.00100
4435.29965,0.00112
4434.26938,0.00174
4433.23912,0.00171
4432.20885,0.00156
4431.17858,0.00203
4430.14832,0.00257
4429.11805,0.00268
4428.08778,0.00213
4427.05751,0.00164
4426.02725,0.00187
4424.99698,0.00212
4423.96671,0.00209
4422.93645,0.00210
4421.90618,0.00167
4420.87591,0.00111
4419.84565,0.00132
4418.81538,0.00170
4417.78511,0.00173
4416.75484,0.00176
4415.72458,0.00154
4414.69431,0.00090
4413.66404,0.00038
4412.63378,0.00036
4411.60351,0.00047
4410.57324,0.00073
4409.54297,0.00119
4408.51271,0.00138
4407.48244,0.00123
4406.45217,0.00072
4405.42191,0.00014
4404.39164,0.00032
4403.36137,0.00129
4402.33111,0.00203
4401.30084,0.00210
4400.27057,0.00199
4399.24030,0.00181
4398.21004,0.00170
4397.17977,0.00195
4396.14950,0.00219
4395.11924,0.00217
4394.08897,0.00191
4393.05870,0.00145
4392.02844,0.00115
4390.99817,0.00112
4389.96790,0.00114
4388.93763,0.00141
4387.90737,0.00194
4386.87710,0.00208
4385.84683,0.00171
4384.81657,0.00169
4383.78630,0.00220
4382.75603,0.00227
4381.72576,0.00187
4380.69550,0.00174
4379.66523,0.00177
4378.63496,0.00172
4377.60470,0.00192
4376.57443,0.00238
4375.54416,0.00271
4374.51390,0.00296
4373.48363,0.00288
4372.45336,0.00244
4371.42309,0.00218
4370.39283,0.00218
4369.36256,0.00232
4368.33229,0.00258
4367.30203,0.00256
4366.27176,0.00238
4365.24149,0.00257
4364.21122,0.00245
4363.18096,0.00198
4362.15069,0.00206
4361.12042,0.00245
4360.09016,0.00244
4359.05989,0.00183
4358.02962,0.00144
4356.99936,0.00197
4355.96909,0.00253
4354.93882,0.00264
4353.90855,0.00304
4352.87829,0.00353
4351.84802,0.00344
4350.81775,0.00289
4349.78749,0.00254
4348.75722,0.00281
4347.72695,0.00304
4346.69668,0.00275
4345.66642,0.00239
4344.63615,0.00245
4343.60588,0.00286
4342.57562,0.00293
4341.54535,0.00263
4340.51508,0.00253
4339.48482,0.00253
4338.45455,0.00210
4337.42428,0.00164
4336.39401,0.00180
4335.36375,0.00206
4334.33348,0.00213
4333.30321,0.00237
4332.27295,0.00246
4331.24268,0.00213
4330.21241,0.00202
4329.18214,0.00206
4328.15188,0.00192
4327.12161,0.00197
4326.09134,0.00191
4325.06108,0.00171
4324.03081,0.00171
4323.00054,0.00181
4321.97028,0.00223
4320.94001,0.00253
4319.90974,0.00201
4318.87947,0.00145
4317.84921,0.00133
4316.81894,0.00123
4315.78867,0.00126
4314.75841,0.00164
4313.72814,0.00199
4312.69787,0.00236
4311.66761,0.00301
4310.63734,0.00330
4309.60707,0.00307
4308.57680,0.00287
4307.54654,0.00287
4306.51627,0.00295
4305.48600,0.00304
4304.45574,0.00318
4303.42547,0.00327
4302.39520,0.00277
4301.36493,0.00177
4300.33467,0.00137
4299.30440,0.00161
4298.27413,0.00190
4297.24387,0.00196
4296.21360,0.00199
4295.18333,0.00243
4294.15307,0.00285
4293.12280,0.00280
4292.09253,0.00275
4291.06226,0.00272
4290.03200,0.00253
4289.00173,0.00259
4287.97146,0.00252
4286.94120,0.00216
4285.91093,0.00208
4284.88066,0.00222
4283.85039,0.00223
4282.82013,0.00215
4281.78986,0.00199
4280.75959,0.00190
4279.72933,0.00248
4278.69906,0.00326
4277.66879,0.00342
4276.63853,0.00325
4275.60826,0.00290
4274.57799,0.00244
4273.54772,0.00222
4272.51746,0.00191
4271.48719,0.00152
4270.45692,0.00181
4269.42666,0.00246
4268.39639,0.00267
4267.36612,0.00218
4266.33585,0.00148
4265.30559,0.00101
4264.27532,0.00092
4263.24505,0.00135
4262.21479,0.00189
4261.18452,0.00186
4260.15425,0.00167
4259.12399,0.00190
4258.09372,0.00233
4257.06345,0.00286
4256.03318,0.00329
4255.00292,0.00277
4253.97265,0.00165
4252.94238,0.00110
4251.91212,0.00091
4250.88185,0.00090
4249.85158,0.00137
4248.82132,0.00201
4247.79105,0.00244
4246.76078,0.00252
4245.73051,0.00232
4244.70025,0.00187
4243.66998,0.00133
4242.63971,0.00124
4241.60945,0.00163
4240.57918,0.00197
4239.54891,0.00187
4238.51864,0.00149
4237.48838,0.00136
4236.45811,0.00170
4235.42784,0.00215
4234.39758,0.00209
4233.36731,0.00169
4232.33704,0.00152
4231.30678,0.00159
4230.27651,0.00185
4229.24624,0.00205
4228.21597,0.00196
4227.18571,0.00217
4226.15544,0.00270
4225.12517,0.00269
4224.09491,0.00237
4223.06464,0.00254
4222.03437,0.00285
4221.00410,0.00258
4219.97384,0.00210
4218.94357,0.00200
4217.91330,0.00207
4216.88304,0.00223
4215.85277,0.00253
4214.82250,0.00251
4213.79224,0.00215
4212.76197,0.00206
4211.73170,0.00220
4210.70143,0.00224
4209.67117,0.00234
4208.64090,0.00249
4207.61063,0.00255
4206.58037,0.00239
4205.55010,0.00183
4204.51983,0.00133
4203.48956,0.00160
4202.45930,0.00219
4201.42903,0.00249
4200.39876,0.00251
4199.36850,0.00252
4198.33823,0.00286
4197.30796,0.00312
4196.27770,0.00304
4195.24743,0.00289
4194.21716,0.00254
4193.18689,0.00225
4192.15663,0.00228
4191.12636,0.00207
4190.09609,0.00159
4189.06583,0.00154
4188.03556,0.00175
4187.00529,0.00191
4185.97502,0.00237
4184.94476,0.00278
4183.91449,0.00248
4182.88422,0.00179
4181.85396,0.00145
4180.82369,0.00194
4179.79342,0.00281
4178.76316,0.00299
4177.73289,0.00225
4176.70262,0.00161
4175.67235,0.00169
4174.64209,0.00188
4173.61182,0.00208
4172.58155,0.00262
4171.55129,0.00282
4170.52102,0.00257
4169.49075,0.00265
4168.46049,0.00298
4167.43022,0.00321
4166.39995,0.00312
4165.36968,0.00263
4164.33942,0.00244
4163.30915,0.00261
4162.27888,0.00240
4161.24862,0.00198
4160.21835,0.00175
4159.18808,0.00186
4158.15781,0.00215
4157.12755,0.00212
4156.09728,0.00200
4155.06701,0.00215
4154.03675,0.00218
4153.00648,0.00218
4151.97621,0.00255
4150.94595,0.00280
4149.91568,0.00252
4148.88541,0.00202
4147.85514,0.00169
4146.82488,0.00188
4145.79461,0.00227
4144.76434,0.00222
4143.73408,0.00201
4142.70381,0.00214
4141.67354,0.00225
4140.64327,0.00211
4139.61301,0.00211
4138.58274,0.00211
4137.55247,0.00199
4136.52221,0.00204
4135.49194,0.00213
4134.46167,0.00215
4133.43141,0.00231
4132.40114,0.00252
4131.37087,0.00251
4130.34060,0.00231
4129.31034,0.00230
4128.28007,0.00249
4127.24980,0.00243
4126.21954,0.00224
4125.18927,0.00221
4124.15900,0.00198
4123.12873,0.00196
4122.09847,0.00245
4121.06820,0.00276
4120.03793,0.00276
4119.00767,0.00302
4117.97740,0.00337
4116.94713,0.00326
4115.91687,0.00291
4114.88660,0.00260
4113.85633,0.00227
4112.82606,0.00209
4111.79580,0.00200
4110.76553,0.00165
4109.73526,0.00131
4108.70500,0.00137
4107.67473,0.00155
4106.64446,0.00142
4105.61420,0.00137
4104.58393,0.00216
4103.55366,0.00296
4102.52339,0.00255
4101.49313,0.00178
4100.46286,0.00185
4099.43259,0.00233
4098.40233,0.00243
4097.37206,0.00222
4096.34179,0.00210
4095.31152,0.00231
4094.28126,0.00272
4093.25099,0.00286
4092.22072,0.00276
4091.19046,0.00311
4090.16019,0.00384
4089.12992,0.00419
4088.09966,0.00391
4087.06939,0.00340
4086.03912,0.00333
4085.00885,0.00359
4083.97859,0.00372
4082.94832,0.00382
4081.91805,0.00375
4080.88779,0.00330
4079.85752,0.00270
4078.82725,0.00223
4077.79698,0.00246
4076.76672,0.00316
4075.73645,0.00333
4074.70618,0.00306
4073.67592,0.00298
4072.64565,0.00289
4071.61538,0.00272
4070.58512,0.00289
4069.55485,0.00330
4068.52458,0.00371
4067.49431,0.00399
4066.46405,0.00386
4065.43378,0.00364
4064.40351,0.00347
4063.37325,0.00330
4062.34298,0.00331
4061.31271,0.00326
4060.28244,0.00295
4059.25218,0.00265
4058.22191,0.00286
4057.19164,0.00339
4056.16138,0.00359
4055.13111,0.00344
4054.10084,0.00329
4053.07058,0.00314
4052.04031,0.00324
4051.01004,0.00388
4049.97977,0.00432
4048.94951,0.00417
4047.91924,0.00411
4046.88897,0.00416
4045.85871,0.00404
4044.82844,0.00384
4043.79817,0.00370
4042.76791,0.00367
4041.73764,0.00393
4040.70737,0.00443
4039.67710,0.00461
4038.64684,0.00437
4037.61657,0.00408
4036.58630,0.00381
4035.55604,0.00362
4034.52577,0.00340
4033.49550,0.00297
4032.46523,0.00284
4031.43497,0.00338
4030.40470,0.00392
4029.37443,0.00389
4028.34417,0.00362
4027.31390,0.00354
4026.28363,0.00376
4025.25337,0.00395
4024.22310,0.00372
4023.19283,0.00353
4022.16256,0.00365
4021.13230,0.00340
4020.10203,0.00324
4019.07176,0.00369
4018.04150,0.00412
4017.01123,0.00439
4015.98096,0.00454
4014.95069,0.00426
4013.92043,0.00398
4012.89016,0.00425
4011.85989,0.00451
4010.82963,0.00424
4009.79936,0.00379
4008.76909,0.00343
4007.73883,0.00326
4006.70856,0.00331
4005.67829,0.00327
4004.64802,0.00300
4003.61776,0.00296
4002.58749,0.00328
4001.55722,0.00374
4000.52696,0.00435
3999.49669,0.00477
3998.46642,0.00464
3997.43615,0.00420
3996.40589,0.00390
3995.37562,0.00386
3994.34535,0.00392
3993.31509,0.00395
3992.28482,0.00378
3991.25455,0.00352
3990.22429,0.00333
3989.19402,0.00315
3988.16375,0.00326
3987.13348,0.00355
3986.10322,0.00352
3985.07295,0.00336
3984.04268,0.00333
3983.01242,0.00344
3981.98215,0.00350
3980.95188,0.00346
3979.92161,0.00374
3978.89135,0.00386
3977.86108,0.00338
3976.83081,0.00315
3975.80055,0.00347
3974.77028,0.00387
3973.74001,0.00377
3972.70975,0.00320
3971.67948,0.00304
3970.64921,0.00352
3969.61894,0.00386
3968.58868,0.00382
3967.55841,0.00376
3966.52814,0.00372
3965.49788,0.00370
3964.46761,0.00380
3963.43734,0.00380
3962.40708,0.00349
3961.37681,0.00299
3960.34654,0.00264
3959.31627,0.00279
3958.28601,0.00318
3957.25574,0.00319
3956.22547,0.00298
3955.19521,0.00285
3954.16494,0.00276
3953.13467,0.00299
3952.10440,0.00349
3951.07414,0.00385
3950.04387,0.00406
3949.01360,0.00410
3947.98334,0.00397
3946.95307,0.00366
3945.92280,0.00322
3944.89254,0.00311
3943.86227,0.00346
3942.83200,0.00388
3941.80173,0.00388
3940.77147,0.00318
3939.74120,0.00247
3938.71093,0.00279
3937.68067,0.00328
3936.65040,0.00318
3935.62013,0.00322
3934.58986,0.00332
3933.55960,0.00342
3932.52933,0.00350
3931.49906,0.00301
3930.46880,0.00259
3929.43853,0.00291
3928.40826,0.00322
3927.37800,0.00304
3926.34773,0.00270
3925.31746,0.00240
3924.28719,0.00244
3923.25693,0.00298
3922.22666,0.00359
3921.19639,0.00361
3920.16613,0.00293
3919.13586,0.00216
3918.10559,0.00174
3917.07532,0.00154
3916.04506,0.00158
3915.01479,0.00198
3913.98452,0.00252
3912.95426,0.00310
3911.92399,0.00351
3910.89372,0.00341
3909.86346,0.00326
3908.83319,0.00345
3907.80292,0.00350
3906.77265,0.00329
3905.74239,0.00300
3904.71212,0.00263
3903.68185,0.00230
3902.65159,0.00251
3901.62132,0.00318
3900.59105,0.00330
3899.56079,0.00287
3898.53052,0.00264
3897.50025,0.00267
3896.46998,0.00277
3895.43972,0.00308
3894.40945,0.00321
3893.37918,0.00284
3892.34892,0.00238
3891.31865,0.00194
3890.28838,0.00187
3889.25811,0.00244
3888.22785,0.00307
3887.19758,0.00344
3886.16731,0.00357
3885.13705,0.00339
3884.10678,0.00333
3883.07651,0.00377
3882.04625,0.00427
3881.01598,0.00419
3879.98571,0.00343
3878.95544,0.00291
3877.92518,0.00314
3876.89491,0.00358
3875.86464,0.00357
3874.83438,0.00305
3873.80411,0.00276
3872.77384,0.00287
3871.74357,0.00302
3870.71331,0.00330
3869.68304,0.00343
3868.65277,0.00335
3867.62251,0.00312
3866.59224,0.00257
3865.56197,0.00217
3864.53171,0.00242
3863.50144,0.00301
3862.47117,0.00330
3861.44090,0.00309
3860.41064,0.00284
3859.38037,0.00294
3858.35010,0.00317
3857.31984,0.00330
3856.28957,0.00301
3855.25930,0.00211
3854.22903,0.00131
3853.19877,0.00179
3852.16850,0.00258
3851.13823,0.00277
3850.10797,0.00265
3849.07770,0.00242
3848.04743,0.00237
3847.01717,0.00262
3845.98690,0.00291
3844.95663,0.00300
3843.92636,0.00296
3842.89610,0.00320
3841.86583,0.00359
3840.83556,0.00338
3839.80530,0.00289
3838.77503,0.00314
3837.74476,0.00371
3836.71449,0.00339
3835.68423,0.00271
3834.65396,0.00265
3833.62369,0.00290
3832.59343,0.00256
3831.56316,0.00212
3830.53289,0.00220
3829.50263,0.00238
3828.47236,0.00267
3827.44209,0.00316
3826.41182,0.00322
3825.38156,0.00272
3824.35129,0.00244
3823.32102,0.00285
3822.29076,0.00338
3821.26049,0.00357
3820.23022,0.00346
3819.19996,0.00303
3818.16969,0.00278
3817.13942,0.00306
3816.10915,0.00350
3815.07889,0.00357
3814.04862,0.00359
3813.01835,0.00355
3811.98809,0.00319
3810.95782,0.00293
3809.92755,0.00307
3808.89728,0.00336
3807.86702,0.00370
3806.83675,0.00358
3805.80648,0.00273
3804.77622,0.00217
3803.74595,0.00233
3802.71568,0.00304
3801.68542,0.00379
3800.65515,0.00412
3799.62488,0.00413
3798.59461,0.00390
3797.56435,0.00358
3796.53408,0.00365
3795.50381,0.00407
3794.47355,0.00413
3793.44328,0.00384
3792.41301,0.00357
3791.38274,0.00313
3790.35248,0.00263
3789.32221,0.00263
3788.29194,0.00278
3787.26168,0.00270
3786.23141,0.00282
3785.20114,0.00332
3784.17088,0.00380
3783.14061,0.00376
3782.11034,0.00353
3781.08007,0.00373
3780.04981,0.00398
3779.01954,0.00378
3777.98927,0.00349
3776.95901,0.00323
3775.92874,0.00283
3774.89847,0.00250
3773.86820,0.00255
3772.83794,0.00310
3771.80767,0.00356
3770.77740,0.00339
3769.74714,0.00283
3768.71687,0.00258
3767.68660,0.00303
3766.65634,0.00349
3765.62607,0.00332
3764.59580,0.00300
3763.56553,0.00299
3762.53527,0.00321
3761.50500,0.00343
3760.47473,0.00347
3759.44447,0.00347
3758.41420,0.00340
3757.38393,0.00334
3756.35367,0.00334
3755.32340,0.00308
3754.29313,0.00296
3753.26286,0.00329
3752.23260,0.00362
3751.20233,0.00397
3750.17206,0.00446
3749.14180,0.00460
3748.11153,0.00454
3747.08126,0.00464
3746.05099,0.00480
3745.02073,0.00491
3743.99046,0.00457
3742.96019,0.00388
3741.92993,0.00359
3740.89966,0.00376
3739.86939,0.00419
3738.83913,0.00472
3737.80886,0.00493
3736.77859,0.00477
3735.74832,0.00505
3734.71806,0.00537
3733.68779,0.00507
3732.65752,0.00499
3731.62726,0.00537
3730.59699,0.00532
3729.56672,0.00486
3728.53645,0.00454
3727.50619,0.00443
3726.47592,0.00433
3725.44565,0.00418
3724.41539,0.00433
3723.38512,0.00479
3722.35485,0.00514
3721.32459,0.00524
3720.29432,0.00525
3719.26405,0.00500
3718.23378,0.00453
3717.20352,0.00431
3716.17325,0.00430
3715.14298,0.00463
3714.11272,0.00536
3713.08245,0.00594
3712.05218,0.00598
3711.02191,0.00522
3709.99165,0.00436
3708.96138,0.00430
3707.93111,0.00499
3706.90085,0.00551
3705.87058,0.00557
3704.84031,0.00560
3703.81005,0.00600
3702.77978,0.00661
3701.74951,0.00672
3700.71924,0.00618
3699.68898,0.00573
3698.65871,0.00589
3697.62844,0.00648
3696.59818,0.00680
3695.56791,0.00683
3694.53764,0.00706
3693.50737,0.00768
3692.47711,0.00850
3691.44684,0.00895
3690.41657,0.00858
3689.38631,0.00814
3688.35604,0.00835
3687.32577,0.00930
3686.29551,0.01006
3685.26524,0.01002
3684.23497,0.00974
3683.20470,0.00988
3682.17444,0.01014
3681.14417,0.01039
3680.11390,0.01068
3679.08364,0.01099
3678.05337,0.01175
3677.02310,0.01273
3675.99284,0.01317
3674.96257,0.01306
3673.93230,0.01295
3672.90203,0.01299
3671.87177,0.01320
3670.84150,0.01372
3669.81123,0.01434
3668.78097,0.01480
3667.75070,0.01508
3666.72043,0.01527
3665.69016,0.01567
3664.65990,0.01640
3663.62963,0.01708
3662.59936,0.01757
3661.56910,0.01834
3660.53883,0.01921
3659.50856,0.01979
3658.47830,0.02045
3657.44803,0.02086
3656.41776,0.02073
3655.38749,0.02112
3654.35723,0.02213
3653.32696,0.02321
3652.29669,0.02368
3651.26643,0.02311
3650.23616,0.02323
3649.20589,0.02508
3648.17562,0.02626
3647.14536,0.02608
3646.11509,0.02604
3645.08482,0.02684
3644.05456,0.02786
3643.02429,0.02873
3641.99402,0.02944
3640.96376,0.02993
3639.93349,0.03047
3638.90322,0.03128
3637.87295,0.03215
3636.84269,0.03283
3635.81242,0.03326
3634.78215,0.03368
3633.75189,0.03455
3632.72162,0.03575
3631.69135,0.03680
3630.66108,0.03775
3629.63082,0.03854
3628.60055,0.03855
3627.57028,0.03843
3626.54002,0.03889
3625.50975,0.03962
3624.47948,0.04045
3623.44922,0.04150
3622.41895,0.04278
3621.38868,0.04412
3620.35841,0.04506
3619.32815,0.04535
3618.29788,0.04538
3617.26761,0.04565
3616.23735,0.04658
3615.20708,0.04824
3614.17681,0.04962
3613.14655,0.05021
3612.11628,0.05078
3611.08601,0.05161
3610.05574,0.05265
3609.02548,0.05381
3607.99521,0.05442
3606.96494,0.05485
3605.93468,0.05575
3604.90441,0.05679
3603.87414,0.05760
3602.84387,0.05837
3601.81361,0.05952
3600.78334,0.06060
3599.75307,0.06096
3598.72281,0.06148
3597.69254,0.06283
3596.66227,0.06430
3595.63201,0.06540
3594.60174,0.06653
3593.57147,0.06762
3592.54120,0.06812
3591.51094,0.06837
3590.48067,0.06925
3589.45040,0.07058
3588.42014,0.07165
3587.38987,0.07256
3586.35960,0.07335
3585.32933,0.07427
3584.29907,0.07572
3583.26880,0.07720
3582.23853,0.07811
3581.20827,0.07862
3580.17800,0.07944
3579.14773,0.08084
3578.11747,0.08227
3577.08720,0.08337
3576.05693,0.08449
3575.02666,0.08617
3573.99640,0.08764
3572.96613,0.08787
3571.93586,0.08800
3570.90560,0.08910
3569.87533,0.09051
3568.84506,0.09149
3567.81479,0.09206
3566.78453,0.09299
3565.75426,0.09445
3564.72399,0.09578
3563.69373,0.09707
3562.66346,0.09871
3561.63319,0.09995
3560.60293,0.10087
3559.57266,0.10254
3558.54239,0.10434
3557.51212,0.10543
3556.48186,0.10615
3555.45159,0.10683
3554.42132,0.10766
3553.39106,0.10862
3552.36079,0.10966
3551.33052,0.11073
3550.30026,0.11155
3549.26999,0.11253
3548.23972,0.11389
3547.20945,0.11492
3546.17919,0.11574
3545.14892,0.11722
3544.11865,0.11880
3543.08839,0.11947
3542.05812,0.11988
3541.02785,0.12095
3539.99758,0.12211
3538.96732,0.12309
3537.93705,0.12413
3536.90678,0.12514
3535.87652,0.12588
3534.84625,0.12659
3533.81598,0.12780
3532.78572,0.12926
3531.75545,0.13053
3530.72518,0.13169
3529.69491,0.13247
3528.66465,0.13295
3527.63438,0.13365
3526.60411,0.13461
3525.57385,0.13573
3524.54358,0.13684
3523.51331,0.13775
3522.48304,0.13879
3521.45278,0.13965
3520.42251,0.13999
3519.39224,0.14080
3518.36198,0.14238
3517.33171,0.14378
3516.30144,0.14466
3515.27118,0.14532
3514.24091,0.14571
3513.21064,0.14611
3512.18037,0.14689
3511.15011,0.14775
3510.11984,0.14869
3509.08957,0.15004
3508.05931,0.15128
3507.02904,0.15179
3505.99877,0.15171
3504.96850,0.15167
3503.93824,0.15231
3502.90797,0.15315
3501.87770,0.15387
3500.84744,0.15496
3499.81717,0.15586
3498.78690,0.15620
3497.75664,0.15651
3496.72637,0.15691
3495.69610,0.15732
3494.66583,0.15796
3493.63557,0.15894
3492.60530,0.15993
3491.57503,0.16061
3490.54477,0.16108
3489.51450,0.16176
3488.48423,0.16299
3487.45396,0.16417
3486.42370,0.16476
3485.39343,0.16505
3484.36316,0.16503
3483.33290,0.16481
3482.30263,0.16489
3481.27236,0.16522
3480.24210,0.16563
3479.21183,0.16661
3478.18156,0.16794
3477.15129,0.16876
3476.12103,0.16899
3475.09076,0.16912
3474.06049,0.16954
3473.03023,0.17023
3471.99996,0.17103
3470.96969,0.17159
3469.93943,0.17196
3468.90916,0.17285
3467.87889,0.17395
3466.84862,0.17455
3465.81836,0.17500
3464.78809,0.17579
3463.75782,0.17678
3462.72756,0.17754
3461.69729,0.17807
3460.66702,0.17853
3459.63675,0.17891
3458.60649,0.17944
3457.57622,0.18000
3456.54595,0.18029
3455.51569,0.18055
3454.48542,0.18090
3453.45515,0.18125
3452.42489,0.18165
3451.39462,0.18202
3450.36435,0.18254
3449.33408,0.18348
3448.30382,0.18418
3447.27355,0.18392
3446.24328,0.18373
3445.21302,0.18469
3444.18275,0.18603
3443.15248,0.18716
3442.12221,0.18809
3441.09195,0.18825
3440.06168,0.18798
3439.03141,0.18822
3438.00115,0.18875
3436.97088,0.18924
3435.94061,0.18986
3434.91035,0.19039
3433.88008,0.19110
3432.84981,0.19198
3431.81954,0.19219
3430.78928,0.19207
3429.75901,0.19224
3428.72874,0.19254
3427.69848,0.19301
3426.66821,0.19357
3425.63794,0.19412
3424.60767,0.19495
3423.57741,0.19571
3422.54714,0.19612
3421.51687,0.19643
3420.48661,0.19670
3419.45634,0.19713
3418.42607,0.19766
3417.39581,0.19764
3416.36554,0.19734
3415.33527,0.19773
3414.30500,0.19831
3413.27474,0.19822
3412.24447,0.19812
3411.21420,0.19849
3410.18394,0.19875
3409.15367,0.19863
3408.12340,0.19878
3407.09314,0.19940
3406.06287,0.19997
3405.03260,0.20019
3404.00233,0.20013
3402.97207,0.20021
3401.94180,0.20035
3400.91153,0.19978
3399.88127,0.19900
3398.85100,0.19888
3397.82073,0.19933
3396.79046,0.19990
3395.76020,0.20020
3394.72993,0.20010
3393.69966,0.19975
3392.66940,0.19942
3391.63913,0.19947
3390.60886,0.19980
3389.57860,0.19994
3388.54833,0.19962
3387.51806,0.19922
3386.48779,0.19913
3385.45753,0.19910
3384.42726,0.19891
3383.39699,0.19850
3382.36673,0.19817
3381.33646,0.19813
3380.30619,0.19794
3379.27592,0.19716
3378.24566,0.19599
3377.21539,0.19529
3376.18512,0.19524
3375.15486,0.19544
3374.12459,0.19553
3373.09432,0.19515
3372.06406,0.19422
3371.03379,0.19338
3370.00352,0.19295
3368.97325,0.19247
3367.94299,0.19182
3366.91272,0.19113
3365.88245,0.19079
3364.85219,0.19087
3363.82192,0.19055
3362.79165,0.18957
3361.76138,0.18847
3360.73112,0.18779
3359.70085,0.18758
3358.67058,0.18745
3357.64032,0.18736
3356.61005,0.18719
3355.57978,0.18653
3354.54952,0.18560
3353.51925,0.18470
3352.48898,0.18374
3351.45871,0.18287
3350.42845,0.18227
3349.39818,0.18197
3348.36791,0.18201
3347.33765,0.18219
3346.30738,0.18173
3345.27711,0.18038
3344.24684,0.17913
3343.21658,0.17874
3342.18631,0.17885
3341.15604,0.17871
3340.12578,0.17825
3339.09551,0.17755
3338.06524,0.17658
3337.03498,0.17574
3336.00471,0.17525
3334.97444,0.17509
3333.94417,0.17544
3332.91391,0.17561
3331.88364,0.17460
3330.85337,0.17323
3329.82311,0.17272
3328.79284,0.17253
3327.76257,0.17190
3326.73231,0.17109
3325.70204,0.17042
3324.67177,0.17003
3323.64150,0.16990
3322.61124,0.17002
3321.58097,0.17038
3320.55070,0.17007
3319.52044,0.16900
3318.49017,0.16814
3317.45990,0.16772
3316.42963,0.16746
3315.39937,0.16733
3314.36910,0.16702
3313.33883,0.16633
3312.30857,0.16587
3311.27830,0.16572
3310.24803,0.16564
3309.21777,0.16567
3308.18750,0.16538
3307.15723,0.16448
3306.12696,0.16376
3305.09670,0.16366
3304.06643,0.16340
3303.03616,0.16289
3302.00590,0.16256
3300.97563,0.16230
3299.94536,0.16194
3298.91509,0.16130
3297.88483,0.16063
3296.85456,0.16023
3295.82429,0.16006
3294.79403,0.15986
3293.76376,0.15954
3292.73349,0.15953
3291.70323,0.15976
3290.67296,0.15943
3289.64269,0.15890
3288.61242,0.15881
3287.58216,0.15883
3286.55189,0.15875
3285.52162,0.15858
3284.49136,0.15818
3283.46109,0.15748
3282.43082,0.15677
3281.40055,0.15621
3280.37029,0.15564
3279.34002,0.15525
3278.30975,0.15539
3277.27949,0.15558
3276.24922,0.15525
3275.21895,0.15466
3274.18869,0.15434
3273.15842,0.15435
3272.12815,0.15440
3271.09788,0.15455
3270.06762,0.15474
3269.03735,0.15458
3268.00708,0.15396
3266.97682,0.15327
3265.94655,0.15277
3264.91628,0.15219
3263.88602,0.15140
3262.85575,0.15099
3261.82548,0.15102
3260.79521,0.15049
3259.76495,0.14973
3258.73468,0.14967
3257.70441,0.14973
3256.67415,0.14928
3255.64388,0.14838
3254.61361,0.14739
3253.58334,0.14704
3252.55308,0.14743
3251.52281,0.14750
3250.49254,0.14662
3249.46228,0.14556
3248.43201,0.14491
3247.40174,0.14444
3246.37148,0.14415
3245.34121,0.14369
3244.31094,0.14281
3243.28067,0.14192
3242.25041,0.14117
3241.22014,0.14064
3240.18987,0.14024
3239.15961,0.13967
3238.12934,0.13922
3237.09907,0.13923
3236.06880,0.13889
3235.03854,0.13774
3234.00827,0.13661
3232.97800,0.13582
3231.94774,0.13480
3230.91747,0.13389
3229.88720,0.13341
3228.85694,0.13290
3227.82667,0.13247
3226.79640,0.13220
3225.76613,0.13134
3224.73587,0.12989
3223.70560,0.12888
3222.67533,0.12848
3221.64507,0.12834
3220.61480,0.12815
3219.58453,0.12748
3218.55426,0.12637
3217.52400,0.12519
3216.49373,0.12421
3215.46346,0.12343
3214.43320,0.12262
3213.40293,0.12155
3212.37266,0.12028
3211.34240,0.11919
3210.31213,0.11861
3209.28186,0.11841
3208.25159,0.11802
3207.22133,0.11718
3206.19106,0.11612
3205.16079,0.11492
3204.13053,0.11374
3203.10026,0.11301
3202.06999,0.11277
3201.03972,0.11230
3200.00946,0.11088
3198.97919,0.10931
3197.94892,0.10861
3196.91866,0.10830
3195.88839,0.10777
3194.85812,0.10701
3193.82786,0.10601
3192.79759,0.10489
3191.76732,0.10374
3190.73705,0.10265
3189.70679,0.10205
3188.67652,0.10187
3187.64625,0.10149
3186.61599,0.10086
3185.58572,0.10026
3184.55545,0.09942
3183.52519,0.09851
3182.49492,0.09781
3181.46465,0.09686
3180.43438,0.09548
3179.40412,0.09416
3178.37385,0.09313
3177.34358,0.09226
3176.31332,0.09152
3175.28305,0.09085
3174.25278,0.09032
3173.22251,0.08971
3172.19225,0.08879
3171.16198,0.08789
3170.13171,0.08721
3169.10145,0.08642
3168.07118,0.08549
3167.04091,0.08489
3166.01065,0.08460
3164.98038,0.08396
3163.95011,0.08299
3162.91984,0.08192
3161.88958,0.08071
3160.85931,0.07996
3159.82904,0.07988
3158.79878,0.07967
3157.76851,0.07898
3156.73824,0.07801
3155.70797,0.07695
3154.67771,0.07610
3153.64744,0.07547
3152.61717,0.07492
3151.58691,0.07430
3150.55664,0.07334
3149.52637,0.07220
3148.49611,0.07148
3147.46584,0.07134
3146.43557,0.07131
3145.40530,0.07086
3144.37504,0.06993
3143.34477,0.06889
3142.31450,0.06816
3141.28424,0.06773
3140.25397,0.06721
3139.22370,0.06641
3138.19343,0.06568
3137.16317,0.06510
3136.13290,0.06443
3135.10263,0.06393
3134.07237,0.06360
3133.04210,0.06304
3132.01183,0.06235
3130.98157,0.06155
3129.95130,0.06060
3128.92103,0.06003
3127.89076,0.05993
3126.86050,0.05978
3125.83023,0.05925
3124.79996,0.05850
3123.76970,0.05773
3122.73943,0.05706
3121.70916,0.05639
3120.67890,0.05572
3119.64863,0.05526
3118.61836,0.05485
3117.58809,0.05427
3116.55783,0.05364
3115.52756,0.05317
3114.49729,0.05297
3113.46703,0.05283
3112.43676,0.05257
3111.40649,0.05185
3110.37622,0.05054
3109.34596,0.04958
3108.31569,0.04944
3107.28542,0.04955
3106.25516,0.04941
3105.22489,0.04904
3104.19462,0.04877
3103.16436,0.04846
3102.13409,0.04775
3101.10382,0.04707
3100.07355,0.04668
3099.04329,0.04613
3098.01302,0.04567
3096.98275,0.04554
3095.95249,0.04519
3094.92222,0.04451
3093.89195,0.04399
3092.86168,0.04358
3091.83142,0.04316
3090.80115,0.04291
3089.77088,0.04274
3088.74062,0.04260
3087.71035,0.04250
3086.68008,0.04201
3085.64982,0.04132
3084.61955,0.04088
3083.58928,0.04042
3082.55901,0.03980
3081.52875,0.03926
3080.49848,0.03883
3079.46821,0.03832
3078.43795,0.03790
3077.40768,0.03776
3076.37741,0.03752
3075.34714,0.03714
3074.31688,0.03705
3073.28661,0.03686
3072.25634,0.03629
3071.22608,0.03579
3070.19581,0.03551
3069.16554,0.03539
3068.13528,0.03529
3067.10501,0.03504
3066.07474,0.03464
3065.04447,0.03430
3064.01421,0.03420
3062.98394,0.03384
3061.95367,0.03309
3060.92341,0.03261
3059.89314,0.03249
3058.86287,0.03227
3057.83261,0.03198
3056.80234,0.03173
3055.77207,0.03132
3054.74180,0.03098
3053.71154,0.03089
3052.68127,0.03067
3051.65100,0.03031
3050.62074,0.03008
3049.59047,0.02996
3048.56020,0.02990
3047.52993,0.02980
3046.49967,0.02950
3045.46940,0.02891
3044.43913,0.02844
3043.40887,0.02843
3042.37860,0.02852
3041.34833,0.02828
3040.31807,0.02796
3039.28780,0.02778
3038.25753,0.02736
3037.22726,0.02668
3036.19700,0.02633
3035.16673,0.02643
3034.13646,0.02648
3033.10620,0.02624
3032.07593,0.02571
3031.04566,0.02510
3030.01539,0.02481
3028.98513,0.02489
3027.95486,0.02516
3026.92459,0.02518
3025.89433,0.02483
3024.86406,0.02433
3023.83379,0.02391
3022.80353,0.02389
3021.77326,0.02418
3020.74299,0.02428
3019.71272,0.02409
3018.68246,0.02379
3017.65219,0.02339
3016.62192,0.02320
3015.59166,0.02341
3014.56139,0.02349
3013.53112,0.02323
3012.50085,0.02296
3011.47059,0.02282
3010.44032,0.02279
3009.41005,0.02281
3008.37979,0.02272
3007.34952,0.02240
3006.31925,0.02227
3005.28899,0.02267
3004.25872,0.02306
3003.22845,0.02282
3002.19818,0.02242
3001.16792,0.02241
3000.13765,0.02234
2999.10738,0.02197
2998.07712,0.02189
2997.04685,0.02227
2996.01658,0.02253
2994.98631,0.02255
2993.95605,0.02274
2992.92578,0.02300
2991.89551,0.02308
2990.86525,0.02319
2989.83498,0.02346
2988.80471,0.02378
2987.77445,0.02416
2986.74418,0.02472
2985.71391,0.02541
2984.68364,0.02615
2983.65338,0.02693
2982.62311,0.02778
2981.59284,0.02870
2980.56258,0.02949
2979.53231,0.02996
2978.50204,0.03045
2977.47178,0.03132
2976.44151,0.03236
2975.41124,0.03362
2974.38097,0.03511
2973.35071,0.03639
2972.32044,0.03741
2971.29017,0.03848
2970.25991,0.03982
2969.22964,0.04134
2968.19937,0.04271
2967.16910,0.04386
2966.13884,0.04503
2965.10857,0.04629
2964.07830,0.04766
2963.04804,0.04912
2962.01777,0.05044
2960.98750,0.05144
2959.95724,0.05265
2958.92697,0.05426
2957.89670,0.05563
2956.86643,0.05665
2955.83617,0.05780
2954.80590,0.05899
2953.77563,0.06004
2952.74537,0.06115
2951.71510,0.06231
2950.68483,0.06327
2949.65456,0.06409
2948.62430,0.06478
2947.59403,0.06539
2946.56376,0.06602
2945.53350,0.06658
2944.50323,0.06729
2943.47296,0.06818
2942.44270,0.06890
2941.41243,0.06941
2940.38216,0.06982
2939.35189,0.07037
2938.32163,0.07148
2937.29136,0.07290
2936.26109,0.07380
2935.23083,0.07414
2934.20056,0.07454
2933.17029,0.07539
2932.14002,0.07636
2931.10976,0.07735
2930.07949,0.07867
2929.04922,0.07988
2928.01896,0.08086
2926.98869,0.08199
2925.95842,0.08309
2924.92816,0.08401
2923.89789,0.08472
2922.86762,0.08530
2921.83735,0.08628
2920.80709,0.08765
2919.77682,0.08876
2918.74655,0.08960
2917.71629,0.09037
2916.68602,0.09094
2915.65575,0.09141
2914.62549,0.09175
2913.59522,0.09177
2912.56495,0.09166
2911.53468,0.09180
2910.50442,0.09229
2909.47415,0.09291
2908.44388,0.09327
2907.41362,0.09320
2906.38335,0.09305
2905.35308,0.09322
2904.32281,0.09353
2903.29255,0.09350
2902.26228,0.09317
2901.23201,0.09289
2900.20175,0.09275
2899.17148,0.09281
2898.14121,0.09308
2897.11095,0.09341
2896.08068,0.09370
2895.05041,0.09404
2894.02014,0.09438
2892.98988,0.09462
2891.95961,0.09472
2890.92934,0.09505
2889.89908,0.09575
2888.86881,0.09673
2887.83854,0.09798
2886.80827,0.09911
2885.77801,0.09989
2884.74774,0.10061
2883.71747,0.10150
2882.68721,0.10274
2881.65694,0.10407
2880.62667,0.10483
2879.59641,0.10525
2878.56614,0.10568
2877.53587,0.10591
2876.50560,0.10602
2875.47534,0.10619
2874.44507,0.10586
2873.41480,0.10487
2872.38454,0.10393
2871.35427,0.10296
2870.32400,0.10166
2869.29373,0.10026
2868.26347,0.09860
2867.23320,0.09660
2866.20293,0.09436
2865.17267,0.09205
2864.14240,0.08990
2863.11213,0.08751
2862.08187,0.08482
2861.05160,0.08252
2860.02133,0.08043
2858.99106,0.07788
2857.96080,0.07501
2856.93053,0.07226
2855.90026,0.06967
2854.87000,0.06706
2853.83973,0.06454
2852.80946,0.06228
2851.77919,0.06014
2850.74893,0.05814
2849.71866,0.05632
2848.68839,0.05450
2847.65813,0.05287
2846.62786,0.05139
2845.59759,0.04985
2844.56733,0.04856
2843.53706,0.04747
2842.50679,0.04620
2841.47652,0.04478
2840.44626,0.04330
2839.41599,0.04200
2838.38572,0.04123
2837.35546,0.04080
2836.32519,0.04039
2835.29492,0.03983
2834.26466,0.03897
2833.23439,0.03804
2832.20412,0.03728
2831.17385,0.03667
2830.14359,0.03606
2829.11332,0.03539
2828.08305,0.03481
2827.05279,0.03445
2826.02252,0.03424
2824.99225,0.03377
2823.96198,0.03297
2822.93172,0.03232
2821.90145,0.03200
2820.87118,0.03178
2819.84092,0.03153
2818.81065,0.03121
2817.78038,0.03073
2816.75012,0.03009
2815.71985,0.02921
2814.68958,0.02824
2813.65931,0.02771
2812.62905,0.02749
2811.59878,0.02724
2810.56851,0.02694
2809.53825,0.02652
2808.50798,0.02591
2807.47771,0.02522
2806.44744,0.02481
2805.41718,0.02462
2804.38691,0.02430
2803.35664,0.02362
2802.32638,0.02274
2801.29611,0.02231
2800.26584,0.02236
2799.23558,0.02226
2798.20531,0.02173
2797.17504,0.02114
2796.14477,0.02071
2795.11451,0.02028
2794.08424,0.02004
2793.05397,0.02001
2792.02371,0.01967
2790.99344,0.01902
2789.96317,0.01856
2788.93290,0.01855
2787.90264,0.01858
2786.87237,0.01821
2785.84210,0.01782
2784.81184,0.01772
2783.78157,0.01751
2782.75130,0.01724
2781.72104,0.01722
2780.69077,0.01719
2779.66050,0.01683
2778.63023,0.01638
2777.59997,0.01604
2776.56970,0.01569
2775.53943,0.01539
2774.50917,0.01543
2773.47890,0.01567
2772.44863,0.01568
2771.41837,0.01533
2770.38810,0.01480
2769.35783,0.01458
2768.32756,0.01485
2767.29730,0.01504
2766.26703,0.01468
2765.23676,0.01421
2764.20650,0.01408
2763.17623,0.01419
2762.14596,0.01430
2761.11569,0.01434
2760.08543,0.01416
2759.05516,0.01383
2758.02489,0.01382
2756.99463,0.01419
2755.96436,0.01447
2754.93409,0.01454
2753.90383,0.01450
2752.87356,0.01443
2751.84329,0.01437
2750.81302,0.01424
2749.78276,0.01417
2748.75249,0.01403
2747.72222,0.01378
2746.69196,0.01375
2745.66169,0.01384
2744.63142,0.01376
2743.60115,0.01359
2742.57089,0.01327
2741.54062,0.01285
2740.51035,0.01263
2739.48009,0.01278
2738.44982,0.01309
2737.41955,0.01321
2736.38929,0.01303
2735.35902,0.01275
2734.32875,0.01271
2733.29848,0.01278
2732.26822,0.01260
2731.23795,0.01228
2730.20768,0.01211
2729.17742,0.01198
2728.14715,0.01170
2727.11688,0.01151
2726.08661,0.01159
2725.05635,0.01168
2724.02608,0.01166
2722.99581,0.01152
2721.96555,0.01116
2720.93528,0.01086
2719.90501,0.01091
2718.87475,0.01083
2717.84448,0.01041
2716.81421,0.01014
2715.78394,0.01024
2714.75368,0.01048
2713.72341,0.01057
2712.69314,0.01038
2711.66288,0.01030
2710.63261,0.01057
2709.60234,0.01067
2708.57207,0.01039
2707.54181,0.01012
2706.51154,0.00996
2705.48127,0.00978
2704.45101,0.00967
2703.42074,0.00960
2702.39047,0.00941
2701.36021,0.00923
2700.32994,0.00904
2699.29967,0.00887
2698.26940,0.00908
2697.23914,0.00945
2696.20887,0.00940
2695.17860,0.00887
2694.14834,0.00826
2693.11807,0.00800
2692.08780,0.00801
2691.05754,0.00801
2690.02727,0.00787
2688.99700,0.00759
2687.96673,0.00739
2686.93647,0.00739
2685.90620,0.00739
2684.87593,0.00729
2683.84567,0.00729
2682.81540,0.00729
2681.78513,0.00718
2680.75486,0.00706
2679.72460,0.00682
2678.69433,0.00641
2677.66406,0.00629
2676.63380,0.00650
2675.60353,0.00664
2674.57326,0.00675
2673.54300,0.00686
2672.51273,0.00682
2671.48246,0.00667
2670.45219,0.00646
2669.42193,0.00625
2668.39166,0.00628
2667.36139,0.00655
2666.33113,0.00658
2665.30086,0.00633
2664.27059,0.00629
2663.24032,0.00642
2662.21006,0.00635
2661.17979,0.00612
2660.14952,0.00589
2659.11926,0.00571
2658.08899,0.00581
2657.05872,0.00616
2656.02846,0.00634
2654.99819,0.00617
2653.96792,0.00597
2652.93765,0.00619
2651.90739,0.00650
2650.87712,0.00625
2649.84685,0.00557
2648.81659,0.00519
2647.78632,0.00537
2646.75605,0.00551
2645.72578,0.00525
2644.69552,0.00497
2643.66525,0.00522
2642.63498,0.00561
2641.60472,0.00541
2640.57445,0.00501
2639.54418,0.00502
2638.51392,0.00536
2637.48365,0.00560
2636.45338,0.00548
2635.42311,0.00526
2634.39285,0.00533
2633.36258,0.00564
2632.33231,0.00564
2631.30205,0.00512
2630.27178,0.00472
2629.24151,0.00474
2628.21125,0.00487
2627.18098,0.00498
2626.15071,0.00514
2625.12044,0.00519
2624.09018,0.00470
2623.05991,0.00408
2622.02964,0.00415
2620.99938,0.00471
2619.96911,0.00521
2618.93884,0.00548
2617.90857,0.00543
2616.87831,0.00529
2615.84804,0.00520
2614.81777,0.00500
2613.78751,0.00473
2612.75724,0.00462
2611.72697,0.00483
2610.69671,0.00501
2609.66644,0.00488
2608.63617,0.00486
2607.60590,0.00508
2606.57564,0.00491
2605.54537,0.00462
2604.51510,0.00459
2603.48484,0.00437
2602.45457,0.00405
2601.42430,0.00433
2600.39403,0.00486
2599.36377,0.00455
2598.33350,0.00390
2597.30323,0.00386
2596.27297,0.00420
2595.24270,0.00452
2594.21243,0.00469
2593.18217,0.00483
2592.15190,0.00473
2591.12163,0.00420
2590.09136,0.00384
2589.06110,0.00403
2588.03083,0.00432
2587.00056,0.00452
2585.97030,0.00459
2584.94003,0.00438
2583.90976,0.00423
2582.87949,0.00443
2581.84923,0.00481
2580.81896,0.00507
2579.78869,0.00475
2578.75843,0.00392
2577.72816,0.00344
2576.69789,0.00353
2575.66763,0.00370
2574.63736,0.00408
2573.60709,0.00438
2572.57682,0.00409
2571.54656,0.00387
2570.51629,0.00408
2569.48602,0.00423
2568.45576,0.00411
2567.42549,0.00396
2566.39522,0.00392
2565.36496,0.00410
2564.33469,0.00433
2563.30442,0.00428
2562.27415,0.00396
2561.24389,0.00357
2560.21362,0.00348
2559.18335,0.00365
2558.15309,0.00375
2557.12282,0.00392
2556.09255,0.00445
2555.06228,0.00479
2554.03202,0.00448
2553.00175,0.00399
2551.97148,0.00383
2550.94122,0.00417
2549.91095,0.00467
2548.88068,0.00473
2547.85042,0.00469
2546.82015,0.00482
2545.78988,0.00494
2544.75961,0.00504
2543.72935,0.00482
2542.69908,0.00414
2541.66881,0.00377
2540.63855,0.00410
2539.60828,0.00458
2538.57801,0.00471
2537.54774,0.00433
2536.51748,0.00402
2535.48721,0.00429
2534.45694,0.00459
2533.42668,0.00479
2532.39641,0.00504
2531.36614,0.00504
2530.33588,0.00494
2529.30561,0.00491
2528.27534,0.00448
2527.24507,0.00384
2526.21481,0.00363
2525.18454,0.00403
2524.15427,0.00472
2523.12401,0.00480
2522.09374,0.00444
2521.06347,0.00439
2520.03320,0.00431
2519.00294,0.00422
2517.97267,0.00460
2516.94240,0.00522
2515.91214,0.00550
2514.88187,0.00505
2513.85160,0.00433
2512.82134,0.00405
2511.79107,0.00426
2510.76080,0.00462
2509.73053,0.00468
2508.70027,0.00455
2507.67000,0.00466
2506.63973,0.00480
2505.60947,0.00467
2504.57920,0.00450
2503.54893,0.00472
2502.51866,0.00518
2501.48840,0.00529
2500.45813,0.00479
2499.42786,0.00421
2498.39760,0.00426
2497.36733,0.00460
2496.33706,0.00444
2495.30680,0.00401
2494.27653,0.00382
2493.24626,0.00393
2492.21599,0.00430
2491.18573,0.00459
2490.15546,0.00457
2489.12519,0.00460
2488.09493,0.00472
2487.06466,0.00454
2486.03439,0.00410
2485.00413,0.00365
2483.97386,0.00347
2482.94359,0.00355
2481.91332,0.00378
2480.88306,0.00419
2479.85279,0.00459
2478.82252,0.00494
2477.79226,0.00497
2476.76199,0.00474
2475.73172,0.00473
2474.70145,0.00487
2473.67119,0.00492
2472.64092,0.00477
2471.61065,0.00442
2470.58039,0.00412
2469.55012,0.00401
2468.51985,0.00391
2467.48959,0.00385
2466.45932,0.00415
2465.42905,0.00476
2464.39878,0.00521
2463.36852,0.00513
2462.33825,0.00476
2461.30798,0.00469
2460.27772,0.00527
2459.24745,0.00585
2458.21718,0.00594
2457.18691,0.00570
2456.15665,0.00544
2455.12638,0.00519
2454.09611,0.00485
2453.06585,0.00487
2452.03558,0.00494
2451.00531,0.00439
2449.97505,0.00408
2448.94478,0.00438
2447.91451,0.00442
2446.88424,0.00407
2445.85398,0.00387
2444.82371,0.00410
2443.79344,0.00469
2442.76318,0.00506
2441.73291,0.00496
2440.70264,0.00470
2439.67237,0.00457
2438.64211,0.00447
2437.61184,0.00426
2436.58157,0.00395
2435.55131,0.00380
2434.52104,0.00402
2433.49077,0.00419
2432.46051,0.00421
2431.43024,0.00443
2430.39997,0.00463
2429.36970,0.00497
2428.33944,0.00535
2427.30917,0.00529
2426.27890,0.00524
2425.24864,0.00559
2424.21837,0.00563
2423.18810,0.00538
2422.15784,0.00550
2421.12757,0.00571
2420.09730,0.00539
2419.06703,0.00462
2418.03677,0.00416
2417.00650,0.00430
2415.97623,0.00462
2414.94597,0.00478
2413.91570,0.00479
2412.88543,0.00494
2411.85516,0.00518
2410.82490,0.00503
2409.79463,0.00469
2408.76436,0.00468
2407.73410,0.00499
2406.70383,0.00503
2405.67356,0.00472
2404.64330,0.00493
2403.61303,0.00557
2402.58276,0.00591
2401.55249,0.00597
2400.52223,0.00581
2399.49196,0.00544
2398.46169,0.00525
2397.43143,0.00527
2396.40116,0.00509
2395.37089,0.00500
2394.34062,0.00533
2393.31036,0.00551
2392.28009,0.00540
2391.24982,0.00552
2390.21956,0.00575
2389.18929,0.00569
2388.15902,0.00552
2387.12876,0.00544
2386.09849,0.00509
2385.06822,0.00463
2384.03795,0.00464
2383.00769,0.00477
2381.97742,0.00471
2380.94715,0.00481
2379.91689,0.00510
2378.88662,0.00540
2377.85635,0.00553
2376.82608,0.00499
2375.79582,0.00413
2374.76555,0.00417
2373.73528,0.00528
2372.70502,0.00642
2371.67475,0.00658
2370.64448,0.00624
2369.61422,0.00678
2368.58395,0.00767
2367.55368,0.00734
2366.52341,0.00621
2365.49315,0.00578
2364.46288,0.00629
2363.43261,0.00689
2362.40235,0.00718
2361.37208,0.00735
2360.34181,0.00688
2359.31154,0.00532
2358.28128,0.00401
2357.25101,0.00425
2356.22074,0.00535
2355.19048,0.00588
2354.16021,0.00576
2353.12994,0.00565
2352.09968,0.00566
2351.06941,0.00573
2350.03914,0.00617
2349.00887,0.00656
2347.97861,0.00630
2346.94834,0.00604
2345.91807,0.00625
2344.88781,0.00643
2343.85754,0.00641
2342.82727,0.00615
2341.79701,0.00592
2340.76674,0.00606
2339.73647,0.00649
2338.70620,0.00668
2337.67594,0.00627
2336.64567,0.00546
2335.61540,0.00506
2334.58514,0.00541
2333.55487,0.00577
2332.52460,0.00580
2331.49433,0.00564
2330.46407,0.00562
2329.43380,0.00619
2328.40353,0.00691
2327.37327,0.00709
2326.34300,0.00669
2325.31273,0.00617
2324.28247,0.00616
2323.25220,0.00667
2322.22193,0.00694
2321.19166,0.00663
2320.16140,0.00634
2319.13113,0.00639
2318.10086,0.00648
2317.07060,0.00642
2316.04033,0.00617
2315.01006,0.00586
2313.97979,0.00540
2312.94953,0.00511
2311.91926,0.00541
2310.88899,0.00589
2309.85873,0.00641
2308.82846,0.00695
2307.79819,0.00711
2306.76793,0.00677
2305.73766,0.00646
2304.70739,0.00611
2303.67712,0.00579
2302.64686,0.00627
2301.61659,0.00720
2300.58632,0.00755
2299.55606,0.00720
2298.52579,0.00654
2297.49552,0.00616
2296.46525,0.00639
2295.43499,0.00679
2294.40472,0.00718
2293.37445,0.00763
2292.34419,0.00786
2291.31392,0.00782
2290.28365,0.00784
2289.25339,0.00756
2288.22312,0.00707
2287.19285,0.00694
2286.16258,0.00690
2285.13232,0.00707
2284.10205,0.00761
2283.07178,0.00769
2282.04152,0.00720
2281.01125,0.00695
2279.98098,0.00698
2278.95072,0.00705
2277.92045,0.00698
2276.89018,0.00659
2275.85991,0.00593
2274.82965,0.00522
2273.79938,0.00534
2272.76911,0.00628
2271.73885,0.00699
2270.70858,0.00716
2269.67831,0.00729
2268.64804,0.00736
2267.61778,0.00708
2266.58751,0.00677
2265.55724,0.00681
2264.52698,0.00723
2263.49671,0.00779
2262.46644,0.00779
2261.43618,0.00708
2260.40591,0.00655
2259.37564,0.00661
2258.34537,0.00657
2257.31511,0.00620
2256.28484,0.00596
2255.25457,0.00592
2254.22431,0.00628
2253.19404,0.00680
2252.16377,0.00661
2251.13350,0.00629
2250.10324,0.00657
2249.07297,0.00703
2248.04270,0.00755
2247.01244,0.00810
2245.98217,0.00791
2244.95190,0.00722
2243.92164,0.00735
2242.89137,0.00801
2241.86110,0.00797
2240.83083,0.00702
2239.80057,0.00610
2238.77030,0.00622
2237.74003,0.00696
2236.70977,0.00767
2235.67950,0.00816
2234.64923,0.00759
2233.61896,0.00660
2232.58870,0.00669
2231.55843,0.00760
2230.52816,0.00861
2229.49790,0.00877
2228.46763,0.00764
2227.43736,0.00641
2226.40710,0.00626
2225.37683,0.00728
2224.34656,0.00858
2223.31629,0.00914
2222.28603,0.00920
2221.25576,0.00885
2220.22549,0.00709
2219.19523,0.00515
2218.16496,0.00501
2217.13469,0.00560
2216.10442,0.00568
2215.07416,0.00624
2214.04389,0.00796
2213.01362,0.00973
2211.98336,0.01014
2210.95309,0.00954
2209.92282,0.00932
2208.89256,0.00908
2207.86229,0.00743
2206.83202,0.00569
2205.80175,0.00557
2204.77149,0.00581
2203.74122,0.00605
2202.71095,0.00638
2201.68069,0.00626
2200.65042,0.00697
2199.62015,0.00819
2198.58989,0.00812
2197.55962,0.00728
2196.52935,0.00655
2195.49908,0.00604
2194.46882,0.00580
2193.43855,0.00589
2192.40828,0.00646
2191.37802,0.00749
2190.34775,0.00857
2189.31748,0.00899
2188.28721,0.00894
2187.25695,0.00911
2186.22668,0.00967
2185.19641,0.00999
2184.16615,0.00869
2183.13588,0.00627
2182.10561,0.00487
2181.07535,0.00459
2180.04508,0.00543
2179.01481,0.00780
2177.98454,0.00950
2176.95428,0.00911
2175.92401,0.00855
2174.89374,0.00870
2173.86348,0.00867
2172.83321,0.00866
2171.80294,0.00828
2170.77267,0.00754
2169.74241,0.00676
2168.71214,0.00532
2167.68187,0.00437
2166.65161,0.00473
2165.62134,0.00551
2164.59107,0.00615
2163.56081,0.00695
2162.53054,0.00708
2161.50027,0.00556
2160.47000,0.00477
2159.43974,0.00609
2158.40947,0.00780
2157.37920,0.00814
2156.34894,0.00768
2155.31867,0.00760
2154.28840,0.00772
2153.25813,0.00808
2152.22787,0.00900
2151.19760,0.00943
2150.16733,0.00833
2149.13707,0.00731
2148.10680,0.00793
2147.07653,0.00870
2146.04627,0.00854
2145.01600,0.00929
2143.98573,0.01069
2142.95546,0.01108
2141.92520,0.01179
2140.89493,0.01266
2139.86466,0.01213
2138.83440,0.01118
2137.80413,0.01096
2136.77386,0.01163
2135.74360,0.01280
2134.71333,0.01306
2133.68306,0.01191
2132.65279,0.01137
2131.62253,0.01205
2130.59226,0.01275
2129.56199,0.01309
2128.53173,0.01238
2127.50146,0.01122
2126.47119,0.01135
2125.44092,0.01237
2124.41066,0.01285
2123.38039,0.01221
2122.35012,0.01119
2121.31986,0.01069
2120.28959,0.01089
2119.25932,0.01142
2118.22906,0.01144
2117.19879,0.01111
2116.16852,0.01138
2115.13825,0.01179
2114.10799,0.01192
2113.07772,0.01192
2112.04745,0.01116
2111.01719,0.01028
2109.98692,0.01057
2108.95665,0.01141
2107.92638,0.01164
2106.89612,0.01126
2105.86585,0.01088
2104.83558,0.01097
2103.80532,0.01144
2102.77505,0.01151
2101.74478,0.01114
2100.71452,0.01090
2099.68425,0.01100
2098.65398,0.01175
2097.62371,0.01273
2096.59345,0.01305
2095.56318,0.01253
2094.53291,0.01157
2093.50265,0.01096
2092.47238,0.01157
2091.44211,0.01297
2090.41184,0.01375
2089.38158,0.01304
2088.35131,0.01154
2087.32104,0.01110
2086.29078,0.01200
2085.26051,0.01249
2084.23024,0.01151
2083.19998,0.01012
2082.16971,0.00935
2081.13944,0.00915
2080.10917,0.00885
2079.07891,0.00830
2078.04864,0.00911
2077.01837,0.01093
2075.98811,0.01153
2074.95784,0.01166
2073.92757,0.01225
2072.89731,0.01145
2071.86704,0.00934
2070.83677,0.00857
2069.80650,0.00927
2068.77624,0.00984
2067.74597,0.00984
2066.71570,0.00916
2065.68544,0.00815
2064.65517,0.00823
2063.62490,0.00910
2062.59463,0.00946
2061.56437,0.00916
2060.53410,0.00917
2059.50383,0.01008
2058.47357,0.00997
2057.44330,0.00870
2056.41303,0.00851
2055.38277,0.00885
2054.35250,0.00897
2053.32223,0.00947
2052.29196,0.00993
2051.26170,0.00993
2050.23143,0.00972
2049.20116,0.00974
2048.17090,0.00998
2047.14063,0.01022
2046.11036,0.01023
2045.08009,0.00937
2044.04983,0.00890
2043.01956,0.01056
2041.98929,0.01297
2040.95903,0.01303
2039.92876,0.01032
2038.89849,0.00790
2037.86823,0.00774
2036.83796,0.00917
2035.80769,0.00956
2034.77742,0.00773
2033.74716,0.00658
2032.71689,0.00713
2031.68662,0.00727
2030.65636,0.00723
2029.62609,0.00821
2028.59582,0.00981
2027.56555,0.00991
2026.53529,0.00828
2025.50502,0.00708
2024.47475,0.00654
2023.44449,0.00604
2022.41422,0.00616
2021.38395,0.00750
2020.35369,0.00856
2019.32342,0.00942
2018.29315,0.01094
2017.26288,0.01050
2016.23262,0.00918
2015.20235,0.00970
2014.17208,0.00988
2013.14182,0.00881
2012.11155,0.00736
2011.08128,0.00587
2010.05101,0.00588
2009.02075,0.00745
2007.99048,0.00874
2006.96021,0.00880
2005.92995,0.00759
2004.89968,0.00687
2003.86941,0.00808
2002.83915,0.00865
2001.80888,0.00695
2000.77861,0.00598
1999.74834,0.00706
1998.71808,0.00806
1997.68781,0.00816
1996.65754,0.00846
1995.62728,0.00898
1994.59701,0.00798
1993.56674,0.00594
1992.53648,0.00566
1991.50621,0.00738
1990.47594,0.00844
1989.44567,0.00784
1988.41541,0.00757
1987.38514,0.00821
1986.35487,0.00908
1985.32461,0.01004
1984.29434,0.00949
1983.26407,0.00859
1982.23380,0.00961
1981.20354,0.01014
1980.17327,0.00835
1979.14300,0.00613
1978.11274,0.00522
1977.08247,0.00550
1976.05220,0.00632
1975.02194,0.00734
1973.99167,0.00825
1972.96140,0.00883
1971.93113,0.00856
1970.90087,0.00860
1969.87060,0.00983
1968.84033,0.00972
1967.81007,0.00928
1966.77980,0.01051
1965.74953,0.01060
1964.71926,0.00903
1963.68900,0.00760
1962.65873,0.00718
1961.62846,0.00779
1960.59820,0.00818
1959.56793,0.00833
1958.53766,0.00864
1957.50740,0.00797
1956.47713,0.00670
1955.44686,0.00641
1954.41659,0.00749
1953.38633,0.00892
1952.35606,0.00943
1951.32579,0.00939
1950.29553,0.00918
1949.26526,0.00880
1948.23499,0.00889
1947.20472,0.00944
1946.17446,0.00983
1945.14419,0.01039
1944.11392,0.01058
1943.08366,0.00921
1942.05339,0.00822
1941.02312,0.00880
1939.99286,0.00890
1938.96259,0.00863
1937.93232,0.00935
1936.90205,0.01031
1935.87179,0.01026
1934.84152,0.00955
1933.81125,0.00937
1932.78099,0.01032
1931.75072,0.01101
1930.72045,0.01070
1929.69019,0.01026
1928.65992,0.00926
1927.62965,0.00803
1926.59938,0.00837
1925.56912,0.00965
1924.53885,0.00983
1923.50858,0.00874
1922.47832,0.00775
1921.44805,0.00773
1920.41778,0.00815
1919.38751,0.00832
1918.35725,0.00842
1917.32698,0.00857
1916.29671,0.00814
1915.26645,0.00771
1914.23618,0.00786
1913.20591,0.00787
1912.17565,0.00786
1911.14538,0.00858
1910.11511,0.00937
1909.08484,0.00922
1908.05458,0.00856
1907.02431,0.00816
1905.99404,0.00759
1904.96378,0.00676
1903.93351,0.00673
1902.90324,0.00730
1901.87297,0.00739
1900.84271,0.00708
1899.81244,0.00687
1898.78217,0.00706
1897.75191,0.00723
1896.72164,0.00684
1895.69137,0.00628
1894.66111,0.00598
1893.63084,0.00598
1892.60057,0.00645
1891.57030,0.00675
1890.54004,0.00631
1889.50977,0.00619
1888.47950,0.00706
1887.44924,0.00793
1886.41897,0.00810
1885.38870,0.00773
1884.35843,0.00701
1883.32817,0.00625
1882.29790,0.00589
1881.26763,0.00583
1880.23737,0.00606
1879.20710,0.00645
1878.17683,0.00651
1877.14657,0.00645
1876.11630,0.00664
1875.08603,0.00681
1874.05576,0.00696
1873.02550,0.00735
1871.99523,0.00745
1870.96496,0.00686
1869.93470,0.00631
1868.90443,0.00658
1867.87416,0.00658
1866.84389,0.00592
1865.81363,0.00582
1864.78336,0.00624
1863.75309,0.00640
1862.72283,0.00621
1861.69256,0.00619
1860.66229,0.00639
1859.63203,0.00636
1858.60176,0.00625
1857.57149,0.00613
1856.54122,0.00577
1855.51096,0.00564
1854.48069,0.00608
1853.45042,0.00670
1852.42016,0.00705
1851.38989,0.00681
1850.35962,0.00626
1849.32936,0.00623
1848.29909,0.00651
1847.26882,0.00626
1846.23855,0.00596
1845.20829,0.00600
1844.17802,0.00603
1843.14775,0.00604
1842.11749,0.00620
1841.08722,0.00659
1840.05695,0.00689
1839.02668,0.00663
1837.99642,0.00621
1836.96615,0.00636
1835.93588,0.00669
1834.90562,0.00667
1833.87535,0.00655
1832.84508,0.00649
1831.81482,0.00635
1830.78455,0.00652
1829.75428,0.00681
1828.72401,0.00671
1827.69375,0.00659
1826.66348,0.00643
1825.63321,0.00627
1824.60295,0.00645
1823.57268,0.00675
1822.54241,0.00710
1821.51214,0.00740
1820.48188,0.00732
1819.45161,0.00705
1818.42134,0.00704
1817.39108,0.00734
1816.36081,0.00758
1815.33054,0.00748
1814.30028,0.00717
1813.27001,0.00696
1812.23974,0.00709
1811.20947,0.00752
1810.17921,0.00769
1809.14894,0.00735
1808.11867,0.00718
1807.08841,0.00747
1806.05814,0.00785
1805.02787,0.00801
1803.99760,0.00803
1802.96734,0.00808
1801.93707,0.00806
1800.90680,0.00787
1799.87654,0.00775
1798.84627,0.00814
1797.81600,0.00877
1796.78574,0.00897
1795.75547,0.00874
1794.72520,0.00852
1793.69493,0.00828
1792.66467,0.00796
1791.63440,0.00827
1790.60413,0.00921
1789.57387,0.00978
1788.54360,0.00974
1787.51333,0.00943
1786.48307,0.00908
1785.45280,0.00892
1784.42253,0.00899
1783.39226,0.00910
1782.36200,0.00909
1781.33173,0.00918
1780.30146,0.00953
1779.27120,0.00984
1778.24093,0.00988
1777.21066,0.00987
1776.18039,0.01008
1775.15013,0.01026
1774.11986,0.01017
1773.08959,0.00995
1772.05933,0.00983
1771.02906,0.00988
1769.99879,0.00993
1768.96853,0.01006
1767.93826,0.01039
1766.90799,0.01070
1765.87772,0.01069
1764.84746,0.01056
1763.81719,0.01068
1762.78692,0.01096
1761.75666,0.01119
1760.72639,0.01154
1759.69612,0.01199
1758.66585,0.01211
1757.63559,0.01180
1756.60532,0.01137
1755.57505,0.01124
1754.54479,0.01144
1753.51452,0.01174
1752.48425,0.01195
1751.45399,0.01199
1750.42372,0.01207
1749.39345,0.01240
1748.36318,0.01274
1747.33292,0.01292
1746.30265,0.01319
1745.27238,0.01350
1744.24212,0.01358
1743.21185,0.01370
1742.18158,0.01401
1741.15131,0.01422
1740.12105,0.01426
1739.09078,0.01448
1738.06051,0.01485
1737.03025,0.01511
1735.99998,0.01516
1734.96971,0.01499
1733.93945,0.01502
1732.90918,0.01545
1731.87891,0.01576
1730.84864,0.01596
1729.81838,0.01612
1728.78811,0.01636
1727.75784,0.01672
1726.72758,0.01714
1725.69731,0.01768
1724.66704,0.01835
1723.63677,0.01898
1722.60651,0.01945
1721.57624,0.01968
1720.54597,0.01982
1719.51571,0.02018
1718.48544,0.02062
1717.45517,0.02114
1716.42491,0.02171
1715.39464,0.02222
1714.36437,0.02288
1713.33410,0.02352
1712.30384,0.02394
1711.27357,0.02435
1710.24330,0.02487
1709.21304,0.02559
1708.18277,0.02652
1707.15250,0.02765
1706.12224,0.02877
1705.09197,0.02939
1704.06170,0.02984
1703.03143,0.03049
1702.00117,0.03104
1700.97090,0.03164
1699.94063,0.03301
1698.91037,0.03439
1697.88010,0.03539
1696.84983,0.03635
1695.81956,0.03751
1694.78930,0.03861
1693.75903,0.03950
1692.72876,0.04074
1691.69850,0.04234
1690.66823,0.04398
1689.63796,0.04534
1688.60770,0.04645
1687.57743,0.04759
1686.54716,0.04889
1685.51689,0.05048
1684.48663,0.05271
1683.45636,0.05473
1682.42609,0.05598
1681.39583,0.05721
1680.36556,0.05885
1679.33529,0.06091
1678.30502,0.06271
1677.27476,0.06406
1676.24449,0.06540
1675.21422,0.06741
1674.18396,0.06974
1673.15369,0.07165
1672.12342,0.07354
1671.09316,0.07547
1670.06289,0.07706
1669.03262,0.07872
1668.00235,0.08086
1666.97209,0.08317
1665.94182,0.08535
1664.91155,0.08711
1663.88129,0.08864
1662.85102,0.09031
1661.82075,0.09209
1660.79048,0.09390
1659.76022,0.09562
1658.72995,0.09718
1657.69968,0.09882
1656.66942,0.10046
1655.63915,0.10189
1654.60888,0.10310
1653.57862,0.10393
1652.54835,0.10496
1651.51808,0.10648
1650.48781,0.10767
1649.45755,0.10860
1648.42728,0.10943
1647.39701,0.10996
1646.36675,0.11036
1645.33648,0.11064
1644.30621,0.11077
1643.27595,0.11068
1642.24568,0.11039
1641.21541,0.10993
1640.18514,0.10948
1639.15488,0.10902
1638.12461,0.10826
1637.09434,0.10760
1636.06408,0.10701
1635.03381,0.10516
1634.00354,0.10342
1632.97327,0.10248
1631.94301,0.10114
1630.91274,0.09950
1629.88247,0.09827
1628.85221,0.09716
1627.82194,0.09508
1626.79167,0.09244
1625.76141,0.09067
1624.73114,0.08939
1623.70087,0.08724
1622.67060,0.08418
1621.64034,0.08173
1620.61007,0.07966
1619.57980,0.07761
1618.54954,0.07570
1617.51927,0.07345
1616.48900,0.07014
1615.45873,0.06762
1614.42847,0.06610
1613.39820,0.06443
1612.36793,0.06249
1611.33767,0.06048
1610.30740,0.05861
1609.27713,0.05693
1608.24687,0.05543
1607.21660,0.05398
1606.18633,0.05256
1605.15606,0.05114
1604.12580,0.04971
1603.09553,0.04840
1602.06526,0.04717
1601.03500,0.04588
1600.00473,0.04474
1598.97446,0.04378
1597.94419,0.04272
1596.91393,0.04163
1595.88366,0.04060
1594.85339,0.03963
1593.82313,0.03872
1592.79286,0.03800
1591.76259,0.03730
1590.73233,0.03654
1589.70206,0.03593
1588.67179,0.03540
1587.64152,0.03487
1586.61126,0.03424
1585.58099,0.03352
1584.55072,0.03293
1583.52046,0.03235
1582.49019,0.03171
1581.45992,0.03118
1580.42966,0.03060
1579.39939,0.03006
1578.36912,0.02977
1577.33885,0.02963
1576.30859,0.02935
1575.27832,0.02893
1574.24805,0.02857
1573.21779,0.02807
1572.18752,0.02758
1571.15725,0.02738
1570.12698,0.02714
1569.09672,0.02662
1568.06645,0.02631
1567.03618,0.02620
1566.00592,0.02598
1564.97565,0.02575
1563.94538,0.02576
1562.91512,0.02571
1561.88485,0.02550
1560.85458,0.02532
1559.82431,0.02505
1558.79405,0.02472
1557.76378,0.02442
1556.73351,0.02421
1555.70325,0.02408
1554.67298,0.02386
1553.64271,0.02361
1552.61244,0.02363
1551.58218,0.02363
1550.55191,0.02341
1549.52164,0.02329
1548.49138,0.02327
1547.46111,0.02304
1546.43084,0.02264
1545.40058,0.02226
1544.37031,0.02207
1543.34004,0.02217
1542.30977,0.02241
1541.27951,0.02252
1540.24924,0.02235
1539.21897,0.02192
1538.18871,0.02165
1537.15844,0.02159
1536.12817,0.02160
1535.09790,0.02170
1534.06764,0.02182
1533.03737,0.02192
1532.00710,0.02216
1530.97684,0.02241
1529.94657,0.02248
1528.91630,0.02215
1527.88604,0.02186
1526.85577,0.02226
1525.82550,0.02274
1524.79523,0.02269
1523.76497,0.02239
1522.73470,0.02200
1521.70443,0.02173
1520.67417,0.02207
1519.64390,0.02259
1518.61363,0.02274
1517.58336,0.02254
1516.55310,0.02237
1515.52283,0.02256
1514.49256,0.02269
1513.46230,0.02248
1512.43203,0.02225
1511.40176,0.02233
1510.37150,0.02263
1509.34123,0.02291
1508.31096,0.02288
1507.28069,0.02247
1506.25043,0.02226
1505.22016,0.02272
1504.18989,0.02321
1503.15963,0.02339
1502.12936,0.02338
1501.09909,0.02368
1500.06883,0.02419
1499.03856,0.02463
1498.00829,0.02515
1496.97802,0.02566
1495.94776,0.02625
1494.91749,0.02706
1493.88722,0.02813
1492.85696,0.02933
1491.82669,0.03040
1490.79642,0.03143
1489.76615,0.03248
1488.73589,0.03346
1487.70562,0.03454
1486.67535,0.03578
1485.64509,0.03682
1484.61482,0.03770
1483.58455,0.03873
1482.55429,0.04007
1481.52402,0.04171
1480.49375,0.04391
1479.46348,0.04674
1478.43322,0.05002
1477.40295,0.05347
1476.37268,0.05728
1475.34242,0.06090
1474.31215,0.06352
1473.28188,0.06552
1472.25161,0.06697
1471.22135,0.06788
1470.19108,0.06843
1469.16081,0.06856
1468.13055,0.06837
1467.10028,0.06844
1466.07001,0.06887
1465.03975,0.06944
1464.00948,0.07011
1462.97921,0.07084
1461.94894,0.07165
1460.91868,0.07248
1459.88841,0.07309
1458.85814,0.07365
1457.82788,0.07449
1456.79761,0.07517
1455.76734,0.07541
1454.73707,0.07528
1453.70681,0.07465
1452.67654,0.07336
1451.64627,0.07144
1450.61601,0.06927
1449.58574,0.06721
1448.55547,0.06520
1447.52521,0.06322
1446.49494,0.06178
1445.46467,0.06056
1444.43440,0.05921
1443.40414,0.05787
1442.37387,0.05647
1441.34360,0.05480
1440.31334,0.05275
1439.28307,0.05059
1438.25280,0.04879
1437.22254,0.04700
1436.19227,0.04463
1435.16200,0.04284
1434.13173,0.04188
1433.10147,0.04123
1432.07120,0.04064
1431.04093,0.04004
1430.01067,0.03933
1428.98040,0.03871
1427.95013,0.03854
1426.91986,0.03857
1425.88960,0.03843
1424.85933,0.03807
1423.82906,0.03774
1422.79880,0.03761
1421.76853,0.03747
1420.73826,0.03732
1419.70800,0.03720
1418.67773,0.03736
1417.64746,0.03767
1416.61719,0.03763
1415.58693,0.03733
1414.55666,0.03715
1413.52639,0.03716
1412.49613,0.03722
1411.46586,0.03724
1410.43559,0.03729
1409.40532,0.03730
1408.37506,0.03714
1407.34479,0.03703
1406.31452,0.03714
1405.28426,0.03721
1404.25399,0.03702
1403.22372,0.03683
1402.19346,0.03681
1401.16319,0.03683
1400.13292,0.03681
1399.10265,0.03692
1398.07239,0.03735
1397.04212,0.03784
1396.01185,0.03800
1394.98159,0.03792
1393.95132,0.03794
1392.92105,0.03798
1391.89078,0.03790
1390.86052,0.03790
1389.83025,0.03806
1388.79998,0.03829
1387.76972,0.03855
1386.73945,0.03884
1385.70918,0.03926
1384.67892,0.03973
1383.64865,0.03993
1382.61838,0.03999
1381.58811,0.04030
1380.55785,0.04087
1379.52758,0.04152
1378.49731,0.04213
1377.46705,0.04267
1376.43678,0.04313
1375.40651,0.04379
1374.37624,0.04475
1373.34598,0.04570
1372.31571,0.04665
1371.28544,0.04780
1370.25518,0.04893
1369.22491,0.05007
1368.19464,0.05163
1367.16438,0.05353
1366.13411,0.05550
1365.10384,0.05754
1364.07357,0.05975
1363.04331,0.06235
1362.01304,0.06527
1360.98277,0.06823
1359.95251,0.07136
1358.92224,0.07485
1357.89197,0.07886
1356.86171,0.08311
1355.83144,0.08749
1354.80117,0.09206
1353.77090,0.09675
1352.74064,0.10148
1351.71037,0.10586
1350.68010,0.10951
1349.64984,0.11214
1348.61957,0.11290
1347.58930,0.11069
1346.55903,0.10488
1345.52877,0.09587
1344.49850,0.08518
1343.46823,0.07484
1342.43797,0.06653
1341.40770,0.06065
1340.37743,0.05663
1339.34717,0.05405
1338.31690,0.05266
1337.28663,0.05204
1336.25636,0.05175
1335.22610,0.05177
1334.19583,0.05212
1333.16556,0.05251
1332.13530,0.05285
1331.10503,0.05316
1330.07476,0.05332
1329.04449,0.05315
1328.01423,0.05259
1326.98396,0.05170
1325.95369,0.05058
1324.92343,0.04946
1323.89316,0.04846
1322.86289,0.04762
1321.83263,0.04712
1320.80236,0.04688
1319.77209,0.04689
1318.74182,0.04732
1317.71156,0.04788
1316.68129,0.04870
1315.65102,0.05002
1314.62076,0.05155
1313.59049,0.05327
1312.56022,0.05538
1311.52995,0.05766
1310.49969,0.05995
1309.46942,0.06234
1308.43915,0.06471
1307.40889,0.06685
1306.37862,0.06870
1305.34835,0.07049
1304.31809,0.07233
1303.28782,0.07374
1302.25755,0.07458
1301.22728,0.07519
1300.19702,0.07560
1299.16675,0.07580
1298.13648,0.07598
1297.10622,0.07611
1296.07595,0.07617
1295.04568,0.07629
1294.01542,0.07646
1292.98515,0.07649
1291.95488,0.07644
1290.92461,0.07632
1289.89435,0.07609
1288.86408,0.07572
1287.83381,0.07527
1286.80355,0.07484
1285.77328,0.07441
1284.74301,0.07384
1283.71274,0.07282
1282.68248,0.07147
1281.65221,0.07031
1280.62194,0.06934
1279.59168,0.06818
1278.56141,0.06669
1277.53114,0.06503
1276.50088,0.06354
1275.47061,0.06233
1274.44034,0.06140
1273.41007,0.06075
1272.37981,0.06012
1271.34954,0.05944
1270.31927,0.05901
1269.28901,0.05906
1268.25874,0.05952
1267.22847,0.06026
1266.19820,0.06126
1265.16794,0.06253
1264.13767,0.06402
1263.10740,0.06573
1262.07714,0.06791
1261.04687,0.07049
1260.01660,0.07308
1258.98634,0.07551
1257.95607,0.07787
1256.92580,0.08032
1255.89553,0.08284
1254.86527,0.08509
1253.83500,0.08697
1252.80473,0.08849
1251.77447,0.08955
1250.74420,0.09021
1249.71393,0.09042
1248.68366,0.08996
1247.65340,0.08874
1246.62313,0.08710
1245.59286,0.08518
1244.56260,0.08287
1243.53233,0.08017
1242.50206,0.07744
1241.47180,0.07511
1240.44153,0.07290
1239.41126,0.07052
1238.38099,0.06813
1237.35073,0.06580
1236.32046,0.06345
1235.29019,0.06125
1234.25993,0.05934
1233.22966,0.05750
1232.19939,0.05557
1231.16912,0.05356
1230.13886,0.05163
1229.10859,0.05002
1228.07832,0.04876
1227.04806,0.04788
1226.01779,0.04711
1224.98752,0.04624
1223.95726,0.04546
1222.92699,0.04473
1221.89672,0.04402
1220.86645,0.04338
1219.83619,0.04262
1218.80592,0.04173
1217.77565,0.04102
1216.74539,0.04053
1215.71512,0.03997
1214.68485,0.03927
1213.65459,0.03857
1212.62432,0.03804
1211.59405,0.03777
1210.56378,0.03766
1209.53352,0.03746
1208.50325,0.03712
1207.47298,0.03687
1206.44272,0.03671
1205.41245,0.03647
1204.38218,0.03624
1203.35191,0.03609
1202.32165,0.03593
1201.29138,0.03580
1200.26111,0.03588
1199.23085,0.03604
1198.20058,0.03597
1197.17031,0.03572
1196.14005,0.03564
1195.10978,0.03575
1194.07951,0.03579
1193.04924,0.03585
1192.01898,0.03607
1190.98871,0.03632
1189.95844,0.03661
1188.92818,0.03689
1187.89791,0.03688
1186.86764,0.03682
1185.83737,0.03709
1184.80711,0.03767
1183.77684,0.03821
1182.74657,0.03850
1181.71631,0.03862
1180.68604,0.03880
1179.65577,0.03913
1178.62551,0.03964
1177.59524,0.04037
1176.56497,0.04122
1175.53470,0.04197
1174.50444,0.04252
1173.47417,0.04304
1172.44390,0.04397
1171.41364,0.04517
1170.38337,0.04628
1169.35310,0.04738
1168.32283,0.04855
1167.29257,0.04981
1166.26230,0.05143
1165.23203,0.05347
1164.20177,0.05576
1163.17150,0.05841
1162.14123,0.06149
1161.11097,0.06494
1160.08070,0.06876
1159.05043,0.07276
1158.02016,0.07686
1156.98990,0.08147
1155.95963,0.08688
1154.92936,0.09267
1153.89910,0.09861
1152.86883,0.10479
1151.83856,0.11122
1150.80830,0.11777
1149.77803,0.12415
1148.74776,0.13056
1147.71749,0.13759
1146.68723,0.14460
1145.65696,0.15085
1144.62669,0.15700
1143.59643,0.16351
1142.56616,0.16974
1141.53589,0.17521
1140.50562,0.18009
1139.47536,0.18461
1138.44509,0.18879
1137.41482,0.19261
1136.38456,0.19630
1135.35429,0.19988
1134.32402,0.20309
1133.29376,0.20595
1132.26349,0.20873
1131.23322,0.21165
1130.20295,0.21480
1129.17269,0.21806
1128.14242,0.22122
1127.11215,0.22465
1126.08189,0.22856
1125.05162,0.23258
1124.02135,0.23691
1122.99108,0.24190
1121.96082,0.24694
1120.93055,0.25157
1119.90028,0.25655
1118.87002,0.26233
1117.83975,0.26836
1116.80948,0.27424
1115.77922,0.27996
1114.74895,0.28528
1113.71868,0.29076
1112.68841,0.29682
1111.65815,0.30295
1110.62788,0.30909
1109.59761,0.31510
1108.56735,0.32077
1107.53708,0.32666
1106.50681,0.33320
1105.47654,0.34009
1104.44628,0.34701
1103.41601,0.35375
1102.38574,0.36042
1101.35548,0.36735
1100.32521,0.37423
1099.29494,0.38088
1098.26468,0.38742
1097.23441,0.39327
1096.20414,0.39847
1095.17387,0.40374
1094.14361,0.40902
1093.11334,0.41425
1092.08307,0.41895
1091.05281,0.42254
1090.02254,0.42541
1088.99227,0.42771
1087.96201,0.42965
1086.93174,0.43151
1085.90147,0.43317
1084.87120,0.43417
1083.84094,0.43412
1082.81067,0.43337
1081.78040,0.43225
1080.75014,0.43073
1079.71987,0.42868
1078.68960,0.42592
1077.65933,0.42326
1076.62907,0.42124
1075.59880,0.41904
1074.56853,0.41585
1073.53827,0.41170
1072.50800,0.40736
1071.47773,0.40336
1070.44747,0.39924
1069.41720,0.39469
1068.38693,0.39008
1067.35666,0.38544
1066.32640,0.38002
1065.29613,0.37345
1064.26586,0.36601
1063.23560,0.35782
1062.20533,0.34905
1061.17506,0.33983
1060.14479,0.33003
1059.11453,0.31938
1058.08426,0.30786
1057.05399,0.29575
1056.02373,0.28368
1054.99346,0.27233
1053.96319,0.26174
1052.93293,0.25123
1051.90266,0.24062
1050.87239,0.23080
1049.84212,0.22225
1048.81186,0.21484
1047.78159,0.20856
1046.75132,0.20309
1045.72106,0.19845
1044.69079,0.19520
1043.66052,0.19315
1042.63025,0.19145
1041.59999,0.18983
1040.56972,0.18885
1039.53945,0.18826
1038.50919,0.18728
1037.47892,0.18603
1036.44865,0.18476
1035.41839,0.18336
1034.38812,0.18172
1033.35785,0.17982
1032.32758,0.17790
1031.29732,0.17593
1030.26705,0.17332
1029.23678,0.16975
1028.20652,0.16565
1027.17625,0.16153
1026.14598,0.15729
1025.11571,0.15282
1024.08545,0.14818
1023.05518,0.14323
1022.02491,0.13792
1020.99465,0.13239
1019.96438,0.12717
1018.93411,0.12284
1017.90385,0.11901
1016.87358,0.11505
1015.84331,0.11097
1014.81304,0.10703
1013.78278,0.10350
1012.75251,0.10029
1011.72224,0.09743
1010.69198,0.09530
1009.66171,0.09356
1008.63144,0.09173
1007.60118,0.09001
1006.57091,0.08867
1005.54064,0.08760
1004.51037,0.08670
1003.48011,0.08600
1002.44984,0.08526
1001.41957,0.08460
1000.38931,0.08430
999.35904,0.08411
998.32877,0.08385
997.29850,0.08355
996.26824,0.08312
995.23797,0.08270
994.20770,0.08241
993.17744,0.08187
992.14717,0.08126
991.11690,0.08097
990.08664,0.08068
989.05637,0.08015
988.02610,0.07935
986.99583,0.07826
985.96557,0.07709
984.93530,0.07604
983.90503,0.07504
982.87477,0.07407
981.84450,0.07329
980.81423,0.07276
979.78396,0.07232
978.75370,0.07187
977.72343,0.07143
976.69316,0.07101
975.66290,0.07065
974.63263,0.07069
973.60236,0.07117
972.57210,0.07158
971.54183,0.07205
970.51156,0.07316
969.48129,0.07485
968.45103,0.07668
967.42076,0.07863
966.39049,0.08107
965.36023,0.08397
964.32996,0.08732
963.29969,0.09165
962.26942,0.09702
961.23916,0.10265
960.20889,0.10825
959.17862,0.11446
958.14836,0.12159
957.11809,0.12887
956.08782,0.13590
955.05756,0.14285
954.02729,0.14944
952.99702,0.15557
951.96675,0.16119
950.93649,0.16584
949.90622,0.16930
948.87595,0.17188
947.84569,0.17365
946.81542,0.17454
945.78515,0.17466
944.75489,0.17413
943.72462,0.17302
942.69435,0.17125
941.66408,0.16884
940.63382,0.16621
939.60355,0.16370
938.57328,0.16134
937.54302,0.15901
936.51275,0.15670
935.48248,0.15394
934.45221,0.15061
933.42195,0.14735
932.39168,0.14445
931.36141,0.14168
930.33115,0.13877
929.30088,0.13585
928.27061,0.13312
927.24035,0.13061
926.21008,0.12859
925.17981,0.12704
924.14954,0.12551
923.11928,0.12375
922.08901,0.12172
921.05874,0.11965
920.02848,0.11799
918.99821,0.11650
917.96794,0.11485
916.93767,0.11340
915.90741,0.11230
914.87714,0.11102
913.84687,0.10928
912.81661,0.10761
911.78634,0.10605
910.75607,0.10410
909.72581,0.10204
908.69554,0.10031
907.66527,0.09894
906.63500,0.09774
905.60474,0.09638
904.57447,0.09492
903.54420,0.09369
902.51394,0.09282
901.48367,0.09236
900.45340,0.09202
899.42313,0.09149
898.39287,0.09126
897.36260,0.09193
896.33233,0.09326
895.30207,0.09460
894.27180,0.09591
893.24153,0.09763
892.21127,0.09973
891.18100,0.10206
890.15073,0.10430
889.12046,0.10619
888.09020,0.10799
887.05993,0.10955
886.02966,0.11042
884.99940,0.11063
883.96913,0.11050
882.93886,0.11033
881.90859,0.11020
880.87833,0.10989
879.84806,0.10898
878.81779,0.10752
877.78753,0.10613
876.75726,0.10517
875.72699,0.10486
874.69673,0.10500
873.66646,0.10515
872.63619,0.10568
871.60592,0.10669
870.57566,0.10771
869.54539,0.10871
868.51512,0.10964
867.48486,0.11060
866.45459,0.11178
865.42432,0.11280
864.39406,0.11335
863.36379,0.11375
862.33352,0.11432
861.30325,0.11539
860.27299,0.11724
859.24272,0.11933
858.21245,0.12121
857.18219,0.12298
856.15192,0.12458
855.12165,0.12603
854.09138,0.12790
853.06112,0.13036
852.03085,0.13288
851.00058,0.13511
849.97032,0.13737
848.94005,0.14003
847.90978,0.14269
846.87952,0.14446
845.84925,0.14526
844.81898,0.14610
843.78871,0.14749
842.75845,0.14920
841.72818,0.15115
840.69791,0.15289
839.66765,0.15406
838.63738,0.15521
837.60711,0.15625
836.57684,0.15678
835.54658,0.15698
834.51631,0.15660
833.48604,0.15594
832.45578,0.15577
831.42551,0.15590
830.39524,0.15560
829.36498,0.15463
828.33471,0.15352
827.30444,0.15255
826.27417,0.15174
825.24391,0.15077
824.21364,0.14975
823.18337,0.14921
822.15311,0.14894
821.12284,0.14875
820.09257,0.14860
819.06230,0.14854
818.03204,0.14887
817.00177,0.14925
815.97150,0.14906
814.94124,0.14857
813.91097,0.14839
812.88070,0.14865
811.85044,0.14929
810.82017,0.14990
809.78990,0.15021
808.75963,0.15039
807.72937,0.15086
806.69910,0.15170
805.66883,0.15224
804.63857,0.15205
803.60830,0.15187
802.57803,0.15234
801.54777,0.15282
800.51750,0.15280
799.48723,0.15248
798.45696,0.15207
797.42670,0.15194
796.39643,0.15234
795.36616,0.15305
794.33590,0.15384
793.30563,0.15507
792.27536,0.15636
791.24509,0.15683
790.21483,0.15696
789.18456,0.15731
788.15429,0.15794
787.12403,0.15871
786.09376,0.15936
785.06349,0.15976
784.03323,0.16033
783.00296,0.16142
781.97269,0.16248
780.94242,0.16341
779.91216,0.16453
778.88189,0.16530
777.85162,0.16551
776.82136,0.16581
775.79109,0.16641
774.76082,0.16696
773.73055,0.16762
772.70029,0.16849
771.67002,0.16882
770.63975,0.16894
769.60949,0.17016
768.57922,0.17238
767.54895,0.17446
766.51869,0.17595
765.48842,0.17703
764.45815,0.17775
763.42788,0.17844
762.39762,0.17956
761.36735,0.18084
760.33708,0.18189
759.30682,0.18271
758.27655,0.18353
757.24628,0.18448
756.21601,0.18554
755.18575,0.18678
754.15548,0.18789
753.12521,0.18914
752.09495,0.19087
751.06468,0.19230
750.03441,0.19353
749.00415,0.19509
747.97388,0.19641
746.94361,0.19673
745.91334,0.19662
744.88308,0.19751
743.85281,0.19940
742.82254,0.20117
741.79228,0.20237
740.76201,0.20403
739.73174,0.20634
738.70147,0.20764
737.67121,0.20769
736.64094,0.20771
735.61067,0.20861
734.58041,0.21077
733.55014,0.21340
732.51987,0.21484
731.48961,0.21526
730.45934,0.21624
729.42907,0.21780
728.39880,0.21924
727.36854,0.22070
726.33827,0.22239
725.30800,0.22388
724.27774,0.22504
723.24747,0.22618
722.21720,0.22732
721.18694,0.22839
720.15667,0.22926
719.12640,0.23030
718.09613,0.23193
717.06587,0.23338
716.03560,0.23386
715.00533,0.23417
713.97507,0.23511
712.94480,0.23646
711.91453,0.23785
710.88426,0.23899
709.85400,0.24021
708.82373,0.24182
707.79346,0.24319
706.76320,0.24414
705.73293,0.24502
704.70266,0.24600
703.67240,0.24717
702.64213,0.24834
701.61186,0.24943
700.58159,0.25063
699.55133,0.25174
698.52106,0.25255
697.49079,0.25338
696.46053,0.25475
695.43026,0.25671
694.39999,0.25833
693.36972,0.25919
692.33946,0.26084
691.30919,0.26306
690.27892,0.26448
689.24866,0.26515
688.21839,0.26524
687.18812,0.26565
686.15786,0.26663
685.12759,0.26750
684.09732,0.26844
683.06705,0.26935
682.03679,0.27005
681.00652,0.27135
679.97625,0.27329
678.94599,0.27524
677.91572,0.27671
676.88545,0.27754
675.85518,0.27825
674.82492,0.27898
673.79465,0.27995
672.76438,0.28176
671.73412,0.28348
670.70385,0.28408
669.67358,0.28481
668.64332,0.28585
667.61305,0.28477
666.58278,0.28609
665.55251,0.28914
664.52225,0.29075
663.49198,0.29066
662.46171,0.29089
661.43145,0.29194
660.40118,0.29272
659.37091,0.29349
658.34065,0.29490
657.31038,0.29598
656.28011,0.29616
655.24984,0.29645
654.21958,0.29711
653.18931,0.29786
652.15904,0.29954
651.12878,0.30211
650.09851,0.30430
649.06824,0.30532
648.03797,0.30520
647.00771,0.30515
645.97744,0.30621
644.94717,0.30748
643.91691,0.30787
642.88664,0.30814
641.85637,0.30928
640.82611,0.31088
639.79584,0.31201
638.76557,0.31281
637.73530,0.31351
636.70504,0.31359
635.67477,0.31402
634.64450,0.31564
633.61424,0.31672
632.58397,0.31735
631.55370,0.31907
630.52343,0.32003
629.49317,0.31930
628.46290,0.31918
627.43263,0.32013
626.40237,0.32061
625.37210,0.32118
624.34183,0.32269
623.31157,0.32408
622.28130,0.32567
621.25103,0.32806
620.22076,0.33024
619.19050,0.33125
618.16023,0.33075
617.12996,0.32978
616.09970,0.32997
615.06943,0.33137
614.03916,0.33308
613.00889,0.33430
611.97863,0.33474
610.94836,0.33481
609.91809,0.33501
608.88783,0.33506
607.85756,0.33491
606.82729,0.33622
605.79703,0.33970
604.76676,0.34219
603.73649,0.34127
602.70622,0.34009
601.67596,0.34174
600.64569,0.34346
599.61542,0.34311
598.58516,0.34347
597.55489,0.34504
596.52462,0.34586
595.49436,0.34660
594.46409,0.34787
593.43382,0.34893
592.40355,0.34993
591.37329,0.35165
590.34302,0.35321
589.31275,0.35330
588.28249,0.35313
587.25222,0.35453
586.22195,0.35644
585.19168,0.35640
584.16142,0.35552
583.13115,0.35688
582.10088,0.35933
581.07062,0.36031
580.04035,0.36113
579.01008,0.36234
577.97982,0.36246
576.94955,0.36241
575.91928,0.36271
574.88901,0.36302
573.85875,0.36415
572.82848,0.36564
571.79821,0.36641
570.76795,0.36587
569.73768,0.36488
568.70741,0.36500
567.67714,0.36559
566.64688,0.36592
565.61661,0.36775
564.58634,0.37071
563.55608,0.37130
562.52581,0.37080
561.49554,0.37280
560.46528,0.37552
559.43501,0.37558
558.40474,0.37397
557.37447,0.37349
556.34421,0.37397
555.31394,0.37494
554.28367,0.37708
553.25341,0.37937
552.22314,0.38052
551.19287,0.38086
550.16260,0.38089
549.13234,0.38164
548.10207,0.38263
547.07180,0.38207
546.04154,0.38093
545.01127,0.38068
543.98100,0.38183
542.95074,0.38386
541.92047,0.38600
540.89020,0.38933
539.85993,0.39178
538.82967,0.38989
537.79940,0.38711
536.76913,0.38710
535.73887,0.38793
534.70860,0.38822
533.67833,0.38892
532.64806,0.39035
531.61780,0.39136
530.58753,0.39143
529.55726,0.39210
528.52700,0.39410
527.49673,0.39562
526.46646,0.39551
525.43620,0.39488
524.40593,0.39523
523.37566,0.39646
522.34539,0.39794
521.31513,0.39916
520.28486,0.40007
519.25459,0.40207
518.22433,0.40364
517.19406,0.40123
516.16379,0.39815
515.13353,0.39962
514.10326,0.40291
513.07299,0.40445
512.04272,0.40487
511.01246,0.40382
509.98219,0.40152
508.95192,0.40028
507.92166,0.40007
506.89139,0.40074
505.86112,0.40258
504.83085,0.40396
503.80059,0.40456
502.77032,0.40405
501.74005,0.40221
500.70979,0.39993
499.67952,0.39847
498.64925,0.40093
497.61899,0.40569
496.58872,0.40635
495.55845,0.40187
494.52818,0.39795
493.49792,0.39808
492.46765,0.40139
491.43738,0.40545
490.40712,0.40510
489.37685,0.40065
488.34658,0.39859
487.31631,0.39920
486.28605,0.39924
485.25578,0.40003
484.22551,0.40189
483.19525,0.40110
482.16498,0.39818
481.13471,0.39683
480.10445,0.39559
479.07418,0.39503
478.04391,0.39618
477.01364,0.39475
475.98338,0.39289
474.95311,0.39326
473.92284,0.39235
472.89258,0.38978
471.86231,0.38797
470.83204,0.38904
469.80177,0.39322
468.77151,0.39827
467.74124,0.39994
466.71097,0.39718
465.68071,0.39432
464.65044,0.39326
463.62017,0.39350
462.58991,0.39486
461.55964,0.39493
460.52937,0.39439
459.49910,0.39667
458.46884,0.39978
457.43857,0.39721
456.40830,0.39142
455.37804,0.39074
454.34777,0.39180
453.31750,0.38973
452.28724,0.38788
451.25697,0.38870
450.22670,0.38968
449.19643,0.38931
448.16617,0.38964
447.13590,0.39234
446.10563,0.39435
445.07537,0.39488
444.04510,0.39587
443.01483,0.39507
441.98456,0.39335
440.95430,0.39470
439.92403,0.39789
438.89376,0.40054
437.86350,0.40171
436.83323,0.39813
435.80296,0.39194
434.77270,0.38909
433.74243,0.38627
432.71216,0.38119
431.68189,0.37783
430.65163,0.38031
429.62136,0.38588
428.59109,0.38719
427.56083,0.38472
426.53056,0.38444
425.50029,0.38578
424.47002,0.38089
423.43976,0.37030
422.40949,0.36772
421.37922,0.37425
420.34896,0.37778
419.31869,0.37649
418.28842,0.37707
417.25816,0.38160
416.22789,0.38600
415.19762,0.38827
414.16735,0.38793
413.13709,0.38526
412.10682,0.38194
411.07655,0.38014
410.04629,0.38111
409.01602,0.38050
407.98575,0.37799
406.95548,0.38140
405.92522,0.38761
404.89495,0.38802
403.86468,0.38547
402.83442,0.38033
401.80415,0.37463
400.77388,0.37633
399.74362,0.38474
