3997.40043,0.00279
3995.33991,0.00305
3993.27940,0.00300
3991.21888,0.00285
3989.15837,0.00259
3987.09785,0.00216
3985.03734,0.00207
3982.97682,0.00243
3980.91630,0.00270
3978.85579,0.00271
3976.79527,0.00240
3974.73476,0.00209
3972.67424,0.00211
3970.61373,0.00231
3968.55321,0.00252
3966.49269,0.00265
3964.43218,0.00273
3962.37166,0.00270
3960.31115,0.00260
3958.25063,0.00276
3956.19012,0.00300
3954.12960,0.00284
3952.06908,0.00234
3950.00857,0.00204
3947.94805,0.00218
3945.88754,0.00253
3943.82702,0.00273
3941.76651,0.00254
3939.70599,0.00242
3937.64547,0.00261
3935.58496,0.00239
3933.52444,0.00172
3931.46393,0.00124
3929.40341,0.00100
3927.34290,0.00072
3925.28238,0.00056
3923.22186,0.00082
3921.16135,0.00120
3919.10083,0.00152
3917.04032,0.00183
3914.97980,0.00180
3912.91929,0.00178
3910.85877,0.00207
3908.79825,0.00201
3906.73774,0.00149
3904.67722,0.00108
3902.61671,0.00101
3900.55619,0.00115
3898.49568,0.00148
3896.43516,0.00180
3894.37465,0.00178
3892.31413,0.00142
3890.25361,0.00096
3888.19310,0.00060
3886.13258,0.00054
3884.07207,0.00108
3882.01155,0.00155
3879.95104,0.00162
3877.89052,0.00174
3875.83000,0.00176
3873.76949,0.00163
3871.70897,0.00145
3869.64846,0.00133
3867.58794,0.00134
3865.52743,0.00138
3863.46691,0.00169
3861.40639,0.00209
3859.34588,0.00210
3857.28536,0.00191
3855.22485,0.00167
3853.16433,0.00128
3851.10382,0.00123
3849.04330,0.00140
3846.98278,0.00132
3844.92227,0.00125
3842.86175,0.00152
3840.80124,0.00169
3838.74072,0.00167
3836.68021,0.00177
3834.61969,0.00192
3832.55917,0.00207
3830.49866,0.00201
3828.43814,0.00158
3826.37763,0.00130
3824.31711,0.00140
3822.25660,0.00124
3820.19608,0.00090
3818.13556,0.00098
3816.07505,0.00152
3814.01453,0.00228
3811.95402,0.00242
3809.89350,0.00169
3807.83299,0.00063
3805.77247,0.00040
3803.71195,0.00098
3801.65144,0.00152
3799.59092,0.00182
3797.53041,0.00199
3795.46989,0.00204
3793.40938,0.00204
3791.34886,0.00217
3789.28835,0.00217
3787.22783,0.00195
3785.16731,0.00178
3783.10680,0.00177
3781.04628,0.00181
3778.98577,0.00189
3776.92525,0.00228
3774.86474,0.00266
3772.80422,0.00222
3770.74370,0.00122
3768.68319,0.00115
3766.62267,0.00185
3764.56216,0.00207
3762.50164,0.00199
3760.44113,0.00228
3758.38061,0.00301
3756.32009,0.00327
3754.25958,0.00264
3752.19906,0.00194
3750.13855,0.00209
3748.07803,0.00264
3746.01752,0.00319
3743.95700,0.00341
3741.89648,0.00304
3739.83597,0.00299
3737.77545,0.00341
3735.71494,0.00344
3733.65442,0.00288
3731.59391,0.00277
3729.53339,0.00301
3727.47287,0.00316
3725.41236,0.00290
3723.35184,0.00256
3721.29133,0.00282
3719.23081,0.00341
3717.17030,0.00382
3715.10978,0.00373
3713.04926,0.00304
3710.98875,0.00275
3708.92823,0.00380
3706.86772,0.00509
3704.80720,0.00560
3702.74669,0.00546
3700.68617,0.00545
3698.62565,0.00573
3696.56514,0.00578
3694.50462,0.00581
3692.44411,0.00638
3690.38359,0.00722
3688.32308,0.00794
3686.26256,0.00878
3684.20205,0.00960
3682.14153,0.01014
3680.08101,0.01046
3678.02050,0.01117
3675.95998,0.01237
3673.89947,0.01306
3671.83895,0.01345
3669.77844,0.01432
3667.71792,0.01553
3665.65740,0.01675
3663.59689,0.01814
3661.53637,0.01950
3659.47586,0.02065
3657.41534,0.02186
3655.35483,0.02307
3653.29431,0.02408
3651.23379,0.02533
3649.17328,0.02695
3647.11276,0.02860
3645.05225,0.03027
3642.99173,0.03159
3640.93122,0.03245
3638.87070,0.03333
3636.81018,0.03466
3634.74967,0.03639
3632.68915,0.03776
3630.62864,0.03856
3628.56812,0.03970
3626.50761,0.04129
3624.44709,0.04296
3622.38657,0.04465
3620.32606,0.04617
3618.26554,0.04786
3616.20503,0.04981
3614.14451,0.05166
3612.08400,0.05349
3610.02348,0.05533
3607.96296,0.05703
3605.90245,0.05876
3603.84193,0.06077
3601.78142,0.06269
3599.72090,0.06422
3597.66039,0.06584
3595.59987,0.06775
3593.53936,0.06970
3591.47884,0.07143
3589.41832,0.07288
3587.35781,0.07470
3585.29729,0.07719
3583.23678,0.07981
3581.17626,0.08212
3579.11575,0.08381
3577.05523,0.08543
3574.99471,0.08787
3572.93420,0.09080
3570.87368,0.09349
3568.81317,0.09621
3566.75265,0.09899
3564.69214,0.10098
3562.63162,0.10253
3560.57110,0.10456
3558.51059,0.10724
3556.45007,0.11003
3554.38956,0.11225
3552.32904,0.11444
3550.26853,0.11706
3548.20801,0.11923
3546.14749,0.12095
3544.08698,0.12323
3542.02646,0.12584
3539.96595,0.12805
3537.90543,0.13027
3535.84492,0.13289
3533.78440,0.13535
3531.72388,0.13729
3529.66337,0.13896
3527.60285,0.14110
3525.54234,0.14381
3523.48182,0.14598
3521.42131,0.14757
3519.36079,0.14938
3517.30027,0.15169
3515.23976,0.15427
3513.17924,0.15627
3511.11873,0.15760
3509.05821,0.15894
3506.99770,0.16023
3504.93718,0.16132
3502.87666,0.16263
3500.81615,0.16435
3498.75563,0.16609
3496.69512,0.16766
3494.63460,0.16954
3492.57409,0.17166
3490.51357,0.17340
3488.45306,0.17474
3486.39254,0.17574
3484.33202,0.17677
3482.27151,0.17871
3480.21099,0.18104
3478.15048,0.18300
3476.08996,0.18459
3474.02945,0.18573
3471.96893,0.18689
3469.90841,0.18822
3467.84790,0.18952
3465.78738,0.19098
3463.72687,0.19282
3461.66635,0.19484
3459.60584,0.19637
3457.54532,0.19733
3455.48480,0.19844
3453.42429,0.19988
3451.36377,0.20173
3449.30326,0.20361
3447.24274,0.20491
3445.18223,0.20635
3443.12171,0.20800
3441.06119,0.20937
3439.00068,0.21084
3436.94016,0.21198
3434.87965,0.21301
3432.81913,0.21455
3430.75862,0.21579
3428.69810,0.21667
3426.63758,0.21774
3424.57707,0.21885
3422.51655,0.21997
3420.45604,0.22134
3418.39552,0.22314
3416.33501,0.22461
3414.27449,0.22529
3412.21397,0.22613
3410.15346,0.22719
3408.09294,0.22764
3406.03243,0.22749
3403.97191,0.22720
3401.91140,0.22738
3399.85088,0.22786
3397.79036,0.22815
3395.72985,0.22833
3393.66933,0.22875
3391.60882,0.22952
3389.54830,0.23001
3387.48779,0.22990
3385.42727,0.22948
3383.36676,0.22913
3381.30624,0.22875
3379.24572,0.22848
3377.18521,0.22874
3375.12469,0.22903
3373.06418,0.22841
3371.00366,0.22678
3368.94315,0.22522
3366.88263,0.22431
3364.82211,0.22355
3362.76160,0.22272
3360.70108,0.22195
3358.64057,0.22140
3356.58005,0.22097
3354.51954,0.22018
3352.45902,0.21874
3350.39850,0.21726
3348.33799,0.21651
3346.27747,0.21591
3344.21696,0.21460
3342.15644,0.21315
3340.09593,0.21235
3338.03541,0.21199
3335.97489,0.21145
3333.91438,0.21046
3331.85386,0.20914
3329.79335,0.20802
3327.73283,0.20731
3325.67232,0.20654
3323.61180,0.20576
3321.55128,0.20538
3319.49077,0.20496
3317.43025,0.20392
3315.36974,0.20252
3313.30922,0.20136
3311.24871,0.20035
3309.18819,0.19891
3307.12767,0.19764
3305.06716,0.19727
3303.00664,0.19722
3300.94613,0.19697
3298.88561,0.19672
3296.82510,0.19658
3294.76458,0.19604
3292.70406,0.19505
3290.64355,0.19431
3288.58303,0.19404
3286.52252,0.19368
3284.46200,0.19317
3282.40149,0.19295
3280.34097,0.19276
3278.28046,0.19224
3276.21994,0.19171
3274.15942,0.19129
3272.09891,0.19076
3270.03839,0.19021
3267.97788,0.18964
3265.91736,0.18869
3263.85685,0.18738
3261.79633,0.18647
3259.73581,0.18607
3257.67530,0.18547
3255.61478,0.18441
3253.55427,0.18328
3251.49375,0.18248
3249.43324,0.18173
3247.37272,0.18044
3245.31220,0.17901
3243.25169,0.17798
3241.19117,0.17669
3239.13066,0.17501
3237.07014,0.17346
3235.00963,0.17217
3232.94911,0.17092
3230.88859,0.16929
3228.82808,0.16745
3226.76756,0.16597
3224.70705,0.16463
3222.64653,0.16327
3220.58602,0.16187
3218.52550,0.16043
3216.46498,0.15897
3214.40447,0.15730
3212.34395,0.15551
3210.28344,0.15324
3208.22292,0.15058
3206.16241,0.14858
3204.10189,0.14709
3202.04137,0.14534
3199.98086,0.14322
3197.92034,0.14100
3195.85983,0.13922
3193.79931,0.13773
3191.73880,0.13559
3189.67828,0.13324
3187.61777,0.13134
3185.55725,0.12931
3183.49673,0.12715
3181.43622,0.12517
3179.37570,0.12335
3177.31519,0.12166
3175.25467,0.11968
3173.19416,0.11711
3171.13364,0.11475
3169.07312,0.11315
3167.01261,0.11193
3164.95209,0.11047
3162.89158,0.10846
3160.83106,0.10619
3158.77055,0.10410
3156.71003,0.10238
3154.64951,0.10065
3152.58900,0.09870
3150.52848,0.09693
3148.46797,0.09533
3146.40745,0.09372
3144.34694,0.09200
3142.28642,0.09020
3140.22590,0.08864
3138.16539,0.08717
3136.10487,0.08546
3134.04436,0.08378
3131.98384,0.08247
3129.92333,0.08127
3127.86281,0.07957
3125.80229,0.07768
3123.74178,0.07624
3121.68126,0.07486
3119.62075,0.07330
3117.56023,0.07198
3115.49972,0.07097
3113.43920,0.06973
3111.37868,0.06817
3109.31817,0.06682
3107.25765,0.06554
3105.19714,0.06397
3103.13662,0.06259
3101.07611,0.06156
3099.01559,0.06046
3096.95507,0.05948
3094.89456,0.05864
3092.83404,0.05767
3090.77353,0.05686
3088.71301,0.05606
3086.65250,0.05485
3084.59198,0.05353
3082.53147,0.05243
3080.47095,0.05146
3078.41043,0.05053
3076.34992,0.04972
3074.28940,0.04883
3072.22889,0.04775
3070.16837,0.04666
3068.10786,0.04567
3066.04734,0.04470
3063.98682,0.04368
3061.92631,0.04281
3059.86579,0.04212
3057.80528,0.04141
3055.74476,0.04058
3053.68425,0.03985
3051.62373,0.03931
3049.56321,0.03849
3047.50270,0.03745
3045.44218,0.03669
3043.38167,0.03599
3041.32115,0.03523
3039.26064,0.03455
3037.20012,0.03394
3035.13960,0.03345
3033.07909,0.03298
3031.01857,0.03247
3028.95806,0.03185
3026.89754,0.03132
3024.83703,0.03113
3022.77651,0.03092
3020.71599,0.03059
3018.65548,0.03016
3016.59496,0.02936
3014.53445,0.02868
3012.47393,0.02852
3010.41342,0.02828
3008.35290,0.02786
3006.29238,0.02761
3004.23187,0.02731
3002.17135,0.02674
3000.11084,0.02624
2998.05032,0.02614
2995.98981,0.02623
2993.92929,0.02640
2991.86877,0.02678
2989.80826,0.02717
2987.74774,0.02764
2985.68723,0.02852
2983.62671,0.02965
2981.56620,0.03098
2979.50568,0.03279
2977.44517,0.03492
2975.38465,0.03687
2973.32413,0.03851
2971.26362,0.04029
2969.20310,0.04263
2967.14259,0.04531
2965.08207,0.04781
2963.02156,0.04998
2960.96104,0.05182
2958.90052,0.05340
2956.84001,0.05523
2954.77949,0.05732
2952.71898,0.05910
2950.65846,0.06065
2948.59795,0.06224
2946.53743,0.06359
2944.47691,0.06463
2942.41640,0.06581
2940.35588,0.06724
2938.29537,0.06870
2936.23485,0.07019
2934.17434,0.07177
2932.11382,0.07345
2930.05330,0.07512
2927.99279,0.07691
2925.93227,0.07906
2923.87176,0.08118
2921.81124,0.08274
2919.75073,0.08379
2917.69021,0.08461
2915.62969,0.08512
2913.56918,0.08523
2911.50866,0.08515
2909.44815,0.08486
2907.38763,0.08426
2905.32712,0.08378
2903.26660,0.08353
2901.20608,0.08309
2899.14557,0.08257
2897.08505,0.08232
2895.02454,0.08234
2892.96402,0.08281
2890.90351,0.08398
2888.84299,0.08531
2886.78247,0.08642
2884.72196,0.08793
2882.66144,0.08967
2880.60093,0.09075
2878.54041,0.09093
2876.47990,0.09017
2874.41938,0.08877
2872.35887,0.08691
2870.29835,0.08419
2868.23783,0.08048
2866.17732,0.07631
2864.11680,0.07222
2862.05629,0.06820
2859.99577,0.06426
2857.93526,0.06034
2855.87474,0.05625
2853.81422,0.05252
2851.75371,0.04942
2849.69319,0.04648
2847.63268,0.04359
2845.57216,0.04098
2843.51165,0.03866
2841.45113,0.03665
2839.39061,0.03511
2837.33010,0.03402
2835.26958,0.03298
2833.20907,0.03171
2831.14855,0.03052
2829.08804,0.02964
2827.02752,0.02892
2824.96700,0.02825
2822.90649,0.02765
2820.84597,0.02702
2818.78546,0.02606
2816.72494,0.02501
2814.66443,0.02425
2812.60391,0.02348
2810.54339,0.02267
2808.48288,0.02192
2806.42236,0.02104
2804.36185,0.02012
2802.30133,0.01926
2800.24082,0.01858
2798.18030,0.01819
2796.11978,0.01776
2794.05927,0.01716
2791.99875,0.01661
2789.93824,0.01603
2787.87772,0.01539
2785.81721,0.01499
2783.75669,0.01471
2781.69618,0.01448
2779.63566,0.01436
2777.57514,0.01401
2775.51463,0.01340
2773.45411,0.01292
2771.39360,0.01261
2769.33308,0.01224
2767.27257,0.01191
2765.21205,0.01189
2763.15153,0.01197
2761.09102,0.01187
2759.03050,0.01189
2756.96999,0.01190
2754.90947,0.01155
2752.84896,0.01136
2750.78844,0.01144
2748.72792,0.01138
2746.66741,0.01128
2744.60689,0.01130
2742.54638,0.01130
2740.48586,0.01109
2738.42535,0.01071
2736.36483,0.01039
2734.30431,0.01015
2732.24380,0.00977
2730.18328,0.00936
2728.12277,0.00930
2726.06225,0.00939
2724.00174,0.00930
2721.94122,0.00903
2719.88070,0.00867
2717.82019,0.00829
2715.75967,0.00798
2713.69916,0.00785
2711.63864,0.00795
2709.57813,0.00815
2707.51761,0.00817
2705.45709,0.00797
2703.39658,0.00775
2701.33606,0.00760
2699.27555,0.00754
2697.21503,0.00730
2695.15452,0.00693
2693.09400,0.00686
2691.03348,0.00681
2688.97297,0.00637
2686.91245,0.00577
2684.85194,0.00542
2682.79142,0.00544
2680.73091,0.00554
2678.67039,0.00549
2676.60988,0.00539
2674.54936,0.00533
2672.48884,0.00524
2670.42833,0.00515
2668.36781,0.00508
2666.30730,0.00502
2664.24678,0.00496
2662.18627,0.00475
2660.12575,0.00442
2658.06523,0.00419
2656.00472,0.00411
2653.94420,0.00419
2651.88369,0.00442
2649.82317,0.00435
2647.76266,0.00382
2645.70214,0.00366
2643.64162,0.00410
2641.58111,0.00423
2639.52059,0.00372
2637.46008,0.00332
2635.39956,0.00343
2633.33905,0.00370
2631.27853,0.00393
2629.21801,0.00400
2627.15750,0.00367
2625.09698,0.00332
2623.03647,0.00333
2620.97595,0.00334
2618.91544,0.00332
2616.85492,0.00326
2614.79440,0.00309
2612.73389,0.00325
2610.67337,0.00354
2608.61286,0.00353
2606.55234,0.00353
2604.49183,0.00364
2602.43131,0.00352
2600.37079,0.00322
2598.31028,0.00318
2596.24976,0.00353
2594.18925,0.00364
2592.12873,0.00323
2590.06822,0.00273
2588.00770,0.00259
2585.94718,0.00275
2583.88667,0.00288
2581.82615,0.00284
2579.76564,0.00299
2577.70512,0.00330
2575.64461,0.00328
2573.58409,0.00320
2571.52358,0.00319
2569.46306,0.00300
2567.40254,0.00276
2565.34203,0.00267
2563.28151,0.00278
2561.22100,0.00292
2559.16048,0.00283
2557.09997,0.00290
2555.03945,0.00318
2552.97893,0.00322
2550.91842,0.00326
2548.85790,0.00336
2546.79739,0.00324
2544.73687,0.00316
2542.67636,0.00315
2540.61584,0.00298
2538.55532,0.00288
2536.49481,0.00284
2534.43429,0.00282
2532.37378,0.00285
2530.31326,0.00268
2528.25275,0.00239
2526.19223,0.00231
2524.13171,0.00251
2522.07120,0.00274
2520.01068,0.00279
2517.95017,0.00302
2515.88965,0.00356
2513.82914,0.00379
2511.76862,0.00341
2509.70810,0.00281
2507.64759,0.00255
2505.58707,0.00294
2503.52656,0.00347
2501.46604,0.00331
2499.40553,0.00309
2497.34501,0.00341
2495.28449,0.00357
2493.22398,0.00352
2491.16346,0.00345
2489.10295,0.00332
2487.04243,0.00366
2484.98192,0.00425
2482.92140,0.00450
2480.86088,0.00432
2478.80037,0.00366
2476.73985,0.00295
2474.67934,0.00277
2472.61882,0.00301
2470.55831,0.00318
2468.49779,0.00322
2466.43728,0.00321
2464.37676,0.00314
2462.31624,0.00350
2460.25573,0.00413
2458.19521,0.00401
2456.13470,0.00346
2454.07418,0.00348
2452.01367,0.00364
2449.95315,0.00321
2447.89263,0.00291
2445.83212,0.00312
2443.77160,0.00321
2441.71109,0.00310
2439.65057,0.00334
2437.59006,0.00377
2435.52954,0.00394
2433.46902,0.00389
2431.40851,0.00370
2429.34799,0.00338
2427.28748,0.00336
2425.22696,0.00383
2423.16645,0.00410
2421.10593,0.00405
2419.04541,0.00390
2416.98490,0.00340
2414.92438,0.00299
2412.86387,0.00325
2410.80335,0.00389
2408.74284,0.00432
2406.68232,0.00431
2404.62180,0.00421
2402.56129,0.00438
2400.50077,0.00471
2398.44026,0.00481
2396.37974,0.00469
2394.31923,0.00466
2392.25871,0.00464
2390.19819,0.00450
2388.13768,0.00456
2386.07716,0.00475
2384.01665,0.00454
2381.95613,0.00434
2379.89562,0.00485
2377.83510,0.00541
2375.77459,0.00554
2373.71407,0.00556
2371.65355,0.00534
2369.59304,0.00496
2367.53252,0.00427
2365.47201,0.00317
2363.41149,0.00294
2361.35098,0.00419
2359.29046,0.00535
2357.22994,0.00529
2355.16943,0.00495
2353.10891,0.00489
2351.04840,0.00493
2348.98788,0.00495
2346.92737,0.00488
2344.86685,0.00508
2342.80633,0.00603
2340.74582,0.00712
2338.68530,0.00714
2336.62479,0.00634
2334.56427,0.00607
2332.50376,0.00616
2330.44324,0.00588
2328.38272,0.00555
2326.32221,0.00551
2324.26169,0.00540
2322.20118,0.00517
2320.14066,0.00518
2318.08015,0.00529
2316.01963,0.00544
2313.95911,0.00578
2311.89860,0.00622
2309.83808,0.00661
2307.77757,0.00645
2305.71705,0.00590
2303.65654,0.00592
2301.59602,0.00634
2299.53550,0.00643
2297.47499,0.00648
2295.41447,0.00664
2293.35396,0.00649
2291.29344,0.00632
2289.23293,0.00656
2287.17241,0.00692
2285.11189,0.00711
2283.05138,0.00699
2280.99086,0.00652
2278.93035,0.00631
2276.86983,0.00657
2274.80932,0.00641
2272.74880,0.00586
2270.68829,0.00567
2268.62777,0.00570
2266.56725,0.00599
2264.50674,0.00632
2262.44622,0.00595
2260.38571,0.00537
2258.32519,0.00540
2256.26468,0.00588
2254.20416,0.00602
2252.14364,0.00577
2250.08313,0.00598
2248.02261,0.00642
2245.96210,0.00616
2243.90158,0.00559
2241.84107,0.00515
2239.78055,0.00493
2237.72003,0.00532
2235.65952,0.00603
2233.59900,0.00586
2231.53849,0.00490
2229.47797,0.00493
2227.41746,0.00594
2225.35694,0.00670
2223.29642,0.00710
2221.23591,0.00744
2219.17539,0.00721
2217.11488,0.00616
2215.05436,0.00600
2212.99385,0.00675
2210.93333,0.00713
2208.87281,0.00734
2206.81230,0.00735
2204.75178,0.00700
2202.69127,0.00643
2200.63075,0.00626
2198.57024,0.00669
2196.50972,0.00621
2194.44920,0.00534
2192.38869,0.00584
2190.32817,0.00664
2188.26766,0.00696
2186.20714,0.00716
2184.14663,0.00735
2182.08611,0.00784
2180.02559,0.00827
2177.96508,0.00789
2175.90456,0.00707
2173.84405,0.00692
2171.78353,0.00745
2169.72302,0.00852
2167.66250,0.00971
2165.60199,0.01020
2163.54147,0.00989
2161.48095,0.00818
2159.42044,0.00565
2157.35992,0.00541
2155.29941,0.00698
2153.23889,0.00809
2151.17838,0.00898
2149.11786,0.00950
2147.05734,0.00932
2144.99683,0.00918
2142.93631,0.00973
2140.87580,0.01034
2138.81528,0.01022
2136.75477,0.00977
2134.69425,0.00971
2132.63373,0.01045
2130.57322,0.01170
2128.51270,0.01263
2126.45219,0.01274
2124.39167,0.01220
2122.33116,0.01174
2120.27064,0.01158
2118.21012,0.01112
2116.14961,0.01078
2114.08909,0.01105
2112.02858,0.01133
2109.96806,0.01173
2107.90755,0.01222
2105.84703,0.01220
2103.78651,0.01199
2101.72600,0.01219
2099.66548,0.01229
2097.60497,0.01156
2095.54445,0.01016
2093.48394,0.00923
2091.42342,0.00990
2089.36290,0.01096
2087.30239,0.01085
2085.24187,0.00997
2083.18136,0.00955
2081.12084,0.00990
2079.06033,0.01015
2076.99981,0.00985
2074.93930,0.00954
2072.87878,0.00945
2070.81826,0.00947
2068.75775,0.00945
2066.69723,0.00912
2064.63672,0.00836
2062.57620,0.00807
2060.51569,0.00877
2058.45517,0.00938
2056.39465,0.00924
2054.33414,0.00868
2052.27362,0.00831
2050.21311,0.00879
2048.15259,0.00945
2046.09208,0.00952
2044.03156,0.00917
2041.97104,0.00831
2039.91053,0.00743
2037.85001,0.00668
2035.78950,0.00680
2033.72898,0.00791
2031.66847,0.00758
2029.60795,0.00600
2027.54743,0.00570
2025.48692,0.00662
2023.42640,0.00712
2021.36589,0.00637
2019.30537,0.00479
2017.24486,0.00335
2015.18434,0.00304
2013.12382,0.00402
2011.06331,0.00481
2009.00279,0.00493
2006.94228,0.00531
2004.88176,0.00653
2002.82125,0.00777
2000.76073,0.00758
1998.70021,0.00710
1996.63970,0.00807
1994.57918,0.00942
1992.51867,0.00911
1990.45815,0.00804
1988.39764,0.00821
1986.33712,0.00853
1984.27660,0.00787
1982.21609,0.00713
1980.15557,0.00706
1978.09506,0.00685
1976.03454,0.00619
1973.97403,0.00678
1971.91351,0.00790
1969.85300,0.00783
1967.79248,0.00771
1965.73196,0.00762
1963.67145,0.00652
1961.61093,0.00660
1959.55042,0.00888
1957.48990,0.01002
1955.42939,0.00934
1953.36887,0.00908
1951.30835,0.00908
1949.24784,0.00860
1947.18732,0.00813
1945.12681,0.00802
1943.06629,0.00808
1941.00578,0.00793
1938.94526,0.00765
1936.88474,0.00764
1934.82423,0.00778
1932.76371,0.00751
1930.70320,0.00712
1928.64268,0.00690
1926.58217,0.00682
1924.52165,0.00686
1922.46113,0.00685
1920.40062,0.00680
1918.34010,0.00659
1916.27959,0.00636
1914.21907,0.00592
1912.15856,0.00526
1910.09804,0.00535
1908.03752,0.00590
1905.97701,0.00563
1903.91649,0.00517
1901.85598,0.00557
1899.79546,0.00638
1897.73495,0.00705
1895.67443,0.00721
1893.61391,0.00664
1891.55340,0.00588
1889.49288,0.00561
1887.43237,0.00547
1885.37185,0.00497
1883.31134,0.00491
1881.25082,0.00545
1879.19030,0.00575
1877.12979,0.00573
1875.06927,0.00567
1873.00876,0.00555
1870.94824,0.00541
1868.88773,0.00563
1866.82721,0.00594
1864.76670,0.00585
1862.70618,0.00584
1860.64566,0.00606
1858.58515,0.00609
1856.52463,0.00590
1854.46412,0.00589
1852.40360,0.00613
1850.34309,0.00632
1848.28257,0.00632
1846.22205,0.00612
1844.16154,0.00590
1842.10102,0.00593
1840.04051,0.00612
1837.97999,0.00640
1835.91948,0.00673
1833.85896,0.00672
1831.79844,0.00630
1829.73793,0.00597
1827.67741,0.00569
1825.61690,0.00528
1823.55638,0.00562
1821.49587,0.00657
1819.43535,0.00695
1817.37483,0.00680
1815.31432,0.00685
1813.25380,0.00682
1811.19329,0.00664
1809.13277,0.00690
1807.07226,0.00724
1805.01174,0.00726
1802.95122,0.00729
1800.89071,0.00745
1798.83019,0.00759
1796.76968,0.00766
1794.70916,0.00777
1792.64865,0.00814
1790.58813,0.00863
1788.52761,0.00871
1786.46710,0.00858
1784.40658,0.00874
1782.34607,0.00906
1780.28555,0.00913
1778.22504,0.00910
1776.16452,0.00916
1774.10400,0.00922
1772.04349,0.00919
1769.98297,0.00931
1767.92246,0.00993
1765.86194,0.01078
1763.80143,0.01120
1761.74091,0.01105
1759.68040,0.01097
1757.61988,0.01123
1755.55936,0.01166
1753.49885,0.01206
1751.43833,0.01230
1749.37782,0.01268
1747.31730,0.01334
1745.25679,0.01387
1743.19627,0.01428
1741.13575,0.01481
1739.07524,0.01550
1737.01472,0.01620
1734.95421,0.01676
1732.89369,0.01729
1730.83318,0.01793
1728.77266,0.01871
1726.71214,0.01956
1724.65163,0.02062
1722.59111,0.02165
1720.53060,0.02211
1718.47008,0.02252
1716.40957,0.02386
1714.34905,0.02574
1712.28853,0.02738
1710.22802,0.02882
1708.16750,0.03024
1706.10699,0.03170
1704.04647,0.03302
1701.98596,0.03429
1699.92544,0.03616
1697.86492,0.03864
1695.80441,0.04171
1693.74389,0.04510
1691.68338,0.04796
1689.62286,0.05071
1687.56235,0.05329
1685.50183,0.05605
1683.44131,0.06025
1681.38080,0.06452
1679.32028,0.06816
1677.25977,0.07157
1675.19925,0.07532
1673.13874,0.07933
1671.07822,0.08323
1669.01771,0.08790
1666.95719,0.09248
1664.89667,0.09598
1662.83616,0.09923
1660.77564,0.10259
1658.71513,0.10575
1656.65461,0.10859
1654.59410,0.11154
1652.53358,0.11501
1650.47306,0.11707
1648.41255,0.11805
1646.35203,0.11890
1644.29152,0.11947
1642.23100,0.11965
1640.17049,0.11948
1638.10997,0.11858
1636.04945,0.11635
1633.98894,0.11360
1631.92842,0.11149
1629.86791,0.10877
1627.80739,0.10484
1625.74688,0.10057
1623.68636,0.09585
1621.62584,0.09101
1619.56533,0.08700
1617.50481,0.08226
1615.44430,0.07687
1613.38378,0.07311
1611.32327,0.06975
1609.26275,0.06584
1607.20223,0.06200
1605.14172,0.05879
1603.08120,0.05600
1601.02069,0.05350
1598.96017,0.05125
1596.89966,0.04897
1594.83914,0.04661
1592.77862,0.04463
1590.71811,0.04305
1588.65759,0.04137
1586.59708,0.03970
1584.53656,0.03847
1582.47605,0.03757
1580.41553,0.03666
1578.35501,0.03567
1576.29450,0.03441
1574.23398,0.03344
1572.17347,0.03286
1570.11295,0.03197
1568.05244,0.03114
1565.99192,0.03071
1563.93141,0.03014
1561.87089,0.02929
1559.81037,0.02813
1557.74986,0.02736
1555.68934,0.02741
1553.62883,0.02734
1551.56831,0.02698
1549.50780,0.02661
1547.44728,0.02641
1545.38676,0.02608
1543.32625,0.02554
1541.26573,0.02512
1539.20522,0.02529
1537.14470,0.02571
1535.08419,0.02561
1533.02367,0.02522
1530.96315,0.02502
1528.90264,0.02480
1526.84212,0.02440
1524.78161,0.02389
1522.72109,0.02353
1520.66058,0.02392
1518.60006,0.02456
1516.53954,0.02478
1514.47903,0.02478
1512.41851,0.02471
1510.35800,0.02436
1508.29748,0.02378
1506.23697,0.02392
1504.17645,0.02499
1502.11593,0.02589
1500.05542,0.02649
1497.99490,0.02700
1495.93439,0.02808
1493.87387,0.02976
1491.81336,0.03150
1489.75284,0.03342
1487.69232,0.03536
1485.63181,0.03725
1483.57129,0.03965
1481.51078,0.04316
1479.45026,0.04770
1477.38975,0.05312
1475.32923,0.05891
1473.26871,0.06361
1471.20820,0.06617
1469.14768,0.06688
1467.08717,0.06689
1465.02665,0.06733
1462.96614,0.06850
1460.90562,0.06960
1458.84511,0.07048
1456.78459,0.07145
1454.72407,0.07144
1452.66356,0.06959
1450.60304,0.06639
1448.54253,0.06281
1446.48201,0.05974
1444.42150,0.05721
1442.36098,0.05446
1440.30046,0.05146
1438.23995,0.04820
1436.17943,0.04459
1434.11892,0.04208
1432.05840,0.04072
1429.99789,0.03988
1427.93737,0.03950
1425.87685,0.03918
1423.81634,0.03882
1421.75582,0.03849
1419.69531,0.03800
1417.63479,0.03779
1415.57428,0.03795
1413.51376,0.03797
1411.45324,0.03791
1409.39273,0.03796
1407.33221,0.03799
1405.27170,0.03790
1403.21118,0.03773
1401.15067,0.03758
1399.09015,0.03751
1397.02963,0.03756
1394.96912,0.03779
1392.90860,0.03824
1390.84809,0.03868
1388.78757,0.03891
1386.72706,0.03919
1384.66654,0.03973
1382.60602,0.04046
1380.54551,0.04142
1378.48499,0.04238
1376.42448,0.04322
1374.36396,0.04437
1372.30345,0.04619
1370.24293,0.04855
1368.18241,0.05137
1366.12190,0.05457
1364.06138,0.05835
1362.00087,0.06331
1359.94035,0.06936
1357.87984,0.07614
1355.81932,0.08388
1353.75881,0.09215
1351.69829,0.09952
1349.63777,0.10335
1347.57726,0.09965
1345.51674,0.08746
1343.45623,0.07221
1341.39571,0.06020
1339.33520,0.05344
1337.27468,0.05092
1335.21416,0.05066
1333.15365,0.05104
1331.09313,0.05102
1329.03262,0.05018
1326.97210,0.04878
1324.91159,0.04736
1322.85107,0.04627
1320.79055,0.04581
1318.73004,0.04637
1316.66952,0.04803
1314.60901,0.05058
1312.54849,0.05403
1310.48798,0.05807
1308.42746,0.06196
1306.36694,0.06551
1304.30643,0.06856
1302.24591,0.07065
1300.18540,0.07181
1298.12488,0.07239
1296.06437,0.07251
1294.00385,0.07235
1291.94333,0.07218
1289.88282,0.07194
1287.82230,0.07130
1285.76179,0.07020
1283.70127,0.06873
1281.64076,0.06693
1279.58024,0.06484
1277.51972,0.06259
1275.45921,0.06041
1273.39869,0.05860
1271.33818,0.05755
1269.27766,0.05759
1267.21715,0.05873
1265.15663,0.06077
1263.09612,0.06385
1261.03560,0.06785
1258.97508,0.07216
1256.91457,0.07649
1254.85405,0.08042
1252.79354,0.08315
1250.73302,0.08410
1248.67251,0.08325
1246.61199,0.08088
1244.55147,0.07738
1242.49096,0.07328
1240.43044,0.06905
1238.36993,0.06496
1236.30941,0.06096
1234.24890,0.05712
1232.18838,0.05366
1230.12786,0.05072
1228.06735,0.04842
1226.00683,0.04669
1223.94632,0.04522
1221.88580,0.04381
1219.82529,0.04252
1217.76477,0.04144
1215.70425,0.04048
1213.64374,0.03958
1211.58322,0.03877
1209.52271,0.03809
1207.46219,0.03765
1205.40168,0.03740
1203.34116,0.03722
1201.28064,0.03703
1199.22013,0.03692
1197.15961,0.03691
1195.09910,0.03689
1193.03858,0.03695
1190.97807,0.03729
1188.91755,0.03776
1186.85703,0.03809
1184.79652,0.03839
1182.73600,0.03897
1180.67549,0.03965
1178.61497,0.04021
1176.55446,0.04099
1174.49394,0.04215
1172.43342,0.04347
1170.37291,0.04499
1168.31239,0.04689
1166.25188,0.04940
1164.19136,0.05293
1162.13085,0.05774
1160.07033,0.06374
1158.00982,0.07083
1155.94930,0.07910
1153.88878,0.08862
1151.82827,0.09907
1149.76775,0.11021
1147.70724,0.12177
1145.64672,0.13305
1143.58621,0.14376
1141.52569,0.15393
1139.46517,0.16299
1137.40466,0.17052
1135.34414,0.17674
1133.28363,0.18217
1131.22311,0.18737
1129.16260,0.19273
1127.10208,0.19862
1125.04156,0.20567
1122.98105,0.21408
1120.92053,0.22325
1118.86002,0.23285
1116.79950,0.24302
1114.73899,0.25351
1112.67847,0.26408
1110.61795,0.27491
1108.55744,0.28611
1106.49692,0.29788
1104.43641,0.30993
1102.37589,0.32154
1100.31538,0.33264
1098.25486,0.34354
1096.19434,0.35397
1094.13383,0.36353
1092.07331,0.37155
1090.01280,0.37754
1087.95228,0.38212
1085.89177,0.38560
1083.83125,0.38764
1081.77073,0.38791
1079.71022,0.38584
1077.64970,0.38158
1075.58919,0.37634
1073.52867,0.37053
1071.46816,0.36406
1069.40764,0.35647
1067.34712,0.34682
1065.28661,0.33482
1063.22609,0.32003
1061.16558,0.30259
1059.10506,0.28354
1057.04455,0.26338
1054.98403,0.24278
1052.92352,0.22305
1050.86300,0.20517
1048.80248,0.19024
1046.74197,0.17931
1044.68145,0.17216
1042.62094,0.16775
1040.56042,0.16491
1038.49991,0.16267
1036.43939,0.16058
1034.37887,0.15816
1032.31836,0.15490
1030.25784,0.15045
1028.19733,0.14469
1026.13681,0.13764
1024.07630,0.12967
1022.01578,0.12142
1019.95526,0.11346
1017.89475,0.10612
1015.83423,0.09946
1013.77372,0.09382
1011.71320,0.08935
1009.65269,0.08571
1007.59217,0.08277
1005.53165,0.08044
1003.47114,0.07853
1001.41062,0.07731
999.35011,0.07669
997.28959,0.07626
995.22908,0.07588
993.16856,0.07530
991.10804,0.07436
989.04753,0.07336
986.98701,0.07240
984.92650,0.07115
982.86598,0.06971
980.80547,0.06877
978.74495,0.06836
976.68443,0.06796
974.62392,0.06762
972.56340,0.06806
970.50289,0.06989
968.44237,0.07299
966.38186,0.07738
964.32134,0.08357
962.26082,0.09183
960.20031,0.10196
958.13979,0.11348
956.07928,0.12586
954.01876,0.13827
951.95825,0.14913
949.89773,0.15675
947.83722,0.16067
945.77670,0.16148
943.71618,0.15975
941.65567,0.15614
939.59515,0.15163
937.53464,0.14690
935.47412,0.14194
933.41361,0.13669
931.35309,0.13152
929.29257,0.12671
927.23206,0.12254
925.17154,0.11931
923.11103,0.11649
921.05051,0.11366
918.99000,0.11124
916.92948,0.10937
914.86896,0.10735
912.80845,0.10471
910.74793,0.10178
908.68742,0.09912
906.62690,0.09681
904.56639,0.09468
902.50587,0.09315
900.44535,0.09241
898.38484,0.09264
896.32432,0.09435
894.26381,0.09726
892.20329,0.10077
890.14278,0.10410
888.08226,0.10669
886.02174,0.10891
883.96123,0.11029
881.90071,0.10987
879.84020,0.10832
877.77968,0.10724
875.71917,0.10733
873.65865,0.10809
871.59813,0.10909
869.53762,0.11042
867.47710,0.11208
865.41659,0.11399
863.35607,0.11608
861.29556,0.11828
859.23504,0.12104
857.17453,0.12473
855.11401,0.12901
853.05349,0.13330
850.99298,0.13727
848.93246,0.14096
846.87195,0.14458
844.81143,0.14843
842.75092,0.15260
840.69040,0.15643
838.62988,0.15936
836.56937,0.16134
834.50885,0.16250
832.44834,0.16318
830.38782,0.16337
828.32731,0.16262
826.26679,0.16137
824.20627,0.16076
822.14576,0.16085
820.08524,0.16114
818.02473,0.16151
815.96421,0.16204
813.90370,0.16284
811.84318,0.16381
809.78266,0.16460
807.72215,0.16541
805.66163,0.16667
803.60112,0.16828
801.54060,0.16994
799.48009,0.17105
797.41957,0.17195
795.35905,0.17339
793.29854,0.17465
791.23802,0.17590
789.17751,0.17777
787.11699,0.17928
785.05648,0.18047
782.99596,0.18221
780.93544,0.18433
778.87493,0.18673
776.81441,0.18915
774.75390,0.19093
772.69338,0.19254
770.63287,0.19478
768.57235,0.19744
766.51183,0.20000
764.45132,0.20191
762.39080,0.20372
760.33029,0.20672
758.26977,0.21018
756.20926,0.21293
754.14874,0.21532
752.08823,0.21771
750.02771,0.22016
747.96719,0.22252
745.90668,0.22457
743.84616,0.22675
741.78565,0.22920
739.72513,0.23182
737.66462,0.23457
735.60410,0.23729
733.54358,0.23989
731.48307,0.24242
729.42255,0.24521
727.36204,0.24823
725.30152,0.25085
723.24101,0.25309
721.18049,0.25575
719.11997,0.25893
717.05946,0.26209
714.99894,0.26462
712.93843,0.26653
710.87791,0.26892
708.81740,0.27203
706.75688,0.27482
704.69636,0.27734
702.63585,0.27995
700.57533,0.28207
698.51482,0.28395
696.45430,0.28642
694.39379,0.28921
692.33327,0.29178
690.27275,0.29411
688.21224,0.29649
686.15172,0.29931
684.09121,0.30265
682.03069,0.30603
679.97018,0.30828
677.90966,0.30957
675.84914,0.31126
673.78863,0.31317
671.72811,0.31522
669.66760,0.31805
667.60708,0.32107
665.54657,0.32212
663.48605,0.32237
661.42553,0.32378
659.36502,0.32657
657.30450,0.32984
655.24399,0.33316
653.18347,0.33589
651.12296,0.33764
649.06244,0.33916
647.00193,0.34063
644.94141,0.34213
642.88089,0.34465
640.82038,0.34802
638.75986,0.35037
636.69935,0.35070
634.63883,0.35060
632.57832,0.35199
630.51780,0.35463
628.45728,0.35712
626.39677,0.35814
624.33625,0.35826
622.27574,0.35960
620.21522,0.36171
618.15471,0.36263
616.09419,0.36385
614.03367,0.36646
611.97316,0.36826
609.91264,0.36946
607.85213,0.37141
605.79161,0.37299
603.73110,0.37360
601.67058,0.37494
599.61006,0.37779
597.54955,0.38018
595.48903,0.38055
593.42852,0.38139
591.36800,0.38564
589.30749,0.39007
587.24697,0.39087
585.18645,0.38984
583.12594,0.38993
581.06542,0.39151
579.00491,0.39322
576.94439,0.39441
574.88388,0.39600
572.82336,0.39855
570.76284,0.40164
568.70233,0.40417
566.64181,0.40461
564.58130,0.40462
562.52078,0.40640
560.46027,0.40771
558.39975,0.40663
556.33924,0.40581
554.27872,0.40744
552.21820,0.40916
550.15769,0.41003
548.09717,0.41085
546.03666,0.41038
543.97614,0.41009
541.91563,0.41172
539.85511,0.41434
537.79459,0.41784
535.73408,0.42088
533.67356,0.42315
531.61305,0.42618
529.55253,0.42794
527.49202,0.42732
525.43150,0.42655
523.37098,0.42665
521.31047,0.42777
519.24995,0.42923
517.18944,0.43046
515.12892,0.43167
513.06841,0.43274
511.00789,0.43432
508.94737,0.43568
506.88686,0.43412
504.82634,0.43090
502.76583,0.42981
500.70531,0.43000
498.64480,0.43006
496.58428,0.43060
494.52376,0.43168
492.46325,0.43303
490.40273,0.43268
488.34222,0.43125
486.28170,0.43080
484.22119,0.43034
482.16067,0.42949
480.10015,0.42797
478.03964,0.42708
475.97912,0.42776
473.91861,0.42598
471.85809,0.42369
469.79758,0.42567
467.73706,0.42608
465.67654,0.42424
463.61603,0.42585
461.55551,0.42862
459.49500,0.43011
457.43448,0.43094
455.37397,0.42910
453.31345,0.42584
451.25294,0.42488
449.19242,0.42764
447.13190,0.43133
445.07139,0.43192
443.01087,0.43024
440.95036,0.42923
438.88984,0.43017
436.82933,0.43148
434.76881,0.42779
432.70829,0.42164
430.64778,0.42006
428.58726,0.42326
426.52675,0.42607
424.46623,0.42186
422.40572,0.41610
420.34520,0.41745
418.28468,0.41937
416.22417,0.41880
414.16365,0.41722
412.10314,0.41222
410.04262,0.40797
407.98211,0.40717
405.92159,0.40762
403.86107,0.40802
401.80056,0.40456
399.74004,0.39727
