3997.40043,0.00311
3995.33991,0.00355
3993.27940,0.00341
3991.21888,0.00294
3989.15837,0.00281
3987.09785,0.00296
3985.03734,0.00296
3982.97682,0.00297
3980.91630,0.00300
3978.85579,0.00268
3976.79527,0.00230
3974.73476,0.00220
3972.67424,0.00232
3970.61373,0.00255
3968.55321,0.00261
3966.49269,0.00262
3964.43218,0.00278
3962.37166,0.00277
3960.31115,0.00261
3958.25063,0.00278
3956.19012,0.00311
3954.12960,0.00307
3952.06908,0.00280
3950.00857,0.00274
3947.94805,0.00288
3945.88754,0.00286
3943.82702,0.00269
3941.76651,0.00266
3939.70599,0.00309
3937.64547,0.00354
3935.58496,0.00336
3933.52444,0.00310
3931.46393,0.00300
3929.40341,0.00245
3927.34290,0.00166
3925.28238,0.00103
3923.22186,0.00094
3921.16135,0.00125
3919.10083,0.00137
3917.04032,0.00164
3914.97980,0.00212
3912.91929,0.00234
3910.85877,0.00243
3908.79825,0.00252
3906.73774,0.00254
3904.67722,0.00238
3902.61671,0.00204
3900.55619,0.00169
3898.49568,0.00174
3896.43516,0.00228
3894.37465,0.00263
3892.31413,0.00257
3890.25361,0.00263
3888.19310,0.00271
3886.13258,0.00247
3884.07207,0.00213
3882.01155,0.00179
3879.95104,0.00190
3877.89052,0.00252
3875.83000,0.00255
3873.76949,0.00196
3871.70897,0.00168
3869.64846,0.00190
3867.58794,0.00221
3865.52743,0.00224
3863.46691,0.00232
3861.40639,0.00265
3859.34588,0.00262
3857.28536,0.00197
3855.22485,0.00123
3853.16433,0.00120
3851.10382,0.00155
3849.04330,0.00162
3846.98278,0.00168
3844.92227,0.00207
3842.86175,0.00255
3840.80124,0.00243
3838.74072,0.00185
3836.68021,0.00148
3834.61969,0.00159
3832.55917,0.00193
3830.49866,0.00214
3828.43814,0.00235
3826.37763,0.00273
3824.31711,0.00271
3822.25660,0.00198
3820.19608,0.00126
3818.13556,0.00126
3816.07505,0.00176
3814.01453,0.00233
3811.95402,0.00262
3809.89350,0.00267
3807.83299,0.00257
3805.77247,0.00260
3803.71195,0.00251
3801.65144,0.00237
3799.59092,0.00278
3797.53041,0.00316
3795.46989,0.00317
3793.40938,0.00320
3791.34886,0.00324
3789.28835,0.00301
3787.22783,0.00289
3785.16731,0.00315
3783.10680,0.00331
3781.04628,0.00325
3778.98577,0.00339
3776.92525,0.00388
3774.86474,0.00429
3772.80422,0.00414
3770.74370,0.00359
3768.68319,0.00337
3766.62267,0.00339
3764.56216,0.00310
3762.50164,0.00291
3760.44113,0.00303
3758.38061,0.00338
3756.32009,0.00397
3754.25958,0.00414
3752.19906,0.00374
3750.13855,0.00331
3748.07803,0.00286
3746.01752,0.00277
3743.95700,0.00363
3741.89648,0.00475
3739.83597,0.00547
3737.77545,0.00551
3735.71494,0.00435
3733.65442,0.00345
3731.59391,0.00399
3729.53339,0.00459
3727.47287,0.00469
3725.41236,0.00459
3723.35184,0.00456
3721.29133,0.00484
3719.23081,0.00524
3717.17030,0.00548
3715.10978,0.00567
3713.04926,0.00588
3710.98875,0.00628
3708.92823,0.00681
3706.86772,0.00719
3704.80720,0.00751
3702.74669,0.00782
3700.68617,0.00821
3698.62565,0.00862
3696.56514,0.00883
3694.50462,0.00892
3692.44411,0.00930
3690.38359,0.01014
3688.32308,0.01115
3686.26256,0.01221
3684.20205,0.01339
3682.14153,0.01441
3680.08101,0.01478
3678.02050,0.01503
3675.95998,0.01596
3673.89947,0.01731
3671.83895,0.01884
3669.77844,0.02083
3667.71792,0.02252
3665.65740,0.02383
3663.59689,0.02538
3661.53637,0.02680
3659.47586,0.02802
3657.41534,0.02950
3655.35483,0.03087
3653.29431,0.03159
3651.23379,0.03254
3649.17328,0.03484
3647.11276,0.03758
3645.05225,0.03942
3642.99173,0.04078
3640.93122,0.04177
3638.87070,0.04253
3636.81018,0.04410
3634.74967,0.04656
3632.68915,0.04879
3630.62864,0.05047
3628.56812,0.05204
3626.50761,0.05321
3624.44709,0.05434
3622.38657,0.05583
3620.32606,0.05765
3618.26554,0.05976
3616.20503,0.06174
3614.14451,0.06333
3612.08400,0.06477
3610.02348,0.06612
3607.96296,0.06787
3605.90245,0.07038
3603.84193,0.07288
3601.78142,0.07516
3599.72090,0.07702
3597.66039,0.07855
3595.59987,0.08040
3593.53936,0.08228
3591.47884,0.08394
3589.41832,0.08577
3587.35781,0.08778
3585.29729,0.08939
3583.23678,0.09083
3581.17626,0.09265
3579.11575,0.09498
3577.05523,0.09751
3574.99471,0.10013
3572.93420,0.10294
3570.87368,0.10549
3568.81317,0.10756
3566.75265,0.10975
3564.69214,0.11197
3562.63162,0.11396
3560.57110,0.11615
3558.51059,0.11851
3556.45007,0.12077
3554.38956,0.12294
3552.32904,0.12561
3550.26853,0.12864
3548.20801,0.13099
3546.14749,0.13297
3544.08698,0.13528
3542.02646,0.13762
3539.96595,0.13995
3537.90543,0.14244
3535.84492,0.14497
3533.78440,0.14767
3531.72388,0.15039
3529.66337,0.15238
3527.60285,0.15401
3525.54234,0.15616
3523.48182,0.15844
3521.42131,0.16068
3519.36079,0.16298
3517.30027,0.16512
3515.23976,0.16709
3513.17924,0.16901
3511.11873,0.17114
3509.05821,0.17353
3506.99770,0.17590
3504.93718,0.17790
3502.87666,0.17932
3500.81615,0.18090
3498.75563,0.18323
3496.69512,0.18585
3494.63460,0.18856
3492.57409,0.19116
3490.51357,0.19331
3488.45306,0.19522
3486.39254,0.19707
3484.33202,0.19904
3482.27151,0.20117
3480.21099,0.20333
3478.15048,0.20599
3476.08996,0.20882
3474.02945,0.21067
3471.96893,0.21196
3469.90841,0.21377
3467.84790,0.21594
3465.78738,0.21812
3463.72687,0.22036
3461.66635,0.22260
3459.60584,0.22477
3457.54532,0.22674
3455.48480,0.22883
3453.42429,0.23126
3451.36377,0.23348
3449.30326,0.23525
3447.24274,0.23684
3445.18223,0.23888
3443.12171,0.24146
3441.06119,0.24411
3439.00068,0.24660
3436.94016,0.24859
3434.87965,0.25012
3432.81913,0.25174
3430.75862,0.25317
3428.69810,0.25464
3426.63758,0.25709
3424.57707,0.25972
3422.51655,0.26170
3420.45604,0.26371
3418.39552,0.26555
3416.33501,0.26691
3414.27449,0.26819
3412.21397,0.26953
3410.15346,0.27114
3408.09294,0.27298
3406.03243,0.27434
3403.97191,0.27520
3401.91140,0.27656
3399.85088,0.27841
3397.79036,0.27985
3395.72985,0.28072
3393.66933,0.28125
3391.60882,0.28161
3389.54830,0.28257
3387.48779,0.28430
3385.42727,0.28556
3383.36676,0.28601
3381.30624,0.28644
3379.24572,0.28717
3377.18521,0.28762
3375.12469,0.28744
3373.06418,0.28707
3371.00366,0.28708
3368.94315,0.28730
3366.88263,0.28729
3364.82211,0.28721
3362.76160,0.28695
3360.70108,0.28658
3358.64057,0.28640
3356.58005,0.28622
3354.51954,0.28579
3352.45902,0.28498
3350.39850,0.28404
3348.33799,0.28393
3346.27747,0.28429
3344.21696,0.28378
3342.15644,0.28289
3340.09593,0.28219
3338.03541,0.28150
3335.97489,0.28124
3333.91438,0.28110
3331.85386,0.28046
3329.79335,0.27964
3327.73283,0.27902
3325.67232,0.27823
3323.61180,0.27736
3321.55128,0.27694
3319.49077,0.27665
3317.43025,0.27635
3315.36974,0.27591
3313.30922,0.27526
3311.24871,0.27475
3309.18819,0.27397
3307.12767,0.27293
3305.06716,0.27223
3303.00664,0.27200
3300.94613,0.27196
3298.88561,0.27151
3296.82510,0.27097
3294.76458,0.27063
3292.70406,0.26994
3290.64355,0.26901
3288.58303,0.26842
3286.52252,0.26864
3284.46200,0.26935
3282.40149,0.26968
3280.34097,0.26947
3278.28046,0.26895
3276.21994,0.26825
3274.15942,0.26738
3272.09891,0.26636
3270.03839,0.26558
3267.97788,0.26540
3265.91736,0.26526
3263.85685,0.26455
3261.79633,0.26373
3259.73581,0.26300
3257.67530,0.26213
3255.61478,0.26116
3253.55427,0.26027
3251.49375,0.25964
3249.43324,0.25914
3247.37272,0.25836
3245.31220,0.25720
3243.25169,0.25605
3241.19117,0.25526
3239.13066,0.25432
3237.07014,0.25281
3235.00963,0.25144
3232.94911,0.25046
3230.88859,0.24909
3228.82808,0.24704
3226.76756,0.24507
3224.70705,0.24347
3222.64653,0.24181
3220.58602,0.23996
3218.52550,0.23798
3216.46498,0.23616
3214.40447,0.23471
3212.34395,0.23324
3210.28344,0.23088
3208.22292,0.22796
3206.16241,0.22597
3204.10189,0.22476
3202.04137,0.22306
3199.98086,0.22043
3197.92034,0.21760
3195.85983,0.21543
3193.79931,0.21356
3191.73880,0.21095
3189.67828,0.20771
3187.61777,0.20469
3185.55725,0.20217
3183.49673,0.19992
3181.43622,0.19748
3179.37570,0.19476
3177.31519,0.19227
3175.25467,0.19004
3173.19416,0.18760
3171.13364,0.18507
3169.07312,0.18280
3167.01261,0.18052
3164.95209,0.17773
3162.89158,0.17483
3160.83106,0.17202
3158.77055,0.16912
3156.71003,0.16650
3154.64951,0.16406
3152.58900,0.16149
3150.52848,0.15888
3148.46797,0.15620
3146.40745,0.15352
3144.34694,0.15112
3142.28642,0.14881
3140.22590,0.14624
3138.16539,0.14352
3136.10487,0.14109
3134.04436,0.13878
3131.98384,0.13620
3129.92333,0.13370
3127.86281,0.13131
3125.80229,0.12900
3123.74178,0.12691
3121.68126,0.12476
3119.62075,0.12248
3117.56023,0.12042
3115.49972,0.11849
3113.43920,0.11644
3111.37868,0.11455
3109.31817,0.11268
3107.25765,0.11024
3105.19714,0.10760
3103.13662,0.10554
3101.07611,0.10371
3099.01559,0.10176
3096.95507,0.10006
3094.89456,0.09835
3092.83404,0.09646
3090.77353,0.09488
3088.71301,0.09329
3086.65250,0.09137
3084.59198,0.08944
3082.53147,0.08762
3080.47095,0.08610
3078.41043,0.08485
3076.34992,0.08339
3074.28940,0.08172
3072.22889,0.08006
3070.16837,0.07830
3068.10786,0.07657
3066.04734,0.07514
3063.98682,0.07392
3061.92631,0.07257
3059.86579,0.07102
3057.80528,0.06945
3055.74476,0.06780
3053.68425,0.06638
3051.62373,0.06529
3049.56321,0.06405
3047.50270,0.06266
3045.44218,0.06148
3043.38167,0.06056
3041.32115,0.05960
3039.26064,0.05834
3037.20012,0.05695
3035.13960,0.05584
3033.07909,0.05491
3031.01857,0.05379
3028.95806,0.05261
3026.89754,0.05171
3024.83703,0.05117
3022.77651,0.05059
3020.71599,0.04963
3018.65548,0.04846
3016.59496,0.04743
3014.53445,0.04673
3012.47393,0.04613
3010.41342,0.04525
3008.35290,0.04424
3006.29238,0.04347
3004.23187,0.04294
3002.17135,0.04222
3000.11084,0.04142
2998.05032,0.04102
2995.98981,0.04087
2993.92929,0.04056
2991.86877,0.04007
2989.80826,0.03958
2987.74774,0.03939
2985.68723,0.03980
2983.62671,0.04053
2981.56620,0.04118
2979.50568,0.04190
2977.44517,0.04290
2975.38465,0.04395
2973.32413,0.04489
2971.26362,0.04587
2969.20310,0.04698
2967.14259,0.04816
2965.08207,0.04953
2963.02156,0.05096
2960.96104,0.05201
2958.90052,0.05276
2956.84001,0.05361
2954.77949,0.05441
2952.71898,0.05486
2950.65846,0.05520
2948.59795,0.05567
2946.53743,0.05644
2944.47691,0.05735
2942.41640,0.05811
2940.35588,0.05870
2938.29537,0.05937
2936.23485,0.06037
2934.17434,0.06151
2932.11382,0.06241
2930.05330,0.06316
2927.99279,0.06403
2925.93227,0.06499
2923.87176,0.06578
2921.81124,0.06619
2919.75073,0.06623
2917.69021,0.06594
2915.62969,0.06528
2913.56918,0.06438
2911.50866,0.06362
2909.44815,0.06297
2907.38763,0.06201
2905.32712,0.06074
2903.26660,0.05952
2901.20608,0.05865
2899.14557,0.05797
2897.08505,0.05727
2895.02454,0.05696
2892.96402,0.05736
2890.90351,0.05816
2888.84299,0.05891
2886.78247,0.05950
2884.72196,0.06005
2882.66144,0.06038
2880.60093,0.06023
2878.54041,0.05962
2876.47990,0.05823
2874.41938,0.05620
2872.35887,0.05416
2870.29835,0.05186
2868.23783,0.04897
2866.17732,0.04602
2864.11680,0.04338
2862.05629,0.04099
2859.99577,0.03880
2857.93526,0.03677
2855.87474,0.03482
2853.81422,0.03296
2851.75371,0.03135
2849.69319,0.03010
2847.63268,0.02907
2845.57216,0.02785
2843.51165,0.02645
2841.45113,0.02528
2839.39061,0.02446
2837.33010,0.02395
2835.26958,0.02357
2833.20907,0.02298
2831.14855,0.02222
2829.08804,0.02163
2827.02752,0.02129
2824.96700,0.02085
2822.90649,0.02034
2820.84597,0.02003
2818.78546,0.01960
2816.72494,0.01897
2814.66443,0.01835
2812.60391,0.01764
2810.54339,0.01704
2808.48288,0.01668
2806.42236,0.01637
2804.36185,0.01596
2802.30133,0.01548
2800.24082,0.01517
2798.18030,0.01490
2796.11978,0.01440
2794.05927,0.01400
2791.99875,0.01384
2789.93824,0.01345
2787.87772,0.01291
2785.81721,0.01261
2783.75669,0.01249
2781.69618,0.01227
2779.63566,0.01205
2777.57514,0.01200
2775.51463,0.01179
2773.45411,0.01132
2771.39360,0.01097
2769.33308,0.01068
2767.27257,0.01038
2765.21205,0.01038
2763.15153,0.01043
2761.09102,0.01007
2759.03050,0.00981
2756.96999,0.00980
2754.90947,0.00963
2752.84896,0.00954
2750.78844,0.00966
2748.72792,0.00973
2746.66741,0.00976
2744.60689,0.00984
2742.54638,0.00980
2740.48586,0.00946
2738.42535,0.00903
2736.36483,0.00876
2734.30431,0.00864
2732.24380,0.00859
2730.18328,0.00858
2728.12277,0.00854
2726.06225,0.00835
2724.00174,0.00804
2721.94122,0.00783
2719.88070,0.00771
2717.82019,0.00756
2715.75967,0.00736
2713.69916,0.00722
2711.63864,0.00731
2709.57813,0.00755
2707.51761,0.00747
2705.45709,0.00718
2703.39658,0.00708
2701.33606,0.00698
2699.27555,0.00674
2697.21503,0.00664
2695.15452,0.00667
2693.09400,0.00657
2691.03348,0.00623
2688.97297,0.00585
2686.91245,0.00566
2684.85194,0.00558
2682.79142,0.00549
2680.73091,0.00541
2678.67039,0.00539
2676.60988,0.00553
2674.54936,0.00570
2672.48884,0.00575
2670.42833,0.00570
2668.36781,0.00556
2666.30730,0.00546
2664.24678,0.00542
2662.18627,0.00514
2660.12575,0.00479
2658.06523,0.00476
2656.00472,0.00487
2653.94420,0.00495
2651.88369,0.00507
2649.82317,0.00487
2647.76266,0.00433
2645.70214,0.00414
2643.64162,0.00440
2641.58111,0.00456
2639.52059,0.00439
2637.46008,0.00429
2635.39956,0.00440
2633.33905,0.00452
2631.27853,0.00465
2629.21801,0.00472
2627.15750,0.00456
2625.09698,0.00449
2623.03647,0.00451
2620.97595,0.00421
2618.91544,0.00402
2616.85492,0.00411
2614.79440,0.00401
2612.73389,0.00384
2610.67337,0.00365
2608.61286,0.00345
2606.55234,0.00370
2604.49183,0.00420
2602.43131,0.00432
2600.37079,0.00421
2598.31028,0.00434
2596.24976,0.00458
2594.18925,0.00448
2592.12873,0.00418
2590.06822,0.00411
2588.00770,0.00426
2585.94718,0.00422
2583.88667,0.00373
2581.82615,0.00335
2579.76564,0.00379
2577.70512,0.00435
2575.64461,0.00424
2573.58409,0.00410
2571.52358,0.00436
2569.46306,0.00429
2567.40254,0.00389
2565.34203,0.00382
2563.28151,0.00391
2561.22100,0.00395
2559.16048,0.00408
2557.09997,0.00432
2555.03945,0.00444
2552.97893,0.00425
2550.91842,0.00395
2548.85790,0.00379
2546.79739,0.00410
2544.73687,0.00452
2542.67636,0.00431
2540.61584,0.00409
2538.55532,0.00457
2536.49481,0.00511
2534.43429,0.00500
2532.37378,0.00449
2530.31326,0.00426
2528.25275,0.00423
2526.19223,0.00402
2524.13171,0.00391
2522.07120,0.00408
2520.01068,0.00425
2517.95017,0.00437
2515.88965,0.00455
2513.82914,0.00478
2511.76862,0.00489
2509.70810,0.00476
2507.64759,0.00478
2505.58707,0.00519
2503.52656,0.00518
2501.46604,0.00458
2499.40553,0.00431
2497.34501,0.00450
2495.28449,0.00472
2493.22398,0.00495
2491.16346,0.00509
2489.10295,0.00522
2487.04243,0.00559
2484.98192,0.00589
2482.92140,0.00574
2480.86088,0.00519
2478.80037,0.00454
2476.73985,0.00422
2474.67934,0.00426
2472.61882,0.00450
2470.55831,0.00495
2468.49779,0.00537
2466.43728,0.00526
2464.37676,0.00490
2462.31624,0.00498
2460.25573,0.00524
2458.19521,0.00515
2456.13470,0.00506
2454.07418,0.00541
2452.01367,0.00584
2449.95315,0.00587
2447.89263,0.00561
2445.83212,0.00521
2443.77160,0.00463
2441.71109,0.00449
2439.65057,0.00513
2437.59006,0.00557
2435.52954,0.00548
2433.46902,0.00558
2431.40851,0.00566
2429.34799,0.00511
2427.28748,0.00460
2425.22696,0.00484
2423.16645,0.00548
2421.10593,0.00606
2419.04541,0.00607
2416.98490,0.00545
2414.92438,0.00508
2412.86387,0.00544
2410.80335,0.00611
2408.74284,0.00650
2406.68232,0.00646
2404.62180,0.00630
2402.56129,0.00647
2400.50077,0.00711
2398.44026,0.00763
2396.37974,0.00749
2394.31923,0.00723
2392.25871,0.00735
2390.19819,0.00747
2388.13768,0.00727
2386.07716,0.00670
2384.01665,0.00615
2381.95613,0.00624
2379.89562,0.00678
2377.83510,0.00705
2375.77459,0.00686
2373.71407,0.00675
2371.65355,0.00698
2369.59304,0.00742
2367.53252,0.00771
2365.47201,0.00757
2363.41149,0.00744
2361.35098,0.00753
2359.29046,0.00804
2357.22994,0.00830
2355.16943,0.00761
2353.10891,0.00715
2351.04840,0.00712
2348.98788,0.00726
2346.92737,0.00764
2344.86685,0.00811
2342.80633,0.00875
2340.74582,0.00931
2338.68530,0.00915
2336.62479,0.00869
2334.56427,0.00860
2332.50376,0.00859
2330.44324,0.00837
2328.38272,0.00823
2326.32221,0.00804
2324.26169,0.00769
2322.20118,0.00766
2320.14066,0.00816
2318.08015,0.00871
2316.01963,0.00881
2313.95911,0.00872
2311.89860,0.00934
2309.83808,0.01015
2307.77757,0.00974
2305.71705,0.00895
2303.65654,0.00911
2301.59602,0.00946
2299.53550,0.00947
2297.47499,0.00961
2295.41447,0.00955
2293.35396,0.00932
2291.29344,0.00960
2289.23293,0.00990
2287.17241,0.00969
2285.11189,0.00954
2283.05138,0.00965
2280.99086,0.00971
2278.93035,0.00977
2276.86983,0.00969
2274.80932,0.00878
2272.74880,0.00799
2270.68829,0.00868
2268.62777,0.00951
2266.56725,0.00952
2264.50674,0.00964
2262.44622,0.00999
2260.38571,0.01029
2258.32519,0.01039
2256.26468,0.01016
2254.20416,0.00968
2252.14364,0.00911
2250.08313,0.00905
2248.02261,0.01002
2245.96210,0.01108
2243.90158,0.01144
2241.84107,0.01118
2239.78055,0.01008
2237.72003,0.00874
2235.65952,0.00862
2233.59900,0.00910
2231.53849,0.00907
2229.47797,0.00938
2227.41746,0.00969
2225.35694,0.00963
2223.29642,0.01022
2221.23591,0.01087
2219.17539,0.01062
2217.11488,0.01023
2215.05436,0.01031
2212.99385,0.00986
2210.93333,0.00939
2208.87281,0.01005
2206.81230,0.01110
2204.75178,0.01204
2202.69127,0.01248
2200.63075,0.01226
2198.57024,0.01172
2196.50972,0.01065
2194.44920,0.00943
2192.38869,0.00978
2190.32817,0.01190
2188.26766,0.01323
2186.20714,0.01272
2184.14663,0.01145
2182.08611,0.01052
2180.02559,0.01096
2177.96508,0.01148
2175.90456,0.01106
2173.84405,0.01105
2171.78353,0.01163
2169.72302,0.01249
2167.66250,0.01308
2165.60199,0.01239
2163.54147,0.01086
2161.48095,0.00926
2159.42044,0.00856
2157.35992,0.00969
2155.29941,0.01110
2153.23889,0.01220
2151.17838,0.01327
2149.11786,0.01339
2147.05734,0.01307
2144.99683,0.01347
2142.93631,0.01446
2140.87580,0.01498
2138.81528,0.01407
2136.75477,0.01304
2134.69425,0.01380
2132.63373,0.01512
2130.57322,0.01515
2128.51270,0.01479
2126.45219,0.01506
2124.39167,0.01506
2122.33116,0.01479
2120.27064,0.01498
2118.21012,0.01508
2116.14961,0.01506
2114.08909,0.01557
2112.02858,0.01601
2109.96806,0.01583
2107.90755,0.01569
2105.84703,0.01542
2103.78651,0.01499
2101.72600,0.01551
2099.66548,0.01626
2097.60497,0.01603
2095.54445,0.01522
2093.48394,0.01478
2091.42342,0.01509
2089.36290,0.01528
2087.30239,0.01473
2085.24187,0.01413
2083.18136,0.01406
2081.12084,0.01422
2079.06033,0.01442
2076.99981,0.01484
2074.93930,0.01517
2072.87878,0.01525
2070.81826,0.01588
2068.75775,0.01640
2066.69723,0.01497
2064.63672,0.01297
2062.57620,0.01296
2060.51569,0.01436
2058.45517,0.01479
2056.39465,0.01342
2054.33414,0.01234
2052.27362,0.01306
2050.21311,0.01408
2048.15259,0.01346
2046.09208,0.01183
2044.03156,0.01135
2041.97104,0.01199
2039.91053,0.01245
2037.85001,0.01133
2035.78950,0.00920
2033.72898,0.00827
2031.66847,0.00752
2029.60795,0.00679
2027.54743,0.00892
2025.48692,0.01257
2023.42640,0.01385
2021.36589,0.01171
2019.30537,0.00821
2017.24486,0.00653
2015.18434,0.00766
2013.12382,0.00975
2011.06331,0.01037
2009.00279,0.00974
2006.94228,0.00956
2004.88176,0.00989
2002.82125,0.01027
2000.76073,0.01032
1998.70021,0.01070
1996.63970,0.01194
1994.57918,0.01248
1992.51867,0.01120
1990.45815,0.00980
1988.39764,0.00997
1986.33712,0.01050
1984.27660,0.01029
1982.21609,0.01006
1980.15557,0.01032
1978.09506,0.01070
1976.03454,0.01085
1973.97403,0.01110
1971.91351,0.01079
1969.85300,0.00907
1967.79248,0.00804
1965.73196,0.00847
1963.67145,0.00836
1961.61093,0.00778
1959.55042,0.00811
1957.48990,0.00878
1955.42939,0.00916
1953.36887,0.00956
1951.30835,0.00947
1949.24784,0.00942
1947.18732,0.00988
1945.12681,0.01028
1943.06629,0.01094
1941.00578,0.01161
1938.94526,0.01159
1936.88474,0.01148
1934.82423,0.01140
1932.76371,0.01051
1930.70320,0.00952
1928.64268,0.00953
1926.58217,0.00976
1924.52165,0.00947
1922.46113,0.00887
1920.40062,0.00849
1918.34010,0.00862
1916.27959,0.00877
1914.21907,0.00829
1912.15856,0.00772
1910.09804,0.00793
1908.03752,0.00855
1905.97701,0.00857
1903.91649,0.00805
1901.85598,0.00761
1899.79546,0.00771
1897.73495,0.00832
1895.67443,0.00875
1893.61391,0.00848
1891.55340,0.00801
1889.49288,0.00794
1887.43237,0.00811
1885.37185,0.00824
1883.31134,0.00853
1881.25082,0.00900
1879.19030,0.00913
1877.12979,0.00853
1875.06927,0.00778
1873.00876,0.00755
1870.94824,0.00768
1868.88773,0.00802
1866.82721,0.00843
1864.76670,0.00865
1862.70618,0.00878
1860.64566,0.00871
1858.58515,0.00870
1856.52463,0.00901
1854.46412,0.00911
1852.40360,0.00883
1850.34309,0.00877
1848.28257,0.00899
1846.22205,0.00900
1844.16154,0.00869
1842.10102,0.00853
1840.04051,0.00875
1837.97999,0.00918
1835.91948,0.00962
1833.85896,0.00984
1831.79844,0.00984
1829.73793,0.00967
1827.67741,0.00921
1825.61690,0.00864
1823.55638,0.00861
1821.49587,0.00907
1819.43535,0.00938
1817.37483,0.00961
1815.31432,0.00977
1813.25380,0.00966
1811.19329,0.00971
1809.13277,0.01026
1807.07226,0.01075
1805.01174,0.01090
1802.95122,0.01101
1800.89071,0.01125
1798.83019,0.01139
1796.76968,0.01152
1794.70916,0.01171
1792.64865,0.01187
1790.58813,0.01226
1788.52761,0.01251
1786.46710,0.01235
1784.40658,0.01226
1782.34607,0.01235
1780.28555,0.01252
1778.22504,0.01294
1776.16452,0.01343
1774.10400,0.01375
1772.04349,0.01386
1769.98297,0.01402
1767.92246,0.01450
1765.86194,0.01504
1763.80143,0.01532
1761.74091,0.01541
1759.68040,0.01580
1757.61988,0.01652
1755.55936,0.01705
1753.49885,0.01723
1751.43833,0.01751
1749.37782,0.01821
1747.31730,0.01912
1745.25679,0.01974
1743.19627,0.02009
1741.13575,0.02064
1739.07524,0.02168
1737.01472,0.02273
1734.95421,0.02337
1732.89369,0.02416
1730.83318,0.02510
1728.77266,0.02603
1726.71214,0.02725
1724.65163,0.02876
1722.59111,0.03011
1720.53060,0.03103
1718.47008,0.03203
1716.40957,0.03381
1714.34905,0.03589
1712.28853,0.03763
1710.22802,0.03937
1708.16750,0.04133
1706.10699,0.04352
1704.04647,0.04550
1701.98596,0.04719
1699.92544,0.04969
1697.86492,0.05284
1695.80441,0.05629
1693.74389,0.05981
1691.68338,0.06267
1689.62286,0.06555
1687.56235,0.06847
1685.50183,0.07180
1683.44131,0.07668
1681.38080,0.08121
1679.32028,0.08493
1677.25977,0.08858
1675.19925,0.09253
1673.13874,0.09658
1671.07822,0.10052
1669.01771,0.10511
1666.95719,0.10976
1664.89667,0.11368
1662.83616,0.11748
1660.77564,0.12138
1658.71513,0.12492
1656.65461,0.12763
1654.59410,0.12988
1652.53358,0.13327
1650.47306,0.13638
1648.41255,0.13837
1646.35203,0.14021
1644.29152,0.14158
1642.23100,0.14222
1640.17049,0.14236
1638.10997,0.14192
1636.04945,0.14055
1633.98894,0.13877
1631.92842,0.13715
1629.86791,0.13464
1627.80739,0.13094
1625.74688,0.12698
1623.68636,0.12266
1621.62584,0.11785
1619.56533,0.11346
1617.50481,0.10846
1615.44430,0.10270
1613.38378,0.09824
1611.32327,0.09442
1609.26275,0.09022
1607.20223,0.08585
1605.14172,0.08179
1603.08120,0.07814
1601.02069,0.07503
1598.96017,0.07233
1596.89966,0.06964
1594.83914,0.06692
1592.77862,0.06438
1590.71811,0.06207
1588.65759,0.05990
1586.59708,0.05785
1584.53656,0.05607
1582.47605,0.05464
1580.41553,0.05341
1578.35501,0.05216
1576.29450,0.05070
1574.23398,0.04953
1572.17347,0.04860
1570.11295,0.04725
1568.05244,0.04602
1565.99192,0.04545
1563.93141,0.04505
1561.87089,0.04450
1559.81037,0.04336
1557.74986,0.04208
1555.68934,0.04187
1553.62883,0.04167
1551.56831,0.04101
1549.50780,0.04021
1547.44728,0.03964
1545.38676,0.03917
1543.32625,0.03852
1541.26573,0.03779
1539.20522,0.03753
1537.14470,0.03774
1535.08419,0.03766
1533.02367,0.03729
1530.96315,0.03695
1528.90264,0.03651
1526.84212,0.03599
1524.78161,0.03569
1522.72109,0.03561
1520.66058,0.03579
1518.60006,0.03603
1516.53954,0.03585
1514.47903,0.03561
1512.41851,0.03551
1510.35800,0.03512
1508.29748,0.03447
1506.23697,0.03453
1504.17645,0.03533
1502.11593,0.03590
1500.05542,0.03618
1497.99490,0.03632
1495.93439,0.03670
1493.87387,0.03739
1491.81336,0.03820
1489.75284,0.03916
1487.69232,0.04029
1485.63181,0.04163
1483.57129,0.04333
1481.51078,0.04582
1479.45026,0.04928
1477.38975,0.05330
1475.32923,0.05712
1473.26871,0.05976
1471.20820,0.06097
1469.14768,0.06135
1467.08717,0.06154
1465.02665,0.06198
1462.96614,0.06264
1460.90562,0.06320
1458.84511,0.06373
1456.78459,0.06408
1454.72407,0.06345
1452.66356,0.06177
1450.60304,0.05957
1448.54253,0.05740
1446.48201,0.05561
1444.42150,0.05394
1442.36098,0.05189
1440.30046,0.04968
1438.23995,0.04744
1436.17943,0.04524
1434.11892,0.04406
1432.05840,0.04371
1429.99789,0.04342
1427.93737,0.04311
1425.87685,0.04281
1423.81634,0.04248
1421.75582,0.04218
1419.69531,0.04195
1417.63479,0.04194
1415.57428,0.04190
1413.51376,0.04164
1411.45324,0.04145
1409.39273,0.04158
1407.33221,0.04179
1405.27170,0.04183
1403.21118,0.04179
1401.15067,0.04181
1399.09015,0.04180
1397.02963,0.04171
1394.96912,0.04175
1392.90860,0.04205
1390.84809,0.04233
1388.78757,0.04224
1386.72706,0.04210
1384.66654,0.04238
1382.60602,0.04300
1380.54551,0.04372
1378.48499,0.04434
1376.42448,0.04483
1374.36396,0.04556
1372.30345,0.04687
1370.24293,0.04862
1368.18241,0.05063
1366.12190,0.05273
1364.06138,0.05519
1362.00087,0.05866
1359.94035,0.06295
1357.87984,0.06769
1355.81932,0.07288
1353.75881,0.07826
1351.69829,0.08304
1349.63777,0.08497
1347.57726,0.08121
1345.51674,0.07202
1343.45623,0.06174
1341.39571,0.05440
1339.33520,0.05078
1337.27468,0.04968
1335.21416,0.04964
1333.15365,0.04966
1331.09313,0.04914
1329.03262,0.04824
1326.97210,0.04730
1324.91159,0.04651
1322.85107,0.04602
1320.79055,0.04582
1318.73004,0.04621
1316.66952,0.04742
1314.60901,0.04924
1312.54849,0.05152
1310.48798,0.05407
1308.42746,0.05658
1306.36694,0.05887
1304.30643,0.06077
1302.24591,0.06212
1300.18540,0.06290
1298.12488,0.06318
1296.06437,0.06312
1294.00385,0.06306
1291.94333,0.06316
1289.88282,0.06309
1287.82230,0.06260
1285.76179,0.06182
1283.70127,0.06082
1281.64076,0.05960
1279.58024,0.05817
1277.51972,0.05663
1275.45921,0.05529
1273.39869,0.05430
1271.33818,0.05374
1269.27766,0.05387
1267.21715,0.05476
1265.15663,0.05629
1263.09612,0.05854
1261.03560,0.06123
1258.97508,0.06373
1256.91457,0.06610
1254.85405,0.06848
1252.79354,0.07006
1250.73302,0.07026
1248.67251,0.06923
1246.61199,0.06712
1244.55147,0.06443
1242.49096,0.06172
1240.43044,0.05918
1238.36993,0.05693
1236.30941,0.05486
1234.24890,0.05271
1232.18838,0.05048
1230.12786,0.04854
1228.06735,0.04717
1226.00683,0.04626
1223.94632,0.04545
1221.88580,0.04456
1219.82529,0.04372
1217.76477,0.04313
1215.70425,0.04272
1213.64374,0.04234
1211.58322,0.04186
1209.52271,0.04136
1207.46219,0.04108
1205.40168,0.04100
1203.34116,0.04095
1201.28064,0.04090
1199.22013,0.04090
1197.15961,0.04092
1195.09910,0.04091
1193.03858,0.04088
1190.97807,0.04091
1188.91755,0.04112
1186.85703,0.04135
1184.79652,0.04151
1182.73600,0.04180
1180.67549,0.04209
1178.61497,0.04234
1176.55446,0.04286
1174.49394,0.04363
1172.43342,0.04438
1170.37291,0.04519
1168.31239,0.04625
1166.25188,0.04766
1164.19136,0.04961
1162.13085,0.05218
1160.07033,0.05538
1158.00982,0.05938
1155.94930,0.06425
1153.88878,0.06988
1151.82827,0.07619
1149.76775,0.08305
1147.70724,0.09032
1145.64672,0.09791
1143.58621,0.10530
1141.52569,0.11189
1139.46517,0.11758
1137.40466,0.12257
1135.34414,0.12671
1133.28363,0.13004
1131.22311,0.13323
1129.16260,0.13685
1127.10208,0.14110
1125.04156,0.14604
1122.98105,0.15155
1120.92053,0.15750
1118.86002,0.16386
1116.79950,0.17062
1114.73899,0.17749
1112.67847,0.18390
1110.61795,0.18988
1108.55744,0.19622
1106.49692,0.20367
1104.43641,0.21162
1102.37589,0.21905
1100.31538,0.22614
1098.25486,0.23302
1096.19434,0.23915
1094.13383,0.24455
1092.07331,0.24941
1090.01280,0.25353
1087.95228,0.25686
1085.89177,0.25942
1083.83125,0.26079
1081.77073,0.26052
1079.71022,0.25892
1077.64970,0.25643
1075.58919,0.25277
1073.52867,0.24808
1071.46816,0.24306
1069.40764,0.23745
1067.34712,0.23059
1065.28661,0.22233
1063.22609,0.21238
1061.16558,0.20064
1059.10506,0.18787
1057.04455,0.17476
1054.98403,0.16169
1052.92352,0.14933
1050.86300,0.13824
1048.80248,0.12880
1046.74197,0.12163
1044.68145,0.11693
1042.62094,0.11399
1040.56042,0.11201
1038.49991,0.11052
1036.43939,0.10918
1034.37887,0.10774
1032.31836,0.10578
1030.25784,0.10301
1028.19733,0.09971
1026.13681,0.09605
1024.07630,0.09212
1022.01578,0.08819
1019.95526,0.08427
1017.89475,0.08039
1015.83423,0.07703
1013.77372,0.07439
1011.71320,0.07226
1009.65269,0.07052
1007.59217,0.06912
1005.53165,0.06794
1003.47114,0.06700
1001.41062,0.06618
999.35011,0.06541
997.28959,0.06512
995.22908,0.06544
993.16856,0.06572
991.10804,0.06551
989.04753,0.06510
986.98701,0.06480
984.92650,0.06451
982.86598,0.06400
980.80547,0.06351
978.74495,0.06339
976.68443,0.06365
974.62392,0.06412
972.56340,0.06478
970.50289,0.06603
968.44237,0.06812
966.38186,0.07087
964.32134,0.07453
962.26082,0.07968
960.20031,0.08639
958.13979,0.09421
956.07928,0.10236
954.01876,0.11032
951.95825,0.11734
949.89773,0.12240
947.83722,0.12506
945.77670,0.12557
943.71618,0.12460
941.65567,0.12260
939.59515,0.12006
937.53464,0.11755
935.47412,0.11494
933.41361,0.11193
931.35309,0.10876
929.29257,0.10593
927.23206,0.10380
925.17154,0.10251
923.11103,0.10168
921.05051,0.10079
918.99000,0.09998
916.92948,0.09944
914.86896,0.09884
912.80845,0.09795
910.74793,0.09687
908.68742,0.09590
906.62690,0.09537
904.56639,0.09535
902.50587,0.09577
900.44535,0.09621
898.38484,0.09678
896.32432,0.09840
894.26381,0.10107
892.20329,0.10401
890.14278,0.10655
888.08226,0.10855
886.02174,0.11038
883.96123,0.11186
881.90071,0.11265
879.84020,0.11293
877.77968,0.11338
875.71917,0.11451
873.65865,0.11596
871.59813,0.11740
869.53762,0.11899
867.47710,0.12073
865.41659,0.12286
863.35607,0.12533
861.29556,0.12754
859.23504,0.12972
857.17453,0.13252
855.11401,0.13593
853.05349,0.13961
850.99298,0.14346
848.93246,0.14715
846.87195,0.15049
844.81143,0.15417
842.75092,0.15824
840.69040,0.16178
838.62988,0.16451
836.56937,0.16642
834.50885,0.16812
832.44834,0.17044
830.38782,0.17281
828.32731,0.17466
826.26679,0.17644
824.20627,0.17804
822.14576,0.17908
820.08524,0.18019
818.02473,0.18202
815.96421,0.18431
813.90370,0.18630
811.84318,0.18804
809.78266,0.18973
807.72215,0.19108
805.66163,0.19254
803.60112,0.19468
801.54060,0.19736
799.48009,0.19968
797.41957,0.20141
795.35905,0.20352
793.29854,0.20604
791.23802,0.20847
789.17751,0.21123
787.11699,0.21402
785.05648,0.21614
782.99596,0.21822
780.93544,0.22113
778.87493,0.22442
776.81441,0.22713
774.75390,0.22919
772.69338,0.23103
770.63287,0.23329
768.57235,0.23610
766.51183,0.23919
764.45132,0.24242
762.39080,0.24507
760.33029,0.24731
758.26977,0.25023
756.20926,0.25392
754.14874,0.25715
752.08823,0.25936
750.02771,0.26176
747.96719,0.26490
745.90668,0.26811
743.84616,0.27093
741.78565,0.27351
739.72513,0.27610
737.66462,0.27830
735.60410,0.28066
733.54358,0.28410
731.48307,0.28767
729.42255,0.29035
727.36204,0.29230
725.30152,0.29425
723.24101,0.29694
721.18049,0.30029
719.11997,0.30322
717.05946,0.30571
714.99894,0.30924
712.93843,0.31377
710.87791,0.31726
708.81740,0.31945
706.75688,0.32177
704.69636,0.32433
702.63585,0.32670
700.57533,0.32880
698.51482,0.33078
696.45430,0.33321
694.39379,0.33607
692.33327,0.33870
690.27275,0.34129
688.21224,0.34479
686.15172,0.34861
684.09121,0.35107
682.03069,0.35251
679.97018,0.35503
677.90966,0.35864
675.84914,0.36122
673.78863,0.36278
671.72811,0.36448
669.66760,0.36676
667.60708,0.37012
665.54657,0.37317
663.48605,0.37523
661.42553,0.37684
659.36502,0.37849
657.30450,0.38062
655.24399,0.38317
653.18347,0.38521
651.12296,0.38614
649.06244,0.38697
647.00193,0.38893
644.94141,0.39201
642.88089,0.39480
640.82038,0.39650
638.75986,0.39842
636.69935,0.40148
634.63883,0.40499
632.57832,0.40731
630.51780,0.40825
628.45728,0.40953
626.39677,0.41113
624.33625,0.41242
622.27574,0.41398
620.21522,0.41529
618.15471,0.41594
616.09419,0.41703
614.03367,0.41884
611.97316,0.41987
609.91264,0.42061
607.85213,0.42424
605.79161,0.42977
603.73110,0.43271
601.67058,0.43300
599.61006,0.43209
597.54955,0.43127
595.48903,0.43345
593.42852,0.43762
591.36800,0.43974
589.30749,0.44079
587.24697,0.44418
585.18645,0.44797
583.12594,0.44860
581.06542,0.44736
579.00491,0.44823
576.94439,0.45194
574.88388,0.45495
572.82336,0.45575
570.76284,0.45562
568.70233,0.45455
566.64181,0.45375
564.58130,0.45522
562.52078,0.45757
560.46027,0.45950
558.39975,0.46141
556.33924,0.46275
554.27872,0.46199
552.21820,0.46055
550.15769,0.46233
548.09717,0.46492
546.03666,0.46480
543.97614,0.46546
541.91563,0.46831
539.85511,0.47148
537.79459,0.47495
535.73408,0.47693
533.67356,0.47644
531.61305,0.47705
529.55253,0.47834
527.49202,0.47715
525.43150,0.47707
523.37098,0.48065
521.31047,0.48370
519.24995,0.48427
517.18944,0.48345
515.12892,0.48299
513.06841,0.48396
511.00789,0.48469
508.94737,0.48517
506.88686,0.48740
504.82634,0.49047
502.76583,0.49280
500.70531,0.49345
498.64480,0.49130
496.58428,0.48964
494.52376,0.48977
492.46325,0.48760
490.40273,0.48538
488.34222,0.48561
486.28170,0.48657
484.22119,0.49083
482.16067,0.49489
480.10015,0.49435
478.03964,0.49461
475.97912,0.49495
473.91861,0.49204
471.85809,0.48964
469.79758,0.49049
467.73706,0.49220
465.67654,0.49163
463.61603,0.49131
461.55551,0.49344
459.49500,0.49359
457.43448,0.49073
455.37397,0.48962
453.31345,0.48678
451.25294,0.48155
449.19242,0.48327
447.13190,0.49022
445.07139,0.49161
443.01087,0.48951
440.95036,0.48858
438.88984,0.48943
436.82933,0.49500
434.76881,0.49737
432.70829,0.48926
430.64778,0.48432
428.58726,0.48771
426.52675,0.48454
424.46623,0.47682
422.40572,0.47995
420.34520,0.48833
418.28468,0.48559
416.22417,0.47949
414.16365,0.47986
412.10314,0.48090
410.04262,0.48210
407.98211,0.48113
405.92159,0.47497
403.86107,0.46970
401.80056,0.46891
399.74004,0.47487
