3997.40043,0.00291
3995.33991,0.00339
3993.27940,0.00357
3991.21888,0.00298
3989.15837,0.00225
3987.09785,0.00212
3985.03734,0.00263
3982.97682,0.00311
3980.91630,0.00297
3978.85579,0.00239
3976.79527,0.00180
3974.73476,0.00166
3972.67424,0.00200
3970.61373,0.00238
3968.55321,0.00254
3966.49269,0.00255
3964.43218,0.00260
3962.37166,0.00268
3960.31115,0.00257
3958.25063,0.00248
3956.19012,0.00260
3954.12960,0.00280
3952.06908,0.00271
3950.00857,0.00222
3947.94805,0.00169
3945.88754,0.00159
3943.82702,0.00185
3941.76651,0.00203
3939.70599,0.00219
3937.64547,0.00238
3935.58496,0.00226
3933.52444,0.00206
3931.46393,0.00202
3929.40341,0.00178
3927.34290,0.00124
3925.28238,0.00102
3923.22186,0.00146
3921.16135,0.00178
3919.10083,0.00158
3917.04032,0.00144
3914.97980,0.00173
3912.91929,0.00208
3910.85877,0.00219
3908.79825,0.00208
3906.73774,0.00202
3904.67722,0.00210
3902.61671,0.00178
3900.55619,0.00101
3898.49568,0.00081
3896.43516,0.00145
3894.37465,0.00219
3892.31413,0.00241
3890.25361,0.00209
3888.19310,0.00177
3886.13258,0.00164
3884.07207,0.00153
3882.01155,0.00137
3879.95104,0.00152
3877.89052,0.00205
3875.83000,0.00217
3873.76949,0.00194
3871.70897,0.00194
3869.64846,0.00206
3867.58794,0.00202
3865.52743,0.00184
3863.46691,0.00194
3861.40639,0.00242
3859.34588,0.00279
3857.28536,0.00273
3855.22485,0.00224
3853.16433,0.00152
3851.10382,0.00113
3849.04330,0.00107
3846.98278,0.00122
3844.92227,0.00182
3842.86175,0.00249
3840.80124,0.00238
3838.74072,0.00182
3836.68021,0.00157
3834.61969,0.00160
3832.55917,0.00175
3830.49866,0.00186
3828.43814,0.00185
3826.37763,0.00196
3824.31711,0.00197
3822.25660,0.00162
3820.19608,0.00158
3818.13556,0.00196
3816.07505,0.00211
3814.01453,0.00215
3811.95402,0.00225
3809.89350,0.00218
3807.83299,0.00165
3805.77247,0.00117
3803.71195,0.00114
3801.65144,0.00133
3799.59092,0.00180
3797.53041,0.00208
3795.46989,0.00219
3793.40938,0.00233
3791.34886,0.00237
3789.28835,0.00228
3787.22783,0.00210
3785.16731,0.00221
3783.10680,0.00262
3781.04628,0.00255
3778.98577,0.00231
3776.92525,0.00264
3774.86474,0.00307
3772.80422,0.00306
3770.74370,0.00281
3768.68319,0.00279
3766.62267,0.00269
3764.56216,0.00227
3762.50164,0.00219
3760.44113,0.00270
3758.38061,0.00330
3756.32009,0.00349
3754.25958,0.00341
3752.19906,0.00301
3750.13855,0.00243
3748.07803,0.00255
3746.01752,0.00330
3743.95700,0.00378
3741.89648,0.00386
3739.83597,0.00404
3737.77545,0.00408
3735.71494,0.00373
3733.65442,0.00336
3731.59391,0.00340
3729.53339,0.00356
3727.47287,0.00362
3725.41236,0.00347
3723.35184,0.00334
3721.29133,0.00350
3719.23081,0.00381
3717.17030,0.00416
3715.10978,0.00428
3713.04926,0.00394
3710.98875,0.00397
3708.92823,0.00500
3706.86772,0.00603
3704.80720,0.00656
3702.74669,0.00644
3700.68617,0.00624
3698.62565,0.00651
3696.56514,0.00640
3694.50462,0.00593
3692.44411,0.00619
3690.38359,0.00712
3688.32308,0.00842
3686.26256,0.00982
3684.20205,0.01045
3682.14153,0.01052
3680.08101,0.01099
3678.02050,0.01197
3675.95998,0.01271
3673.89947,0.01317
3671.83895,0.01397
3669.77844,0.01519
3667.71792,0.01676
3665.65740,0.01845
3663.59689,0.02005
3661.53637,0.02143
3659.47586,0.02244
3657.41534,0.02324
3655.35483,0.02419
3653.29431,0.02547
3651.23379,0.02703
3649.17328,0.02855
3647.11276,0.03000
3645.05225,0.03161
3642.99173,0.03325
3640.93122,0.03456
3638.87070,0.03557
3636.81018,0.03701
3634.74967,0.03902
3632.68915,0.04077
3630.62864,0.04188
3628.56812,0.04279
3626.50761,0.04413
3624.44709,0.04564
3622.38657,0.04702
3620.32606,0.04903
3618.26554,0.05183
3616.20503,0.05393
3614.14451,0.05528
3612.08400,0.05662
3610.02348,0.05790
3607.96296,0.05928
3605.90245,0.06110
3603.84193,0.06319
3601.78142,0.06544
3599.72090,0.06756
3597.66039,0.06933
3595.59987,0.07124
3593.53936,0.07327
3591.47884,0.07504
3589.41832,0.07657
3587.35781,0.07834
3585.29729,0.08059
3583.23678,0.08304
3581.17626,0.08519
3579.11575,0.08669
3577.05523,0.08829
3574.99471,0.09107
3572.93420,0.09443
3570.87368,0.09696
3568.81317,0.09890
3566.75265,0.10145
3564.69214,0.10406
3562.63162,0.10606
3560.57110,0.10794
3558.51059,0.11019
3556.45007,0.11269
3554.38956,0.11499
3552.32904,0.11740
3550.26853,0.12002
3548.20801,0.12224
3546.14749,0.12413
3544.08698,0.12651
3542.02646,0.12943
3539.96595,0.13215
3537.90543,0.13447
3535.84492,0.13662
3533.78440,0.13871
3531.72388,0.14062
3529.66337,0.14247
3527.60285,0.14470
3525.54234,0.14690
3523.48182,0.14867
3521.42131,0.15062
3519.36079,0.15300
3517.30027,0.15544
3515.23976,0.15782
3513.17924,0.16007
3511.11873,0.16212
3509.05821,0.16386
3506.99770,0.16526
3504.93718,0.16654
3502.87666,0.16779
3500.81615,0.16922
3498.75563,0.17129
3496.69512,0.17364
3494.63460,0.17571
3492.57409,0.17761
3490.51357,0.17946
3488.45306,0.18095
3486.39254,0.18209
3484.33202,0.18363
3482.27151,0.18579
3480.21099,0.18781
3478.15048,0.18933
3476.08996,0.19084
3474.02945,0.19248
3471.96893,0.19401
3469.90841,0.19572
3467.84790,0.19781
3465.78738,0.19987
3463.72687,0.20138
3461.66635,0.20267
3459.60584,0.20413
3457.54532,0.20541
3455.48480,0.20687
3453.42429,0.20902
3451.36377,0.21129
3449.30326,0.21288
3447.24274,0.21393
3445.18223,0.21560
3443.12171,0.21787
3441.06119,0.21995
3439.00068,0.22161
3436.94016,0.22291
3434.87965,0.22421
3432.81913,0.22539
3430.75862,0.22616
3428.69810,0.22690
3426.63758,0.22836
3424.57707,0.23032
3422.51655,0.23205
3420.45604,0.23357
3418.39552,0.23523
3416.33501,0.23660
3414.27449,0.23721
3412.21397,0.23775
3410.15346,0.23898
3408.09294,0.24046
3406.03243,0.24123
3403.97191,0.24124
3401.91140,0.24157
3399.85088,0.24254
3397.79036,0.24343
3395.72985,0.24373
3393.66933,0.24370
3391.60882,0.24410
3389.54830,0.24493
3387.48779,0.24544
3385.42727,0.24542
3383.36676,0.24525
3381.30624,0.24505
3379.24572,0.24504
3377.18521,0.24532
3375.12469,0.24531
3373.06418,0.24437
3371.00366,0.24299
3368.94315,0.24240
3366.88263,0.24225
3364.82211,0.24144
3362.76160,0.24018
3360.70108,0.23953
3358.64057,0.23954
3356.58005,0.23922
3354.51954,0.23827
3352.45902,0.23675
3350.39850,0.23506
3348.33799,0.23421
3346.27747,0.23359
3344.21696,0.23234
3342.15644,0.23154
3340.09593,0.23143
3338.03541,0.23067
3335.97489,0.22926
3333.91438,0.22844
3331.85386,0.22827
3329.79335,0.22770
3327.73283,0.22684
3325.67232,0.22621
3323.61180,0.22549
3321.55128,0.22462
3319.49077,0.22383
3317.43025,0.22305
3315.36974,0.22201
3313.30922,0.22087
3311.24871,0.22000
3309.18819,0.21907
3307.12767,0.21810
3305.06716,0.21749
3303.00664,0.21722
3300.94613,0.21678
3298.88561,0.21627
3296.82510,0.21645
3294.76458,0.21630
3292.70406,0.21498
3290.64355,0.21396
3288.58303,0.21367
3286.52252,0.21342
3284.46200,0.21355
3282.40149,0.21382
3280.34097,0.21344
3278.28046,0.21298
3276.21994,0.21259
3274.15942,0.21159
3272.09891,0.21035
3270.03839,0.20981
3267.97788,0.20946
3265.91736,0.20843
3263.85685,0.20734
3261.79633,0.20672
3259.73581,0.20617
3257.67530,0.20551
3255.61478,0.20457
3253.55427,0.20358
3251.49375,0.20282
3249.43324,0.20167
3247.37272,0.19998
3245.31220,0.19855
3243.25169,0.19760
3241.19117,0.19666
3239.13066,0.19569
3237.07014,0.19448
3235.00963,0.19273
3232.94911,0.19094
3230.88859,0.18955
3228.82808,0.18838
3226.76756,0.18682
3224.70705,0.18477
3222.64653,0.18288
3220.58602,0.18130
3218.52550,0.17964
3216.46498,0.17769
3214.40447,0.17583
3212.34395,0.17434
3210.28344,0.17246
3208.22292,0.17001
3206.16241,0.16787
3204.10189,0.16630
3202.04137,0.16477
3199.98086,0.16261
3197.92034,0.16023
3195.85983,0.15841
3193.79931,0.15666
3191.73880,0.15456
3189.67828,0.15238
3187.61777,0.15024
3185.55725,0.14794
3183.49673,0.14529
3181.43622,0.14260
3179.37570,0.14043
3177.31519,0.13863
3175.25467,0.13650
3173.19416,0.13401
3171.13364,0.13192
3169.07312,0.13034
3167.01261,0.12855
3164.95209,0.12649
3162.89158,0.12438
3160.83106,0.12205
3158.77055,0.11952
3156.71003,0.11736
3154.64951,0.11558
3152.58900,0.11389
3150.52848,0.11218
3148.46797,0.11001
3146.40745,0.10752
3144.34694,0.10552
3142.28642,0.10378
3140.22590,0.10188
3138.16539,0.09996
3136.10487,0.09814
3134.04436,0.09647
3131.98384,0.09506
3129.92333,0.09372
3127.86281,0.09198
3125.80229,0.09007
3123.74178,0.08848
3121.68126,0.08704
3119.62075,0.08554
3117.56023,0.08380
3115.49972,0.08197
3113.43920,0.08044
3111.37868,0.07916
3109.31817,0.07792
3107.25765,0.07637
3105.19714,0.07453
3103.13662,0.07297
3101.07611,0.07167
3099.01559,0.07035
3096.95507,0.06929
3094.89456,0.06819
3092.83404,0.06683
3090.77353,0.06567
3088.71301,0.06453
3086.65250,0.06300
3084.59198,0.06132
3082.53147,0.06014
3080.47095,0.05946
3078.41043,0.05878
3076.34992,0.05782
3074.28940,0.05654
3072.22889,0.05516
3070.16837,0.05387
3068.10786,0.05268
3066.04734,0.05150
3063.98682,0.05053
3061.92631,0.04979
3059.86579,0.04896
3057.80528,0.04789
3055.74476,0.04672
3053.68425,0.04577
3051.62373,0.04512
3049.56321,0.04436
3047.50270,0.04339
3045.44218,0.04268
3043.38167,0.04209
3041.32115,0.04116
3039.26064,0.04000
3037.20012,0.03890
3035.13960,0.03829
3033.07909,0.03808
3031.01857,0.03771
3028.95806,0.03700
3026.89754,0.03624
3024.83703,0.03578
3022.77651,0.03539
3020.71599,0.03475
3018.65548,0.03399
3016.59496,0.03324
3014.53445,0.03256
3012.47393,0.03196
3010.41342,0.03141
3008.35290,0.03091
3006.29238,0.03050
3004.23187,0.03032
3002.17135,0.03005
3000.11084,0.02956
2998.05032,0.02941
2995.98981,0.02943
2993.92929,0.02940
2991.86877,0.02974
2989.80826,0.03029
2987.74774,0.03065
2985.68723,0.03106
2983.62671,0.03181
2981.56620,0.03296
2979.50568,0.03445
2977.44517,0.03631
2975.38465,0.03833
2973.32413,0.04013
2971.26362,0.04178
2969.20310,0.04361
2967.14259,0.04578
2965.08207,0.04813
2963.02156,0.05035
2960.96104,0.05214
2958.90052,0.05355
2956.84001,0.05520
2954.77949,0.05706
2952.71898,0.05852
2950.65846,0.05974
2948.59795,0.06096
2946.53743,0.06212
2944.47691,0.06332
2942.41640,0.06445
2940.35588,0.06536
2938.29537,0.06641
2936.23485,0.06799
2934.17434,0.06985
2932.11382,0.07160
2930.05330,0.07318
2927.99279,0.07476
2925.93227,0.07642
2923.87176,0.07801
2921.81124,0.07926
2919.75073,0.08013
2917.69021,0.08065
2915.62969,0.08069
2913.56918,0.08033
2911.50866,0.07987
2909.44815,0.07944
2907.38763,0.07897
2905.32712,0.07830
2903.26660,0.07746
2901.20608,0.07655
2899.14557,0.07576
2897.08505,0.07530
2895.02454,0.07519
2892.96402,0.07553
2890.90351,0.07645
2888.84299,0.07768
2886.78247,0.07895
2884.72196,0.08030
2882.66144,0.08147
2880.60093,0.08213
2878.54041,0.08207
2876.47990,0.08124
2874.41938,0.07976
2872.35887,0.07754
2870.29835,0.07439
2868.23783,0.07071
2866.17732,0.06713
2864.11680,0.06361
2862.05629,0.05985
2859.99577,0.05605
2857.93526,0.05255
2855.87474,0.04946
2853.81422,0.04648
2851.75371,0.04362
2849.69319,0.04110
2847.63268,0.03884
2845.57216,0.03680
2843.51165,0.03498
2841.45113,0.03331
2839.39061,0.03193
2837.33010,0.03085
2835.26958,0.02983
2833.20907,0.02871
2831.14855,0.02766
2829.08804,0.02690
2827.02752,0.02646
2824.96700,0.02611
2822.90649,0.02564
2820.84597,0.02499
2818.78546,0.02403
2816.72494,0.02301
2814.66443,0.02226
2812.60391,0.02156
2810.54339,0.02080
2808.48288,0.02017
2806.42236,0.01959
2804.36185,0.01894
2802.30133,0.01818
2800.24082,0.01766
2798.18030,0.01740
2796.11978,0.01685
2794.05927,0.01608
2791.99875,0.01551
2789.93824,0.01503
2787.87772,0.01445
2785.81721,0.01387
2783.75669,0.01349
2781.69618,0.01333
2779.63566,0.01329
2777.57514,0.01314
2775.51463,0.01275
2773.45411,0.01238
2771.39360,0.01213
2769.33308,0.01177
2767.27257,0.01143
2765.21205,0.01136
2763.15153,0.01143
2761.09102,0.01140
2759.03050,0.01127
2756.96999,0.01108
2754.90947,0.01080
2752.84896,0.01063
2750.78844,0.01071
2748.72792,0.01073
2746.66741,0.01066
2744.60689,0.01063
2742.54638,0.01052
2740.48586,0.01027
2738.42535,0.01001
2736.36483,0.00988
2734.30431,0.00972
2732.24380,0.00934
2730.18328,0.00903
2728.12277,0.00898
2726.06225,0.00897
2724.00174,0.00883
2721.94122,0.00851
2719.88070,0.00804
2717.82019,0.00760
2715.75967,0.00736
2713.69916,0.00737
2711.63864,0.00762
2709.57813,0.00785
2707.51761,0.00767
2705.45709,0.00735
2703.39658,0.00736
2701.33606,0.00737
2699.27555,0.00713
2697.21503,0.00693
2695.15452,0.00675
2693.09400,0.00649
2691.03348,0.00630
2688.97297,0.00613
2686.91245,0.00585
2684.85194,0.00562
2682.79142,0.00557
2680.73091,0.00559
2678.67039,0.00554
2676.60988,0.00533
2674.54936,0.00511
2672.48884,0.00499
2670.42833,0.00502
2668.36781,0.00509
2666.30730,0.00505
2664.24678,0.00493
2662.18627,0.00478
2660.12575,0.00463
2658.06523,0.00459
2656.00472,0.00460
2653.94420,0.00465
2651.88369,0.00476
2649.82317,0.00464
2647.76266,0.00419
2645.70214,0.00387
2643.64162,0.00403
2641.58111,0.00429
2639.52059,0.00412
2637.46008,0.00379
2635.39956,0.00371
2633.33905,0.00374
2631.27853,0.00387
2629.21801,0.00409
2627.15750,0.00402
2625.09698,0.00385
2623.03647,0.00376
2620.97595,0.00358
2618.91544,0.00355
2616.85492,0.00363
2614.79440,0.00358
2612.73389,0.00353
2610.67337,0.00347
2608.61286,0.00353
2606.55234,0.00388
2604.49183,0.00401
2602.43131,0.00375
2600.37079,0.00352
2598.31028,0.00356
2596.24976,0.00369
2594.18925,0.00366
2592.12873,0.00344
2590.06822,0.00323
2588.00770,0.00302
2585.94718,0.00298
2583.88667,0.00318
2581.82615,0.00323
2579.76564,0.00335
2577.70512,0.00359
2575.64461,0.00361
2573.58409,0.00369
2571.52358,0.00384
2569.46306,0.00372
2567.40254,0.00356
2565.34203,0.00340
2563.28151,0.00305
2561.22100,0.00298
2559.16048,0.00322
2557.09997,0.00348
2555.03945,0.00355
2552.97893,0.00330
2550.91842,0.00298
2548.85790,0.00283
2546.79739,0.00302
2544.73687,0.00338
2542.67636,0.00353
2540.61584,0.00335
2538.55532,0.00314
2536.49481,0.00308
2534.43429,0.00333
2532.37378,0.00379
2530.31326,0.00374
2528.25275,0.00313
2526.19223,0.00281
2524.13171,0.00307
2522.07120,0.00326
2520.01068,0.00310
2517.95017,0.00314
2515.88965,0.00358
2513.82914,0.00369
2511.76862,0.00320
2509.70810,0.00294
2507.64759,0.00334
2505.58707,0.00402
2503.52656,0.00424
2501.46604,0.00374
2499.40553,0.00330
2497.34501,0.00351
2495.28449,0.00392
2493.22398,0.00403
2491.16346,0.00375
2489.10295,0.00353
2487.04243,0.00384
2484.98192,0.00444
2482.92140,0.00474
2480.86088,0.00435
2478.80037,0.00368
2476.73985,0.00357
2474.67934,0.00400
2472.61882,0.00411
2470.55831,0.00376
2468.49779,0.00361
2466.43728,0.00389
2464.37676,0.00420
2462.31624,0.00425
2460.25573,0.00420
2458.19521,0.00384
2456.13470,0.00342
2454.07418,0.00370
2452.01367,0.00435
2449.95315,0.00463
2447.89263,0.00466
2445.83212,0.00460
2443.77160,0.00426
2441.71109,0.00384
2439.65057,0.00391
2437.59006,0.00427
2435.52954,0.00441
2433.46902,0.00439
2431.40851,0.00420
2429.34799,0.00393
2427.28748,0.00417
2425.22696,0.00473
2423.16645,0.00499
2421.10593,0.00492
2419.04541,0.00436
2416.98490,0.00360
2414.92438,0.00356
2412.86387,0.00399
2410.80335,0.00428
2408.74284,0.00445
2406.68232,0.00452
2404.62180,0.00453
2402.56129,0.00483
2400.50077,0.00558
2398.44026,0.00616
2396.37974,0.00608
2394.31923,0.00571
2392.25871,0.00558
2390.19819,0.00570
2388.13768,0.00573
2386.07716,0.00529
2384.01665,0.00463
2381.95613,0.00465
2379.89562,0.00540
2377.83510,0.00577
2375.77459,0.00561
2373.71407,0.00564
2371.65355,0.00559
2369.59304,0.00526
2367.53252,0.00523
2365.47201,0.00541
2363.41149,0.00590
2361.35098,0.00681
2359.29046,0.00732
2357.22994,0.00659
2355.16943,0.00541
2353.10891,0.00529
2351.04840,0.00566
2348.98788,0.00563
2346.92737,0.00561
2344.86685,0.00593
2342.80633,0.00639
2340.74582,0.00677
2338.68530,0.00644
2336.62479,0.00576
2334.56427,0.00583
2332.50376,0.00619
2330.44324,0.00613
2328.38272,0.00590
2326.32221,0.00584
2324.26169,0.00595
2322.20118,0.00618
2320.14066,0.00672
2318.08015,0.00675
2316.01963,0.00596
2313.95911,0.00546
2311.89860,0.00589
2309.83808,0.00672
2307.77757,0.00699
2305.71705,0.00662
2303.65654,0.00633
2301.59602,0.00635
2299.53550,0.00654
2297.47499,0.00692
2295.41447,0.00721
2293.35396,0.00730
2291.29344,0.00765
2289.23293,0.00800
2287.17241,0.00753
2285.11189,0.00680
2283.05138,0.00666
2280.99086,0.00672
2278.93035,0.00670
2276.86983,0.00679
2274.80932,0.00673
2272.74880,0.00662
2270.68829,0.00675
2268.62777,0.00678
2266.56725,0.00697
2264.50674,0.00741
2262.44622,0.00740
2260.38571,0.00721
2258.32519,0.00709
2256.26468,0.00695
2254.20416,0.00694
2252.14364,0.00690
2250.08313,0.00711
2248.02261,0.00768
2245.96210,0.00779
2243.90158,0.00749
2241.84107,0.00700
2239.78055,0.00662
2237.72003,0.00692
2235.65952,0.00725
2233.59900,0.00668
2231.53849,0.00602
2229.47797,0.00683
2227.41746,0.00764
2225.35694,0.00699
2223.29642,0.00632
2221.23591,0.00667
2219.17539,0.00737
2217.11488,0.00746
2215.05436,0.00715
2212.99385,0.00662
2210.93333,0.00588
2208.87281,0.00584
2206.81230,0.00707
2204.75178,0.00850
2202.69127,0.00888
2200.63075,0.00845
2198.57024,0.00751
2196.50972,0.00633
2194.44920,0.00627
2192.38869,0.00745
2190.32817,0.00860
2188.26766,0.00948
2186.20714,0.00966
2184.14663,0.00834
2182.08611,0.00674
2180.02559,0.00724
2177.96508,0.00799
2175.90456,0.00731
2173.84405,0.00784
2171.78353,0.00895
2169.72302,0.00891
2167.66250,0.00916
2165.60199,0.00984
2163.54147,0.00950
2161.48095,0.00803
2159.42044,0.00695
2157.35992,0.00724
2155.29941,0.00794
2153.23889,0.00880
2151.17838,0.00934
2149.11786,0.00930
2147.05734,0.00991
2144.99683,0.01039
2142.93631,0.01002
2140.87580,0.01014
2138.81528,0.01075
2136.75477,0.01113
2134.69425,0.01159
2132.63373,0.01217
2130.57322,0.01250
2128.51270,0.01306
2126.45219,0.01374
2124.39167,0.01357
2122.33116,0.01298
2120.27064,0.01296
2118.21012,0.01321
2116.14961,0.01337
2114.08909,0.01359
2112.02858,0.01375
2109.96806,0.01332
2107.90755,0.01251
2105.84703,0.01236
2103.78651,0.01271
2101.72600,0.01311
2099.66548,0.01329
2097.60497,0.01294
2095.54445,0.01218
2093.48394,0.01161
2091.42342,0.01167
2089.36290,0.01185
2087.30239,0.01181
2085.24187,0.01189
2083.18136,0.01225
2081.12084,0.01241
2079.06033,0.01187
2076.99981,0.01096
2074.93930,0.01035
2072.87878,0.01036
2070.81826,0.01058
2068.75775,0.01053
2066.69723,0.01024
2064.63672,0.00972
2062.57620,0.00948
2060.51569,0.01001
2058.45517,0.01075
2056.39465,0.01120
2054.33414,0.01115
2052.27362,0.01075
2050.21311,0.01053
2048.15259,0.01012
2046.09208,0.00943
2044.03156,0.00846
2041.97104,0.00733
2039.91053,0.00759
2037.85001,0.00871
2035.78950,0.00847
2033.72898,0.00654
2031.66847,0.00391
2029.60795,0.00284
2027.54743,0.00438
2025.48692,0.00655
2023.42640,0.00839
2021.36589,0.00930
2019.30537,0.00842
2017.24486,0.00655
2015.18434,0.00571
2013.12382,0.00692
2011.06331,0.00786
2009.00279,0.00769
2006.94228,0.00781
2004.88176,0.00783
2002.82125,0.00740
2000.76073,0.00710
1998.70021,0.00732
1996.63970,0.00770
1994.57918,0.00775
1992.51867,0.00817
1990.45815,0.00962
1988.39764,0.01053
1986.33712,0.00993
1984.27660,0.00915
1982.21609,0.00853
1980.15557,0.00776
1978.09506,0.00758
1976.03454,0.00888
1973.97403,0.01079
1971.91351,0.01042
1969.85300,0.00823
1967.79248,0.00727
1965.73196,0.00727
1963.67145,0.00684
1961.61093,0.00653
1959.55042,0.00756
1957.48990,0.00923
1955.42939,0.00974
1953.36887,0.00925
1951.30835,0.00904
1949.24784,0.00942
1947.18732,0.00983
1945.12681,0.00994
1943.06629,0.01002
1941.00578,0.01017
1938.94526,0.00975
1936.88474,0.00901
1934.82423,0.00844
1932.76371,0.00765
1930.70320,0.00723
1928.64268,0.00761
1926.58217,0.00797
1924.52165,0.00813
1922.46113,0.00822
1920.40062,0.00808
1918.34010,0.00773
1916.27959,0.00717
1914.21907,0.00650
1912.15856,0.00653
1910.09804,0.00713
1908.03752,0.00707
1905.97701,0.00646
1903.91649,0.00620
1901.85598,0.00641
1899.79546,0.00676
1897.73495,0.00713
1895.67443,0.00716
1893.61391,0.00662
1891.55340,0.00633
1889.49288,0.00678
1887.43237,0.00701
1885.37185,0.00687
1883.31134,0.00705
1881.25082,0.00721
1879.19030,0.00702
1877.12979,0.00660
1875.06927,0.00613
1873.00876,0.00583
1870.94824,0.00573
1868.88773,0.00620
1866.82721,0.00685
1864.76670,0.00666
1862.70618,0.00619
1860.64566,0.00615
1858.58515,0.00645
1856.52463,0.00684
1854.46412,0.00693
1852.40360,0.00675
1850.34309,0.00658
1848.28257,0.00629
1846.22205,0.00605
1844.16154,0.00618
1842.10102,0.00643
1840.04051,0.00664
1837.97999,0.00686
1835.91948,0.00713
1833.85896,0.00733
1831.79844,0.00746
1829.73793,0.00763
1827.67741,0.00746
1825.61690,0.00689
1823.55638,0.00691
1821.49587,0.00756
1819.43535,0.00781
1817.37483,0.00762
1815.31432,0.00751
1813.25380,0.00737
1811.19329,0.00735
1809.13277,0.00765
1807.07226,0.00786
1805.01174,0.00807
1802.95122,0.00852
1800.89071,0.00869
1798.83019,0.00844
1796.76968,0.00845
1794.70916,0.00877
1792.64865,0.00917
1790.58813,0.00958
1788.52761,0.00973
1786.46710,0.00972
1784.40658,0.00984
1782.34607,0.01006
1780.28555,0.01016
1778.22504,0.01026
1776.16452,0.01063
1774.10400,0.01086
1772.04349,0.01074
1769.98297,0.01086
1767.92246,0.01131
1765.86194,0.01180
1763.80143,0.01211
1761.74091,0.01218
1759.68040,0.01235
1757.61988,0.01272
1755.55936,0.01312
1753.49885,0.01346
1751.43833,0.01373
1749.37782,0.01413
1747.31730,0.01488
1745.25679,0.01571
1743.19627,0.01642
1741.13575,0.01703
1739.07524,0.01762
1737.01472,0.01812
1734.95421,0.01839
1732.89369,0.01894
1730.83318,0.02002
1728.77266,0.02115
1726.71214,0.02200
1724.65163,0.02291
1722.59111,0.02392
1720.53060,0.02455
1718.47008,0.02522
1716.40957,0.02678
1714.34905,0.02865
1712.28853,0.03023
1710.22802,0.03182
1708.16750,0.03343
1706.10699,0.03518
1704.04647,0.03693
1701.98596,0.03832
1699.92544,0.04019
1697.86492,0.04295
1695.80441,0.04644
1693.74389,0.04999
1691.68338,0.05258
1689.62286,0.05506
1687.56235,0.05772
1685.50183,0.06078
1683.44131,0.06544
1681.38080,0.06996
1679.32028,0.07349
1677.25977,0.07697
1675.19925,0.08111
1673.13874,0.08536
1671.07822,0.08919
1669.01771,0.09357
1666.95719,0.09799
1664.89667,0.10170
1662.83616,0.10547
1660.77564,0.10936
1658.71513,0.11264
1656.65461,0.11525
1654.59410,0.11782
1652.53358,0.12097
1650.47306,0.12310
1648.41255,0.12426
1646.35203,0.12527
1644.29152,0.12613
1642.23100,0.12651
1640.17049,0.12638
1638.10997,0.12568
1636.04945,0.12366
1633.98894,0.12079
1631.92842,0.11856
1629.86791,0.11604
1627.80739,0.11244
1625.74688,0.10830
1623.68636,0.10376
1621.62584,0.09894
1619.56533,0.09451
1617.50481,0.08939
1615.44430,0.08382
1613.38378,0.07983
1611.32327,0.07636
1609.26275,0.07246
1607.20223,0.06852
1605.14172,0.06505
1603.08120,0.06187
1601.02069,0.05890
1598.96017,0.05642
1596.89966,0.05418
1594.83914,0.05190
1592.77862,0.04981
1590.71811,0.04785
1588.65759,0.04600
1586.59708,0.04452
1584.53656,0.04328
1582.47605,0.04221
1580.41553,0.04128
1578.35501,0.04035
1576.29450,0.03921
1574.23398,0.03813
1572.17347,0.03723
1570.11295,0.03619
1568.05244,0.03532
1565.99192,0.03481
1563.93141,0.03442
1561.87089,0.03397
1559.81037,0.03288
1557.74986,0.03155
1555.68934,0.03138
1553.62883,0.03132
1551.56831,0.03093
1549.50780,0.03045
1547.44728,0.03012
1545.38676,0.02981
1543.32625,0.02937
1541.26573,0.02884
1539.20522,0.02880
1537.14470,0.02906
1535.08419,0.02886
1533.02367,0.02849
1530.96315,0.02839
1528.90264,0.02835
1526.84212,0.02823
1524.78161,0.02793
1522.72109,0.02749
1520.66058,0.02760
1518.60006,0.02807
1516.53954,0.02799
1514.47903,0.02775
1512.41851,0.02773
1510.35800,0.02755
1508.29748,0.02717
1506.23697,0.02732
1504.17645,0.02799
1502.11593,0.02854
1500.05542,0.02895
1497.99490,0.02934
1495.93439,0.03018
1493.87387,0.03156
1491.81336,0.03316
1489.75284,0.03507
1487.69232,0.03692
1485.63181,0.03851
1483.57129,0.04058
1481.51078,0.04385
1479.45026,0.04833
1477.38975,0.05358
1475.32923,0.05888
1473.26871,0.06305
1471.20820,0.06537
1469.14768,0.06608
1467.08717,0.06615
1465.02665,0.06640
1462.96614,0.06727
1460.90562,0.06832
1458.84511,0.06923
1456.78459,0.07011
1454.72407,0.07000
1452.66356,0.06813
1450.60304,0.06509
1448.54253,0.06189
1446.48201,0.05907
1444.42150,0.05653
1442.36098,0.05385
1440.30046,0.05105
1438.23995,0.04813
1436.17943,0.04499
1434.11892,0.04290
1432.05840,0.04190
1429.99789,0.04118
1427.93737,0.04070
1425.87685,0.04036
1423.81634,0.03999
1421.75582,0.03966
1419.69531,0.03923
1417.63479,0.03906
1415.57428,0.03916
1413.51376,0.03908
1411.45324,0.03906
1409.39273,0.03927
1407.33221,0.03936
1405.27170,0.03914
1403.21118,0.03888
1401.15067,0.03887
1399.09015,0.03902
1397.02963,0.03910
1394.96912,0.03910
1392.90860,0.03929
1390.84809,0.03967
1388.78757,0.04001
1386.72706,0.04025
1384.66654,0.04047
1382.60602,0.04100
1380.54551,0.04199
1378.48499,0.04301
1376.42448,0.04387
1374.36396,0.04491
1372.30345,0.04647
1370.24293,0.04850
1368.18241,0.05105
1366.12190,0.05419
1364.06138,0.05792
1362.00087,0.06252
1359.94035,0.06805
1357.87984,0.07447
1355.81932,0.08175
1353.75881,0.08928
1351.69829,0.09597
1349.63777,0.09934
1347.57726,0.09560
1345.51674,0.08396
1343.45623,0.06966
1341.39571,0.05879
1339.33520,0.05305
1337.27468,0.05097
1335.21416,0.05066
1333.15365,0.05091
1331.09313,0.05062
1329.03262,0.04947
1326.97210,0.04809
1324.91159,0.04687
1322.85107,0.04590
1320.79055,0.04550
1318.73004,0.04607
1316.66952,0.04772
1314.60901,0.05017
1312.54849,0.05328
1310.48798,0.05691
1308.42746,0.06060
1306.36694,0.06391
1304.30643,0.06659
1302.24591,0.06848
1300.18540,0.06966
1298.12488,0.07022
1296.06437,0.07027
1294.00385,0.07018
1291.94333,0.07017
1289.88282,0.07009
1287.82230,0.06963
1285.76179,0.06859
1283.70127,0.06700
1281.64076,0.06522
1279.58024,0.06328
1277.51972,0.06111
1275.45921,0.05906
1273.39869,0.05753
1271.33818,0.05679
1269.27766,0.05700
1267.21715,0.05804
1265.15663,0.05977
1263.09612,0.06244
1261.03560,0.06602
1258.97508,0.07007
1256.91457,0.07415
1254.85405,0.07770
1252.79354,0.08005
1250.73302,0.08080
1248.67251,0.07986
1246.61199,0.07742
1244.55147,0.07409
1242.49096,0.07031
1240.43044,0.06630
1238.36993,0.06254
1236.30941,0.05919
1234.24890,0.05590
1232.18838,0.05270
1230.12786,0.04995
1228.06735,0.04781
1226.00683,0.04630
1223.94632,0.04523
1221.88580,0.04419
1219.82529,0.04299
1217.76477,0.04193
1215.70425,0.04110
1213.64374,0.04025
1211.58322,0.03945
1209.52271,0.03893
1207.46219,0.03862
1205.40168,0.03835
1203.34116,0.03816
1201.28064,0.03805
1199.22013,0.03797
1197.15961,0.03794
1195.09910,0.03808
1193.03858,0.03836
1190.97807,0.03861
1188.91755,0.03889
1186.85703,0.03917
1184.79652,0.03932
1182.73600,0.03952
1180.67549,0.03983
1178.61497,0.04023
1176.55446,0.04109
1174.49394,0.04235
1172.43342,0.04354
1170.37291,0.04484
1168.31239,0.04657
1166.25188,0.04891
1164.19136,0.05211
1162.13085,0.05615
1160.07033,0.06109
1158.00982,0.06718
1155.94930,0.07439
1153.88878,0.08267
1151.82827,0.09200
1149.76775,0.10209
1147.70724,0.11253
1145.64672,0.12281
1143.58621,0.13263
1141.52569,0.14175
1139.46517,0.14980
1137.40466,0.15667
1135.34414,0.16252
1133.28363,0.16761
1131.22311,0.17238
1129.16260,0.17744
1127.10208,0.18323
1125.04156,0.18982
1122.98105,0.19709
1120.92053,0.20510
1118.86002,0.21395
1116.79950,0.22327
1114.73899,0.23256
1112.67847,0.24199
1110.61795,0.25188
1108.55744,0.26203
1106.49692,0.27239
1104.43641,0.28304
1102.37589,0.29371
1100.31538,0.30412
1098.25486,0.31430
1096.19434,0.32385
1094.13383,0.33213
1092.07331,0.33922
1090.01280,0.34526
1087.95228,0.34983
1085.89177,0.35288
1083.83125,0.35469
1081.77073,0.35480
1079.71022,0.35250
1077.64970,0.34839
1075.58919,0.34349
1073.52867,0.33808
1071.46816,0.33220
1069.40764,0.32519
1067.34712,0.31603
1065.28661,0.30463
1063.22609,0.29099
1061.16558,0.27504
1059.10506,0.25729
1057.04455,0.23849
1054.98403,0.21954
1052.92352,0.20157
1050.86300,0.18569
1048.80248,0.17249
1046.74197,0.16228
1044.68145,0.15529
1042.62094,0.15104
1040.56042,0.14855
1038.49991,0.14681
1036.43939,0.14498
1034.37887,0.14274
1032.31836,0.13995
1030.25784,0.13610
1028.19733,0.13084
1026.13681,0.12454
1024.07630,0.11780
1022.01578,0.11081
1019.95526,0.10395
1017.89475,0.09791
1015.83423,0.09271
1013.77372,0.08808
1011.71320,0.08422
1009.65269,0.08111
1007.59217,0.07840
1005.53165,0.07605
1003.47114,0.07440
1001.41062,0.07343
999.35011,0.07278
997.28959,0.07227
995.22908,0.07172
993.16856,0.07118
991.10804,0.07071
989.04753,0.07015
986.98701,0.06935
984.92650,0.06822
982.86598,0.06707
980.80547,0.06640
978.74495,0.06618
976.68443,0.06611
974.62392,0.06618
972.56340,0.06672
970.50289,0.06820
968.44237,0.07092
966.38186,0.07499
964.32134,0.08073
962.26082,0.08840
960.20031,0.09781
958.13979,0.10852
956.07928,0.11988
954.01876,0.13102
951.95825,0.14080
949.89773,0.14810
947.83722,0.15225
945.77670,0.15300
943.71618,0.15096
941.65567,0.14734
939.59515,0.14311
937.53464,0.13885
935.47412,0.13444
933.41361,0.12964
931.35309,0.12510
929.29257,0.12121
927.23206,0.11769
925.17154,0.11471
923.11103,0.11236
921.05051,0.11012
918.99000,0.10795
916.92948,0.10609
914.86896,0.10445
912.80845,0.10257
910.74793,0.10011
908.68742,0.09762
906.62690,0.09589
904.56639,0.09479
902.50587,0.09390
900.44535,0.09316
898.38484,0.09329
896.32432,0.09500
894.26381,0.09771
892.20329,0.10074
890.14278,0.10388
888.08226,0.10683
886.02174,0.10923
883.96123,0.11046
881.90071,0.11034
879.84020,0.10941
877.77968,0.10859
875.71917,0.10882
873.65865,0.11002
871.59813,0.11121
869.53762,0.11226
867.47710,0.11374
865.41659,0.11569
863.35607,0.11771
861.29556,0.11982
859.23504,0.12254
857.17453,0.12588
855.11401,0.12963
853.05349,0.13359
850.99298,0.13732
848.93246,0.14130
846.87195,0.14574
844.81143,0.14988
842.75092,0.15366
840.69040,0.15709
838.62988,0.15983
836.56937,0.16200
834.50885,0.16366
832.44834,0.16489
830.38782,0.16586
828.32731,0.16611
826.26679,0.16550
824.20627,0.16514
822.14576,0.16548
820.08524,0.16608
818.02473,0.16695
815.96421,0.16809
813.90370,0.16925
811.84318,0.17061
809.78266,0.17205
807.72215,0.17330
805.66163,0.17459
803.60112,0.17626
801.54060,0.17790
799.48009,0.17880
797.41957,0.18011
795.35905,0.18253
793.29854,0.18445
791.23802,0.18591
789.17751,0.18805
787.11699,0.19035
785.05648,0.19250
782.99596,0.19462
780.93544,0.19643
778.87493,0.19851
776.81441,0.20119
774.75390,0.20349
772.69338,0.20544
770.63287,0.20793
768.57235,0.21056
766.51183,0.21278
764.45132,0.21504
762.39080,0.21776
760.33029,0.22091
758.26977,0.22426
756.20926,0.22715
754.14874,0.22904
752.08823,0.23077
750.02771,0.23359
747.96719,0.23666
745.90668,0.23888
743.84616,0.24129
741.78565,0.24460
739.72513,0.24778
737.66462,0.24980
735.60410,0.25151
733.54358,0.25433
731.48307,0.25751
729.42255,0.25985
727.36204,0.26175
725.30152,0.26407
723.24101,0.26708
721.18049,0.27037
719.11997,0.27346
717.05946,0.27647
714.99894,0.27922
712.93843,0.28184
710.87791,0.28472
708.81740,0.28742
706.75688,0.28978
704.69636,0.29214
702.63585,0.29447
700.57533,0.29657
698.51482,0.29817
696.45430,0.29970
694.39379,0.30244
692.33327,0.30598
690.27275,0.30944
688.21224,0.31258
686.15172,0.31483
684.09121,0.31700
682.03069,0.32004
679.97018,0.32281
677.90966,0.32513
675.84914,0.32769
673.78863,0.32977
671.72811,0.33166
669.66760,0.33455
667.60708,0.33779
665.54657,0.33875
663.48605,0.33958
661.42553,0.34216
659.36502,0.34470
657.30450,0.34655
655.24399,0.34881
653.18347,0.35135
651.12296,0.35368
649.06244,0.35487
647.00193,0.35524
644.94141,0.35649
642.88089,0.35883
640.82038,0.36133
638.75986,0.36398
636.69935,0.36633
634.63883,0.36767
632.57832,0.36924
630.51780,0.37148
628.45728,0.37346
626.39677,0.37466
624.33625,0.37518
622.27574,0.37608
620.21522,0.37731
618.15471,0.37845
616.09419,0.38090
614.03367,0.38452
611.97316,0.38662
609.91264,0.38720
607.85213,0.38806
605.79161,0.38901
603.73110,0.39078
601.67058,0.39328
599.61006,0.39439
597.54955,0.39493
595.48903,0.39684
593.42852,0.39949
591.36800,0.40146
589.30749,0.40206
587.24697,0.40228
585.18645,0.40438
583.12594,0.40808
581.06542,0.41022
579.00491,0.41044
576.94439,0.41116
574.88388,0.41256
572.82336,0.41414
570.76284,0.41630
568.70233,0.41863
566.64181,0.42030
564.58130,0.42000
562.52078,0.41861
560.46027,0.41890
558.39975,0.42003
556.33924,0.42076
554.27872,0.42241
552.21820,0.42430
550.15769,0.42557
548.09717,0.42774
546.03666,0.43013
543.97614,0.43083
541.91563,0.43094
539.85511,0.43247
537.79459,0.43548
535.73408,0.43758
533.67356,0.43645
531.61305,0.43373
529.55253,0.43398
527.49202,0.43787
525.43150,0.44081
523.37098,0.44130
521.31047,0.44236
519.24995,0.44332
517.18944,0.44257
515.12892,0.44291
513.06841,0.44497
511.00789,0.44670
508.94737,0.44810
506.88686,0.44927
504.82634,0.44873
502.76583,0.44628
500.70531,0.44621
498.64480,0.44962
496.58428,0.45193
494.52376,0.45205
492.46325,0.44974
490.40273,0.44474
488.34222,0.44089
486.28170,0.43975
484.22119,0.44175
482.16067,0.44772
480.10015,0.45357
478.03964,0.45424
475.97912,0.44962
473.91861,0.44458
471.85809,0.44333
469.79758,0.44506
467.73706,0.44664
465.67654,0.44815
463.61603,0.44996
461.55551,0.45034
459.49500,0.45059
457.43448,0.44996
455.37397,0.44629
453.31345,0.44262
451.25294,0.44212
449.19242,0.44579
447.13190,0.44849
445.07139,0.44724
443.01087,0.44753
440.95036,0.44918
438.88984,0.44750
436.82933,0.44102
434.76881,0.43284
432.70829,0.43013
430.64778,0.43357
428.58726,0.43890
426.52675,0.43906
424.46623,0.43192
422.40572,0.42630
420.34520,0.42735
418.28468,0.43581
416.22417,0.44168
414.16365,0.43735
412.10314,0.42979
410.04262,0.42490
407.98211,0.42486
405.92159,0.42791
403.86107,0.43220
401.80056,0.43919
399.74004,0.44175
