3997.40043,0.00351
3995.33991,0.00345
3993.27940,0.00327
3991.21888,0.00302
3989.15837,0.00259
3987.09785,0.00229
3985.03734,0.00246
3982.97682,0.00270
3980.91630,0.00257
3978.85579,0.00205
3976.79527,0.00159
3974.73476,0.00157
3972.67424,0.00176
3970.61373,0.00186
3968.55321,0.00188
3966.49269,0.00200
3964.43218,0.00246
3962.37166,0.00280
3960.31115,0.00263
3958.25063,0.00239
3956.19012,0.00241
3954.12960,0.00253
3952.06908,0.00234
3950.00857,0.00187
3947.94805,0.00171
3945.88754,0.00209
3943.82702,0.00238
3941.76651,0.00240
3939.70599,0.00268
3937.64547,0.00301
3935.58496,0.00284
3933.52444,0.00258
3931.46393,0.00235
3929.40341,0.00173
3927.34290,0.00099
3925.28238,0.00061
3923.22186,0.00093
3921.16135,0.00128
3919.10083,0.00108
3917.04032,0.00119
3914.97980,0.00188
3912.91929,0.00234
3910.85877,0.00226
3908.79825,0.00187
3906.73774,0.00157
3904.67722,0.00174
3902.61671,0.00227
3900.55619,0.00237
3898.49568,0.00212
3896.43516,0.00216
3894.37465,0.00230
3892.31413,0.00228
3890.25361,0.00221
3888.19310,0.00190
3886.13258,0.00138
3884.07207,0.00137
3882.01155,0.00154
3879.95104,0.00157
3877.89052,0.00184
3875.83000,0.00176
3873.76949,0.00143
3871.70897,0.00152
3869.64846,0.00162
3867.58794,0.00155
3865.52743,0.00158
3863.46691,0.00186
3861.40639,0.00231
3859.34588,0.00239
3857.28536,0.00213
3855.22485,0.00205
3853.16433,0.00205
3851.10382,0.00164
3849.04330,0.00130
3846.98278,0.00129
3844.92227,0.00136
3842.86175,0.00140
3840.80124,0.00159
3838.74072,0.00170
3836.68021,0.00138
3834.61969,0.00104
3832.55917,0.00113
3830.49866,0.00151
3828.43814,0.00191
3826.37763,0.00229
3824.31711,0.00242
3822.25660,0.00191
3820.19608,0.00143
3818.13556,0.00174
3816.07505,0.00237
3814.01453,0.00263
3811.95402,0.00221
3809.89350,0.00162
3807.83299,0.00129
3805.77247,0.00131
3803.71195,0.00131
3801.65144,0.00141
3799.59092,0.00204
3797.53041,0.00256
3795.46989,0.00252
3793.40938,0.00224
3791.34886,0.00219
3789.28835,0.00227
3787.22783,0.00242
3785.16731,0.00274
3783.10680,0.00277
3781.04628,0.00238
3778.98577,0.00233
3776.92525,0.00282
3774.86474,0.00313
3772.80422,0.00294
3770.74370,0.00247
3768.68319,0.00235
3766.62267,0.00251
3764.56216,0.00235
3762.50164,0.00207
3760.44113,0.00223
3758.38061,0.00279
3756.32009,0.00299
3754.25958,0.00265
3752.19906,0.00205
3750.13855,0.00165
3748.07803,0.00215
3746.01752,0.00314
3743.95700,0.00346
3741.89648,0.00303
3739.83597,0.00301
3737.77545,0.00316
3735.71494,0.00282
3733.65442,0.00253
3731.59391,0.00277
3729.53339,0.00309
3727.47287,0.00327
3725.41236,0.00312
3723.35184,0.00303
3721.29133,0.00330
3719.23081,0.00367
3717.17030,0.00407
3715.10978,0.00430
3713.04926,0.00406
3710.98875,0.00390
3708.92823,0.00462
3706.86772,0.00546
3704.80720,0.00574
3702.74669,0.00568
3700.68617,0.00600
3698.62565,0.00665
3696.56514,0.00664
3694.50462,0.00612
3692.44411,0.00604
3690.38359,0.00670
3688.32308,0.00790
3686.26256,0.00926
3684.20205,0.01024
3682.14153,0.01077
3680.08101,0.01099
3678.02050,0.01122
3675.95998,0.01176
3673.89947,0.01252
3671.83895,0.01324
3669.77844,0.01435
3667.71792,0.01599
3665.65740,0.01759
3663.59689,0.01897
3661.53637,0.02016
3659.47586,0.02138
3657.41534,0.02239
3655.35483,0.02299
3653.29431,0.02377
3651.23379,0.02512
3649.17328,0.02709
3647.11276,0.02910
3645.05225,0.03056
3642.99173,0.03162
3640.93122,0.03262
3638.87070,0.03369
3636.81018,0.03512
3634.74967,0.03688
3632.68915,0.03812
3630.62864,0.03897
3628.56812,0.04064
3626.50761,0.04261
3624.44709,0.04423
3622.38657,0.04595
3620.32606,0.04787
3618.26554,0.04972
3616.20503,0.05123
3614.14451,0.05279
3612.08400,0.05490
3610.02348,0.05661
3607.96296,0.05744
3605.90245,0.05883
3603.84193,0.06097
3601.78142,0.06314
3599.72090,0.06511
3597.66039,0.06704
3595.59987,0.06912
3593.53936,0.07106
3591.47884,0.07278
3589.41832,0.07451
3587.35781,0.07654
3585.29729,0.07904
3583.23678,0.08136
3581.17626,0.08304
3579.11575,0.08459
3577.05523,0.08655
3574.99471,0.08910
3572.93420,0.09202
3570.87368,0.09443
3568.81317,0.09662
3566.75265,0.09970
3564.69214,0.10300
3562.63162,0.10542
3560.57110,0.10715
3558.51059,0.10885
3556.45007,0.11085
3554.38956,0.11306
3552.32904,0.11544
3550.26853,0.11779
3548.20801,0.12015
3546.14749,0.12271
3544.08698,0.12520
3542.02646,0.12739
3539.96595,0.12942
3537.90543,0.13150
3535.84492,0.13387
3533.78440,0.13647
3531.72388,0.13890
3529.66337,0.14100
3527.60285,0.14303
3525.54234,0.14490
3523.48182,0.14667
3521.42131,0.14884
3519.36079,0.15105
3517.30027,0.15314
3515.23976,0.15532
3513.17924,0.15729
3511.11873,0.15905
3509.05821,0.16070
3506.99770,0.16198
3504.93718,0.16320
3502.87666,0.16504
3500.81615,0.16720
3498.75563,0.16871
3496.69512,0.16960
3494.63460,0.17114
3492.57409,0.17356
3490.51357,0.17588
3488.45306,0.17718
3486.39254,0.17762
3484.33202,0.17890
3482.27151,0.18149
3480.21099,0.18384
3478.15048,0.18538
3476.08996,0.18665
3474.02945,0.18801
3471.96893,0.18974
3469.90841,0.19172
3467.84790,0.19345
3465.78738,0.19449
3463.72687,0.19515
3461.66635,0.19644
3459.60584,0.19848
3457.54532,0.20049
3455.48480,0.20223
3453.42429,0.20341
3451.36377,0.20414
3449.30326,0.20538
3447.24274,0.20729
3445.18223,0.20943
3443.12171,0.21123
3441.06119,0.21282
3439.00068,0.21464
3436.94016,0.21594
3434.87965,0.21663
3432.81913,0.21780
3430.75862,0.21924
3428.69810,0.22045
3426.63758,0.22178
3424.57707,0.22289
3422.51655,0.22358
3420.45604,0.22477
3418.39552,0.22670
3416.33501,0.22809
3414.27449,0.22848
3412.21397,0.22878
3410.15346,0.22951
3408.09294,0.23048
3406.03243,0.23116
3403.97191,0.23162
3401.91140,0.23246
3399.85088,0.23342
3397.79036,0.23379
3395.72985,0.23351
3393.66933,0.23321
3391.60882,0.23344
3389.54830,0.23398
3387.48779,0.23461
3385.42727,0.23493
3383.36676,0.23473
3381.30624,0.23446
3379.24572,0.23400
3377.18521,0.23337
3375.12469,0.23304
3373.06418,0.23258
3371.00366,0.23157
3368.94315,0.23055
3366.88263,0.22985
3364.82211,0.22919
3362.76160,0.22818
3360.70108,0.22699
3358.64057,0.22606
3356.58005,0.22533
3354.51954,0.22458
3352.45902,0.22378
3350.39850,0.22270
3348.33799,0.22171
3346.27747,0.22121
3344.21696,0.22035
3342.15644,0.21915
3340.09593,0.21840
3338.03541,0.21781
3335.97489,0.21694
3333.91438,0.21596
3331.85386,0.21499
3329.79335,0.21406
3327.73283,0.21309
3325.67232,0.21195
3323.61180,0.21086
3321.55128,0.21030
3319.49077,0.21012
3317.43025,0.20950
3315.36974,0.20818
3313.30922,0.20691
3311.24871,0.20605
3309.18819,0.20524
3307.12767,0.20426
3305.06716,0.20336
3303.00664,0.20308
3300.94613,0.20318
3298.88561,0.20276
3296.82510,0.20215
3294.76458,0.20192
3292.70406,0.20150
3290.64355,0.20056
3288.58303,0.19968
3286.52252,0.19920
3284.46200,0.19883
3282.40149,0.19845
3280.34097,0.19825
3278.28046,0.19816
3276.21994,0.19780
3274.15942,0.19681
3272.09891,0.19580
3270.03839,0.19526
3267.97788,0.19476
3265.91736,0.19401
3263.85685,0.19321
3261.79633,0.19252
3259.73581,0.19193
3257.67530,0.19117
3255.61478,0.18975
3253.55427,0.18823
3251.49375,0.18762
3249.43324,0.18737
3247.37272,0.18635
3245.31220,0.18494
3243.25169,0.18422
3241.19117,0.18348
3239.13066,0.18190
3237.07014,0.18006
3235.00963,0.17813
3232.94911,0.17643
3230.88859,0.17535
3228.82808,0.17427
3226.76756,0.17281
3224.70705,0.17112
3222.64653,0.16930
3220.58602,0.16738
3218.52550,0.16532
3216.46498,0.16357
3214.40447,0.16212
3212.34395,0.16039
3210.28344,0.15829
3208.22292,0.15621
3206.16241,0.15454
3204.10189,0.15305
3202.04137,0.15125
3199.98086,0.14913
3197.92034,0.14688
3195.85983,0.14474
3193.79931,0.14290
3191.73880,0.14106
3189.67828,0.13900
3187.61777,0.13688
3185.55725,0.13469
3183.49673,0.13247
3181.43622,0.13039
3179.37570,0.12827
3177.31519,0.12592
3175.25467,0.12367
3173.19416,0.12143
3171.13364,0.11922
3169.07312,0.11759
3167.01261,0.11616
3164.95209,0.11433
3162.89158,0.11247
3160.83106,0.11079
3158.77055,0.10898
3156.71003,0.10711
3154.64951,0.10508
3152.58900,0.10293
3150.52848,0.10115
3148.46797,0.09955
3146.40745,0.09764
3144.34694,0.09560
3142.28642,0.09378
3140.22590,0.09219
3138.16539,0.09074
3136.10487,0.08935
3134.04436,0.08786
3131.98384,0.08626
3129.92333,0.08473
3127.86281,0.08311
3125.80229,0.08147
3123.74178,0.07985
3121.68126,0.07796
3119.62075,0.07600
3117.56023,0.07444
3115.49972,0.07314
3113.43920,0.07185
3111.37868,0.07100
3109.31817,0.07025
3107.25765,0.06869
3105.19714,0.06668
3103.13662,0.06524
3101.07611,0.06430
3099.01559,0.06323
3096.95507,0.06195
3094.89456,0.06048
3092.83404,0.05913
3090.77353,0.05830
3088.71301,0.05759
3086.65250,0.05653
3084.59198,0.05538
3082.53147,0.05436
3080.47095,0.05341
3078.41043,0.05261
3076.34992,0.05165
3074.28940,0.05042
3072.22889,0.04951
3070.16837,0.04882
3068.10786,0.04791
3066.04734,0.04682
3063.98682,0.04565
3061.92631,0.04465
3059.86579,0.04405
3057.80528,0.04356
3055.74476,0.04267
3053.68425,0.04159
3051.62373,0.04063
3049.56321,0.03963
3047.50270,0.03870
3045.44218,0.03808
3043.38167,0.03748
3041.32115,0.03663
3039.26064,0.03583
3037.20012,0.03517
3035.13960,0.03469
3033.07909,0.03429
3031.01857,0.03376
3028.95806,0.03340
3026.89754,0.03317
3024.83703,0.03271
3022.77651,0.03214
3020.71599,0.03158
3018.65548,0.03081
3016.59496,0.02994
3014.53445,0.02950
3012.47393,0.02936
3010.41342,0.02909
3008.35290,0.02873
3006.29238,0.02820
3004.23187,0.02754
3002.17135,0.02695
3000.11084,0.02661
2998.05032,0.02676
2995.98981,0.02709
2993.92929,0.02725
2991.86877,0.02759
2989.80826,0.02806
2987.74774,0.02835
2985.68723,0.02878
2983.62671,0.02965
2981.56620,0.03091
2979.50568,0.03258
2977.44517,0.03460
2975.38465,0.03679
2973.32413,0.03879
2971.26362,0.04062
2969.20310,0.04270
2967.14259,0.04501
2965.08207,0.04719
2963.02156,0.04928
2960.96104,0.05141
2958.90052,0.05353
2956.84001,0.05555
2954.77949,0.05733
2952.71898,0.05882
2950.65846,0.06025
2948.59795,0.06173
2946.53743,0.06308
2944.47691,0.06423
2942.41640,0.06529
2940.35588,0.06638
2938.29537,0.06767
2936.23485,0.06931
2934.17434,0.07102
2932.11382,0.07269
2930.05330,0.07433
2927.99279,0.07607
2925.93227,0.07804
2923.87176,0.07992
2921.81124,0.08158
2919.75073,0.08289
2917.69021,0.08365
2915.62969,0.08396
2913.56918,0.08393
2911.50866,0.08362
2909.44815,0.08318
2907.38763,0.08273
2905.32712,0.08221
2903.26660,0.08159
2901.20608,0.08103
2899.14557,0.08062
2897.08505,0.08029
2895.02454,0.08013
2892.96402,0.08046
2890.90351,0.08145
2888.84299,0.08281
2886.78247,0.08413
2884.72196,0.08555
2882.66144,0.08698
2880.60093,0.08791
2878.54041,0.08804
2876.47990,0.08728
2874.41938,0.08588
2872.35887,0.08402
2870.29835,0.08126
2868.23783,0.07750
2866.17732,0.07343
2864.11680,0.06942
2862.05629,0.06530
2859.99577,0.06104
2857.93526,0.05700
2855.87474,0.05353
2853.81422,0.05037
2851.75371,0.04739
2849.69319,0.04469
2847.63268,0.04214
2845.57216,0.03978
2843.51165,0.03761
2841.45113,0.03565
2839.39061,0.03408
2837.33010,0.03284
2835.26958,0.03173
2833.20907,0.03072
2831.14855,0.02971
2829.08804,0.02879
2827.02752,0.02808
2824.96700,0.02746
2822.90649,0.02676
2820.84597,0.02604
2818.78546,0.02536
2816.72494,0.02453
2814.66443,0.02354
2812.60391,0.02255
2810.54339,0.02177
2808.48288,0.02124
2806.42236,0.02071
2804.36185,0.01993
2802.30133,0.01891
2800.24082,0.01805
2798.18030,0.01749
2796.11978,0.01696
2794.05927,0.01651
2791.99875,0.01631
2789.93824,0.01591
2787.87772,0.01510
2785.81721,0.01446
2783.75669,0.01411
2781.69618,0.01369
2779.63566,0.01335
2777.57514,0.01321
2775.51463,0.01295
2773.45411,0.01261
2771.39360,0.01232
2769.33308,0.01204
2767.27257,0.01189
2765.21205,0.01192
2763.15153,0.01178
2761.09102,0.01137
2759.03050,0.01117
2756.96999,0.01121
2754.90947,0.01107
2752.84896,0.01101
2750.78844,0.01116
2748.72792,0.01122
2746.66741,0.01109
2744.60689,0.01091
2742.54638,0.01073
2740.48586,0.01059
2738.42535,0.01043
2736.36483,0.01024
2734.30431,0.01005
2732.24380,0.00982
2730.18328,0.00952
2728.12277,0.00929
2726.06225,0.00917
2724.00174,0.00891
2721.94122,0.00855
2719.88070,0.00831
2717.82019,0.00817
2715.75967,0.00807
2713.69916,0.00802
2711.63864,0.00802
2709.57813,0.00802
2707.51761,0.00780
2705.45709,0.00743
2703.39658,0.00723
2701.33606,0.00717
2699.27555,0.00703
2697.21503,0.00684
2695.15452,0.00667
2693.09400,0.00649
2691.03348,0.00618
2688.97297,0.00587
2686.91245,0.00571
2684.85194,0.00554
2682.79142,0.00545
2680.73091,0.00556
2678.67039,0.00571
2676.60988,0.00564
2674.54936,0.00530
2672.48884,0.00499
2670.42833,0.00498
2668.36781,0.00505
2666.30730,0.00505
2664.24678,0.00495
2662.18627,0.00459
2660.12575,0.00425
2658.06523,0.00432
2656.00472,0.00446
2653.94420,0.00446
2651.88369,0.00451
2649.82317,0.00455
2647.76266,0.00437
2645.70214,0.00413
2643.64162,0.00409
2641.58111,0.00412
2639.52059,0.00391
2637.46008,0.00366
2635.39956,0.00373
2633.33905,0.00393
2631.27853,0.00408
2629.21801,0.00419
2627.15750,0.00409
2625.09698,0.00390
2623.03647,0.00378
2620.97595,0.00384
2618.91544,0.00408
2616.85492,0.00402
2614.79440,0.00365
2612.73389,0.00349
2610.67337,0.00357
2608.61286,0.00361
2606.55234,0.00359
2604.49183,0.00354
2602.43131,0.00342
2600.37079,0.00351
2598.31028,0.00386
2596.24976,0.00422
2594.18925,0.00423
2592.12873,0.00368
2590.06822,0.00310
2588.00770,0.00293
2585.94718,0.00306
2583.88667,0.00311
2581.82615,0.00302
2579.76564,0.00314
2577.70512,0.00332
2575.64461,0.00331
2573.58409,0.00350
2571.52358,0.00379
2569.46306,0.00366
2567.40254,0.00312
2565.34203,0.00265
2563.28151,0.00272
2561.22100,0.00316
2559.16048,0.00351
2557.09997,0.00379
2555.03945,0.00380
2552.97893,0.00326
2550.91842,0.00271
2548.85790,0.00259
2546.79739,0.00279
2544.73687,0.00318
2542.67636,0.00340
2540.61584,0.00344
2538.55532,0.00365
2536.49481,0.00373
2534.43429,0.00363
2532.37378,0.00370
2530.31326,0.00353
2528.25275,0.00303
2526.19223,0.00284
2524.13171,0.00298
2522.07120,0.00310
2520.01068,0.00330
2517.95017,0.00356
2515.88965,0.00373
2513.82914,0.00365
2511.76862,0.00328
2509.70810,0.00306
2507.64759,0.00336
2505.58707,0.00399
2503.52656,0.00432
2501.46604,0.00410
2499.40553,0.00382
2497.34501,0.00376
2495.28449,0.00377
2493.22398,0.00377
2491.16346,0.00365
2489.10295,0.00355
2487.04243,0.00379
2484.98192,0.00419
2482.92140,0.00442
2480.86088,0.00412
2478.80037,0.00344
2476.73985,0.00317
2474.67934,0.00334
2472.61882,0.00338
2470.55831,0.00326
2468.49779,0.00314
2466.43728,0.00305
2464.37676,0.00318
2462.31624,0.00351
2460.25573,0.00356
2458.19521,0.00342
2456.13470,0.00361
2454.07418,0.00402
2452.01367,0.00427
2449.95315,0.00420
2447.89263,0.00405
2445.83212,0.00399
2443.77160,0.00364
2441.71109,0.00326
2439.65057,0.00352
2437.59006,0.00401
2435.52954,0.00430
2433.46902,0.00438
2431.40851,0.00414
2429.34799,0.00391
2427.28748,0.00411
2425.22696,0.00443
2423.16645,0.00449
2421.10593,0.00435
2419.04541,0.00412
2416.98490,0.00393
2414.92438,0.00391
2412.86387,0.00399
2410.80335,0.00412
2408.74284,0.00431
2406.68232,0.00445
2404.62180,0.00439
2402.56129,0.00424
2400.50077,0.00443
2398.44026,0.00478
2396.37974,0.00494
2394.31923,0.00516
2392.25871,0.00546
2390.19819,0.00547
2388.13768,0.00518
2386.07716,0.00478
2384.01665,0.00434
2381.95613,0.00437
2379.89562,0.00518
2377.83510,0.00582
2375.77459,0.00577
2373.71407,0.00574
2371.65355,0.00573
2369.59304,0.00530
2367.53252,0.00533
2365.47201,0.00612
2363.41149,0.00630
2361.35098,0.00562
2359.29046,0.00522
2357.22994,0.00495
2355.16943,0.00433
2353.10891,0.00446
2351.04840,0.00526
2348.98788,0.00561
2346.92737,0.00558
2344.86685,0.00582
2342.80633,0.00649
2340.74582,0.00707
2338.68530,0.00702
2336.62479,0.00636
2334.56427,0.00582
2332.50376,0.00582
2330.44324,0.00587
2328.38272,0.00553
2326.32221,0.00515
2324.26169,0.00502
2322.20118,0.00530
2320.14066,0.00600
2318.08015,0.00629
2316.01963,0.00605
2313.95911,0.00603
2311.89860,0.00638
2309.83808,0.00675
2307.77757,0.00646
2305.71705,0.00576
2303.65654,0.00563
2301.59602,0.00605
2299.53550,0.00636
2297.47499,0.00638
2295.41447,0.00639
2293.35396,0.00645
2291.29344,0.00658
2289.23293,0.00673
2287.17241,0.00678
2285.11189,0.00660
2283.05138,0.00626
2280.99086,0.00636
2278.93035,0.00712
2276.86983,0.00762
2274.80932,0.00713
2272.74880,0.00648
2270.68829,0.00646
2268.62777,0.00620
2266.56725,0.00577
2264.50674,0.00613
2262.44622,0.00681
2260.38571,0.00714
2258.32519,0.00709
2256.26468,0.00724
2254.20416,0.00767
2252.14364,0.00779
2250.08313,0.00783
2248.02261,0.00790
2245.96210,0.00723
2243.90158,0.00636
2241.84107,0.00609
2239.78055,0.00586
2237.72003,0.00593
2235.65952,0.00662
2233.59900,0.00677
2231.53849,0.00636
2229.47797,0.00672
2227.41746,0.00755
2225.35694,0.00834
2223.29642,0.00924
2221.23591,0.00972
2219.17539,0.00927
2217.11488,0.00810
2215.05436,0.00698
2212.99385,0.00638
2210.93333,0.00661
2208.87281,0.00719
2206.81230,0.00731
2204.75178,0.00761
2202.69127,0.00802
2200.63075,0.00775
2198.57024,0.00694
2196.50972,0.00628
2194.44920,0.00648
2192.38869,0.00737
2190.32817,0.00781
2188.26766,0.00773
2186.20714,0.00837
2184.14663,0.00888
2182.08611,0.00814
2180.02559,0.00819
2177.96508,0.00876
2175.90456,0.00799
2173.84405,0.00749
2171.78353,0.00787
2169.72302,0.00841
2167.66250,0.00864
2165.60199,0.00789
2163.54147,0.00665
2161.48095,0.00654
2159.42044,0.00836
2157.35992,0.00957
2155.29941,0.00887
2153.23889,0.00852
2151.17838,0.00945
2149.11786,0.01050
2147.05734,0.01089
2144.99683,0.00999
2142.93631,0.00857
2140.87580,0.00835
2138.81528,0.00935
2136.75477,0.01037
2134.69425,0.01044
2132.63373,0.00995
2130.57322,0.01016
2128.51270,0.01097
2126.45219,0.01123
2124.39167,0.01140
2122.33116,0.01211
2120.27064,0.01237
2118.21012,0.01179
2116.14961,0.01140
2114.08909,0.01153
2112.02858,0.01152
2109.96806,0.01158
2107.90755,0.01219
2105.84703,0.01272
2103.78651,0.01241
2101.72600,0.01205
2099.66548,0.01225
2097.60497,0.01258
2095.54445,0.01223
2093.48394,0.01158
2091.42342,0.01143
2089.36290,0.01130
2087.30239,0.01120
2085.24187,0.01140
2083.18136,0.01134
2081.12084,0.01084
2079.06033,0.01067
2076.99981,0.01111
2074.93930,0.01151
2072.87878,0.01136
2070.81826,0.01066
2068.75775,0.01020
2066.69723,0.01001
2064.63672,0.00911
2062.57620,0.00845
2060.51569,0.00953
2058.45517,0.01101
2056.39465,0.01089
2054.33414,0.00983
2052.27362,0.00931
2050.21311,0.00897
2048.15259,0.00838
2046.09208,0.00850
2044.03156,0.00873
2041.97104,0.00837
2039.91053,0.00869
2037.85001,0.00907
2035.78950,0.00810
2033.72898,0.00656
2031.66847,0.00536
2029.60795,0.00517
2027.54743,0.00685
2025.48692,0.00987
2023.42640,0.01169
2021.36589,0.00963
2019.30537,0.00507
2017.24486,0.00280
2015.18434,0.00465
2013.12382,0.00761
2011.06331,0.00788
2009.00279,0.00586
2006.94228,0.00456
2004.88176,0.00459
2002.82125,0.00559
2000.76073,0.00674
1998.70021,0.00703
1996.63970,0.00735
1994.57918,0.00819
1992.51867,0.00860
1990.45815,0.00883
1988.39764,0.01007
1986.33712,0.01088
1984.27660,0.00988
1982.21609,0.00870
1980.15557,0.00788
1978.09506,0.00704
1976.03454,0.00721
1973.97403,0.00828
1971.91351,0.00857
1969.85300,0.00736
1967.79248,0.00611
1965.73196,0.00569
1963.67145,0.00528
1961.61093,0.00542
1959.55042,0.00688
1957.48990,0.00819
1955.42939,0.00842
1953.36887,0.00821
1951.30835,0.00814
1949.24784,0.00877
1947.18732,0.00968
1945.12681,0.00970
1943.06629,0.00938
1941.00578,0.00953
1938.94526,0.00944
1936.88474,0.00895
1934.82423,0.00853
1932.76371,0.00802
1930.70320,0.00757
1928.64268,0.00788
1926.58217,0.00832
1924.52165,0.00803
1922.46113,0.00762
1920.40062,0.00742
1918.34010,0.00723
1916.27959,0.00689
1914.21907,0.00629
1912.15856,0.00600
1910.09804,0.00657
1908.03752,0.00709
1905.97701,0.00655
1903.91649,0.00566
1901.85598,0.00536
1899.79546,0.00563
1897.73495,0.00615
1895.67443,0.00632
1893.61391,0.00591
1891.55340,0.00574
1889.49288,0.00591
1887.43237,0.00574
1885.37185,0.00567
1883.31134,0.00630
1881.25082,0.00686
1879.19030,0.00629
1877.12979,0.00521
1875.06927,0.00479
1873.00876,0.00519
1870.94824,0.00565
1868.88773,0.00625
1866.82721,0.00719
1864.76670,0.00737
1862.70618,0.00675
1860.64566,0.00607
1858.58515,0.00582
1856.52463,0.00604
1854.46412,0.00609
1852.40360,0.00586
1850.34309,0.00592
1848.28257,0.00628
1846.22205,0.00639
1844.16154,0.00621
1842.10102,0.00603
1840.04051,0.00589
1837.97999,0.00596
1835.91948,0.00646
1833.85896,0.00706
1831.79844,0.00723
1829.73793,0.00683
1827.67741,0.00616
1825.61690,0.00571
1823.55638,0.00594
1821.49587,0.00664
1819.43535,0.00701
1817.37483,0.00689
1815.31432,0.00667
1813.25380,0.00657
1811.19329,0.00671
1809.13277,0.00721
1807.07226,0.00764
1805.01174,0.00771
1802.95122,0.00776
1800.89071,0.00787
1798.83019,0.00780
1796.76968,0.00789
1794.70916,0.00828
1792.64865,0.00861
1790.58813,0.00873
1788.52761,0.00880
1786.46710,0.00892
1784.40658,0.00918
1782.34607,0.00940
1780.28555,0.00938
1778.22504,0.00937
1776.16452,0.00957
1774.10400,0.00972
1772.04349,0.00958
1769.98297,0.00972
1767.92246,0.01053
1765.86194,0.01144
1763.80143,0.01178
1761.74091,0.01168
1759.68040,0.01177
1757.61988,0.01217
1755.55936,0.01260
1753.49885,0.01282
1751.43833,0.01297
1749.37782,0.01329
1747.31730,0.01373
1745.25679,0.01422
1743.19627,0.01485
1741.13575,0.01554
1739.07524,0.01616
1737.01472,0.01673
1734.95421,0.01727
1732.89369,0.01803
1730.83318,0.01886
1728.77266,0.01969
1726.71214,0.02057
1724.65163,0.02154
1722.59111,0.02254
1720.53060,0.02329
1718.47008,0.02396
1716.40957,0.02517
1714.34905,0.02670
1712.28853,0.02820
1710.22802,0.02981
1708.16750,0.03135
1706.10699,0.03303
1704.04647,0.03474
1701.98596,0.03611
1699.92544,0.03784
1697.86492,0.04025
1695.80441,0.04324
1693.74389,0.04653
1691.68338,0.04927
1689.62286,0.05196
1687.56235,0.05471
1685.50183,0.05768
1683.44131,0.06186
1681.38080,0.06602
1679.32028,0.06976
1677.25977,0.07344
1675.19925,0.07712
1673.13874,0.08077
1671.07822,0.08459
1669.01771,0.08924
1666.95719,0.09382
1664.89667,0.09766
1662.83616,0.10144
1660.77564,0.10504
1658.71513,0.10807
1656.65461,0.11060
1654.59410,0.11292
1652.53358,0.11575
1650.47306,0.11815
1648.41255,0.11972
1646.35203,0.12079
1644.29152,0.12135
1642.23100,0.12158
1640.17049,0.12146
1638.10997,0.12068
1636.04945,0.11851
1633.98894,0.11561
1631.92842,0.11332
1629.86791,0.11069
1627.80739,0.10703
1625.74688,0.10297
1623.68636,0.09855
1621.62584,0.09385
1619.56533,0.08962
1617.50481,0.08462
1615.44430,0.07897
1613.38378,0.07488
1611.32327,0.07144
1609.26275,0.06766
1607.20223,0.06378
1605.14172,0.06036
1603.08120,0.05751
1601.02069,0.05500
1598.96017,0.05265
1596.89966,0.05031
1594.83914,0.04803
1592.77862,0.04613
1590.71811,0.04448
1588.65759,0.04281
1586.59708,0.04125
1584.53656,0.03994
1582.47605,0.03890
1580.41553,0.03810
1578.35501,0.03732
1576.29450,0.03617
1574.23398,0.03503
1572.17347,0.03417
1570.11295,0.03320
1568.05244,0.03236
1565.99192,0.03188
1563.93141,0.03144
1561.87089,0.03092
1559.81037,0.02994
1557.74986,0.02895
1555.68934,0.02888
1553.62883,0.02885
1551.56831,0.02854
1549.50780,0.02820
1547.44728,0.02797
1545.38676,0.02750
1543.32625,0.02669
1541.26573,0.02598
1539.20522,0.02586
1537.14470,0.02606
1535.08419,0.02598
1533.02367,0.02576
1530.96315,0.02577
1528.90264,0.02581
1526.84212,0.02564
1524.78161,0.02534
1522.72109,0.02501
1520.66058,0.02504
1518.60006,0.02536
1516.53954,0.02544
1514.47903,0.02548
1512.41851,0.02564
1510.35800,0.02558
1508.29748,0.02521
1506.23697,0.02520
1504.17645,0.02579
1502.11593,0.02636
1500.05542,0.02686
1497.99490,0.02739
1495.93439,0.02844
1493.87387,0.03010
1491.81336,0.03195
1489.75284,0.03396
1487.69232,0.03575
1485.63181,0.03737
1483.57129,0.03964
1481.51078,0.04318
1479.45026,0.04788
1477.38975,0.05329
1475.32923,0.05883
1473.26871,0.06322
1471.20820,0.06567
1469.14768,0.06655
1467.08717,0.06682
1465.02665,0.06730
1462.96614,0.06819
1460.90562,0.06909
1458.84511,0.07002
1456.78459,0.07112
1454.72407,0.07125
1452.66356,0.06948
1450.60304,0.06617
1448.54253,0.06242
1446.48201,0.05935
1444.42150,0.05693
1442.36098,0.05421
1440.30046,0.05104
1438.23995,0.04767
1436.17943,0.04439
1434.11892,0.04219
1432.05840,0.04094
1429.99789,0.04026
1427.93737,0.03998
1425.87685,0.03970
1423.81634,0.03937
1421.75582,0.03904
1419.69531,0.03856
1417.63479,0.03832
1415.57428,0.03840
1413.51376,0.03835
1411.45324,0.03834
1409.39273,0.03840
1407.33221,0.03835
1405.27170,0.03823
1403.21118,0.03811
1401.15067,0.03803
1399.09015,0.03804
1397.02963,0.03807
1394.96912,0.03822
1392.90860,0.03877
1390.84809,0.03937
1388.78757,0.03949
1386.72706,0.03945
1384.66654,0.03987
1382.60602,0.04066
1380.54551,0.04165
1378.48499,0.04256
1376.42448,0.04329
1374.36396,0.04434
1372.30345,0.04611
1370.24293,0.04843
1368.18241,0.05121
1366.12190,0.05437
1364.06138,0.05817
1362.00087,0.06310
1359.94035,0.06901
1357.87984,0.07567
1355.81932,0.08324
1353.75881,0.09134
1351.69829,0.09861
1349.63777,0.10221
1347.57726,0.09838
1345.51674,0.08647
1343.45623,0.07156
1341.39571,0.05974
1339.33520,0.05321
1337.27468,0.05100
1335.21416,0.05098
1333.15365,0.05139
1331.09313,0.05125
1329.03262,0.05036
1326.97210,0.04899
1324.91159,0.04749
1322.85107,0.04635
1320.79055,0.04585
1318.73004,0.04626
1316.66952,0.04782
1314.60901,0.05034
1312.54849,0.05366
1310.48798,0.05759
1308.42746,0.06156
1306.36694,0.06521
1304.30643,0.06820
1302.24591,0.07016
1300.18540,0.07118
1298.12488,0.07155
1296.06437,0.07153
1294.00385,0.07147
1291.94333,0.07168
1289.88282,0.07180
1287.82230,0.07129
1285.76179,0.07013
1283.70127,0.06842
1281.64076,0.06633
1279.58024,0.06415
1277.51972,0.06193
1275.45921,0.05984
1273.39869,0.05823
1271.33818,0.05725
1269.27766,0.05713
1267.21715,0.05806
1265.15663,0.06007
1263.09612,0.06329
1261.03560,0.06737
1258.97508,0.07166
1256.91457,0.07575
1254.85405,0.07926
1252.79354,0.08180
1250.73302,0.08295
1248.67251,0.08240
1246.61199,0.08007
1244.55147,0.07636
1242.49096,0.07208
1240.43044,0.06790
1238.36993,0.06408
1236.30941,0.06054
1234.24890,0.05693
1232.18838,0.05338
1230.12786,0.05040
1228.06735,0.04825
1226.00683,0.04667
1223.94632,0.04532
1221.88580,0.04389
1219.82529,0.04244
1217.76477,0.04135
1215.70425,0.04053
1213.64374,0.03973
1211.58322,0.03896
1209.52271,0.03841
1207.46219,0.03796
1205.40168,0.03746
1203.34116,0.03722
1201.28064,0.03733
1199.22013,0.03745
1197.15961,0.03745
1195.09910,0.03735
1193.03858,0.03746
1190.97807,0.03783
1188.91755,0.03815
1186.85703,0.03823
1184.79652,0.03835
1182.73600,0.03878
1180.67549,0.03938
1178.61497,0.04000
1176.55446,0.04077
1174.49394,0.04182
1172.43342,0.04320
1170.37291,0.04492
1168.31239,0.04688
1166.25188,0.04926
1164.19136,0.05257
1162.13085,0.05706
1160.07033,0.06255
1158.00982,0.06920
1155.94930,0.07731
1153.88878,0.08654
1151.82827,0.09683
1149.76775,0.10802
1147.70724,0.11932
1145.64672,0.13032
1143.58621,0.14093
1141.52569,0.15060
1139.46517,0.15880
1137.40466,0.16573
1135.34414,0.17189
1133.28363,0.17741
1131.22311,0.18246
1129.16260,0.18777
1127.10208,0.19405
1125.04156,0.20129
1122.98105,0.20932
1120.92053,0.21815
1118.86002,0.22752
1116.79950,0.23732
1114.73899,0.24748
1112.67847,0.25786
1110.61795,0.26834
1108.55744,0.27878
1106.49692,0.28959
1104.43641,0.30100
1102.37589,0.31239
1100.31538,0.32356
1098.25486,0.33489
1096.19434,0.34561
1094.13383,0.35465
1092.07331,0.36207
1090.01280,0.36815
1087.95228,0.37323
1085.89177,0.37715
1083.83125,0.37913
1081.77073,0.37868
1079.71022,0.37607
1077.64970,0.37209
1075.58919,0.36710
1073.52867,0.36123
1071.46816,0.35480
1069.40764,0.34702
1067.34712,0.33701
1065.28661,0.32502
1063.22609,0.31092
1061.16558,0.29428
1059.10506,0.27545
1057.04455,0.25545
1054.98403,0.23542
1052.92352,0.21637
1050.86300,0.19912
1048.80248,0.18468
1046.74197,0.17416
1044.68145,0.16740
1042.62094,0.16295
1040.56042,0.15990
1038.49991,0.15790
1036.43939,0.15594
1034.37887,0.15316
1032.31836,0.14966
1030.25784,0.14542
1028.19733,0.13986
1026.13681,0.13299
1024.07630,0.12549
1022.01578,0.11786
1019.95526,0.11024
1017.89475,0.10294
1015.83423,0.09660
1013.77372,0.09145
1011.71320,0.08717
1009.65269,0.08361
1007.59217,0.08084
1005.53165,0.07883
1003.47114,0.07739
1001.41062,0.07632
999.35011,0.07545
997.28959,0.07466
995.22908,0.07396
993.16856,0.07332
991.10804,0.07264
989.04753,0.07184
986.98701,0.07082
984.92650,0.06963
982.86598,0.06845
980.80547,0.06754
978.74495,0.06706
976.68443,0.06680
974.62392,0.06674
972.56340,0.06744
970.50289,0.06943
968.44237,0.07260
966.38186,0.07682
964.32134,0.08257
962.26082,0.09049
960.20031,0.10041
958.13979,0.11184
956.07928,0.12422
954.01876,0.13640
951.95825,0.14687
949.89773,0.15433
947.83722,0.15827
945.77670,0.15879
943.71618,0.15663
941.65567,0.15301
939.59515,0.14877
937.53464,0.14441
935.47412,0.14005
933.41361,0.13523
931.35309,0.13017
929.29257,0.12551
927.23206,0.12142
925.17154,0.11811
923.11103,0.11555
921.05051,0.11314
918.99000,0.11070
916.92948,0.10843
914.86896,0.10625
912.80845,0.10392
910.74793,0.10121
908.68742,0.09839
906.62690,0.09609
904.56639,0.09435
902.50587,0.09308
900.44535,0.09234
898.38484,0.09241
896.32432,0.09398
894.26381,0.09694
892.20329,0.10027
890.14278,0.10341
888.08226,0.10615
886.02174,0.10852
883.96123,0.10992
881.90071,0.10968
879.84020,0.10871
877.77968,0.10803
875.71917,0.10802
873.65865,0.10864
871.59813,0.10965
869.53762,0.11110
867.47710,0.11282
865.41659,0.11462
863.35607,0.11657
861.29556,0.11877
859.23504,0.12163
857.17453,0.12544
855.11401,0.12960
853.05349,0.13360
850.99298,0.13780
848.93246,0.14210
846.87195,0.14583
844.81143,0.14907
842.75092,0.15257
840.69040,0.15607
838.62988,0.15869
836.56937,0.16045
834.50885,0.16186
832.44834,0.16311
830.38782,0.16380
828.32731,0.16355
826.26679,0.16273
824.20627,0.16180
822.14576,0.16129
820.08524,0.16174
818.02473,0.16293
815.96421,0.16400
813.90370,0.16479
811.84318,0.16562
809.78266,0.16613
807.72215,0.16644
805.66163,0.16762
803.60112,0.16975
801.54060,0.17182
799.48009,0.17336
797.41957,0.17495
795.35905,0.17678
793.29854,0.17805
791.23802,0.17890
789.17751,0.18044
787.11699,0.18244
785.05648,0.18423
782.99596,0.18620
780.93544,0.18864
778.87493,0.19093
776.81441,0.19296
774.75390,0.19511
772.69338,0.19743
770.63287,0.20005
768.57235,0.20259
766.51183,0.20457
764.45132,0.20644
762.39080,0.20867
760.33029,0.21118
758.26977,0.21403
756.20926,0.21722
754.14874,0.21987
752.08823,0.22207
750.02771,0.22474
747.96719,0.22759
745.90668,0.23011
743.84616,0.23266
741.78565,0.23519
739.72513,0.23728
737.66462,0.23938
735.60410,0.24219
733.54358,0.24556
731.48307,0.24861
729.42255,0.25075
727.36204,0.25255
725.30152,0.25500
723.24101,0.25795
721.18049,0.26060
719.11997,0.26303
717.05946,0.26564
714.99894,0.26837
712.93843,0.27154
710.87791,0.27492
708.81740,0.27780
706.75688,0.28028
704.69636,0.28277
702.63585,0.28539
700.57533,0.28779
698.51482,0.28979
696.45430,0.29144
694.39379,0.29276
692.33327,0.29456
690.27275,0.29717
688.21224,0.30017
686.15172,0.30385
684.09121,0.30751
682.03069,0.31040
679.97018,0.31320
677.90966,0.31598
675.84914,0.31760
673.78863,0.31815
671.72811,0.31946
669.66760,0.32265
667.60708,0.32680
665.54657,0.32887
663.48605,0.32997
661.42553,0.33127
659.36502,0.33252
657.30450,0.33413
655.24399,0.33716
653.18347,0.34100
651.12296,0.34334
649.06244,0.34418
647.00193,0.34533
644.94141,0.34690
642.88089,0.34826
640.82038,0.34949
638.75986,0.35141
636.69935,0.35408
634.63883,0.35647
632.57832,0.35853
630.51780,0.36028
628.45728,0.36157
626.39677,0.36256
624.33625,0.36296
622.27574,0.36325
620.21522,0.36488
618.15471,0.36767
616.09419,0.37043
614.03367,0.37311
611.97316,0.37498
609.91264,0.37609
607.85213,0.37753
605.79161,0.37862
603.73110,0.37976
601.67058,0.38190
599.61006,0.38423
597.54955,0.38605
595.48903,0.38717
593.42852,0.38778
591.36800,0.38869
589.30749,0.38997
587.24697,0.39183
585.18645,0.39545
583.12594,0.39917
581.06542,0.39995
579.00491,0.39938
576.94439,0.40070
574.88388,0.40352
572.82336,0.40557
570.76284,0.40652
568.70233,0.40720
566.64181,0.40811
564.58130,0.40995
562.52078,0.41254
560.46027,0.41413
558.39975,0.41375
556.33924,0.41298
554.27872,0.41279
552.21820,0.41281
550.15769,0.41353
548.09717,0.41538
546.03666,0.41714
543.97614,0.41764
541.91563,0.41834
539.85511,0.42009
537.79459,0.42257
535.73408,0.42516
533.67356,0.42606
531.61305,0.42641
529.55253,0.42787
527.49202,0.42884
525.43150,0.42939
523.37098,0.43159
521.31047,0.43440
519.24995,0.43637
517.18944,0.43702
515.12892,0.43569
513.06841,0.43486
511.00789,0.43575
508.94737,0.43671
506.88686,0.43839
504.82634,0.44155
502.76583,0.44286
500.70531,0.43993
498.64480,0.43700
496.58428,0.43715
494.52376,0.43735
492.46325,0.43392
490.40273,0.42976
488.34222,0.43062
486.28170,0.43338
484.22119,0.43323
482.16067,0.43408
480.10015,0.43700
478.03964,0.43725
475.97912,0.43625
473.91861,0.43785
471.85809,0.43914
469.79758,0.43580
467.73706,0.43201
465.67654,0.43250
463.61603,0.43560
461.55551,0.43752
459.49500,0.43430
457.43448,0.42851
455.37397,0.42617
453.31345,0.42564
451.25294,0.42695
449.19242,0.43154
447.13190,0.43698
445.07139,0.43927
443.01087,0.43510
440.95036,0.42813
438.88984,0.42504
436.82933,0.42650
434.76881,0.43006
432.70829,0.43193
430.64778,0.42927
428.58726,0.42450
426.52675,0.41857
424.46623,0.41265
422.40572,0.41224
420.34520,0.41319
418.28468,0.41571
416.22417,0.42311
414.16365,0.42399
412.10314,0.42189
410.04262,0.42382
407.98211,0.42178
405.92159,0.41520
403.86107,0.41365
401.80056,0.41768
399.74004,0.41760
