3997.40043,0.00310
3995.33991,0.00372
3993.27940,0.00381
3991.21888,0.00330
3989.15837,0.00282
3987.09785,0.00273
3985.03734,0.00290
3982.97682,0.00300
3980.91630,0.00294
3978.85579,0.00265
3976.79527,0.00219
3974.73476,0.00200
3972.67424,0.00228
3970.61373,0.00272
3968.55321,0.00281
3966.49269,0.00259
3964.43218,0.00269
3962.37166,0.00287
3960.31115,0.00258
3958.25063,0.00243
3956.19012,0.00277
3954.12960,0.00301
3952.06908,0.00273
3950.00857,0.00227
3947.94805,0.00223
3945.88754,0.00258
3943.82702,0.00276
3941.76651,0.00262
3939.70599,0.00284
3937.64547,0.00330
3935.58496,0.00309
3933.52444,0.00257
3931.46393,0.00238
3929.40341,0.00219
3927.34290,0.00195
3925.28238,0.00174
3923.22186,0.00160
3921.16135,0.00164
3919.10083,0.00206
3917.04032,0.00275
3914.97980,0.00314
3912.91929,0.00294
3910.85877,0.00237
3908.79825,0.00176
3906.73774,0.00170
3904.67722,0.00232
3902.61671,0.00266
3900.55619,0.00216
3898.49568,0.00182
3896.43516,0.00216
3894.37465,0.00255
3892.31413,0.00246
3890.25361,0.00198
3888.19310,0.00163
3886.13258,0.00159
3884.07207,0.00205
3882.01155,0.00247
3879.95104,0.00244
3877.89052,0.00258
3875.83000,0.00263
3873.76949,0.00242
3871.70897,0.00234
3869.64846,0.00240
3867.58794,0.00265
3865.52743,0.00286
3863.46691,0.00300
3861.40639,0.00303
3859.34588,0.00282
3857.28536,0.00264
3855.22485,0.00266
3853.16433,0.00251
3851.10382,0.00232
3849.04330,0.00245
3846.98278,0.00269
3844.92227,0.00292
3842.86175,0.00309
3840.80124,0.00308
3838.74072,0.00287
3836.68021,0.00276
3834.61969,0.00282
3832.55917,0.00291
3830.49866,0.00294
3828.43814,0.00277
3826.37763,0.00254
3824.31711,0.00254
3822.25660,0.00245
3820.19608,0.00223
3818.13556,0.00220
3816.07505,0.00238
3814.01453,0.00268
3811.95402,0.00291
3809.89350,0.00284
3807.83299,0.00234
3805.77247,0.00187
3803.71195,0.00179
3801.65144,0.00212
3799.59092,0.00293
3797.53041,0.00374
3795.46989,0.00415
3793.40938,0.00397
3791.34886,0.00374
3789.28835,0.00380
3787.22783,0.00407
3785.16731,0.00450
3783.10680,0.00458
3781.04628,0.00417
3778.98577,0.00405
3776.92525,0.00451
3774.86474,0.00497
3772.80422,0.00487
3770.74370,0.00433
3768.68319,0.00425
3766.62267,0.00466
3764.56216,0.00479
3762.50164,0.00458
3760.44113,0.00453
3758.38061,0.00475
3756.32009,0.00490
3754.25958,0.00474
3752.19906,0.00444
3750.13855,0.00430
3748.07803,0.00429
3746.01752,0.00454
3743.95700,0.00521
3741.89648,0.00574
3739.83597,0.00607
3737.77545,0.00631
3735.71494,0.00574
3733.65442,0.00480
3731.59391,0.00483
3729.53339,0.00519
3727.47287,0.00568
3725.41236,0.00636
3723.35184,0.00672
3721.29133,0.00716
3719.23081,0.00764
3717.17030,0.00781
3715.10978,0.00777
3713.04926,0.00748
3710.98875,0.00756
3708.92823,0.00885
3706.86772,0.01029
3704.80720,0.01074
3702.74669,0.01062
3700.68617,0.01105
3698.62565,0.01191
3696.56514,0.01229
3694.50462,0.01245
3692.44411,0.01299
3690.38359,0.01377
3688.32308,0.01500
3686.26256,0.01670
3684.20205,0.01797
3682.14153,0.01878
3680.08101,0.01956
3678.02050,0.02060
3675.95998,0.02209
3673.89947,0.02370
3671.83895,0.02507
3669.77844,0.02663
3667.71792,0.02875
3665.65740,0.03089
3663.59689,0.03284
3661.53637,0.03459
3659.47586,0.03622
3657.41534,0.03807
3655.35483,0.04000
3653.29431,0.04163
3651.23379,0.04323
3649.17328,0.04507
3647.11276,0.04729
3645.05225,0.04953
3642.99173,0.05152
3640.93122,0.05321
3638.87070,0.05450
3636.81018,0.05613
3634.74967,0.05848
3632.68915,0.06042
3630.62864,0.06166
3628.56812,0.06313
3626.50761,0.06479
3624.44709,0.06638
3622.38657,0.06815
3620.32606,0.06995
3618.26554,0.07189
3616.20503,0.07386
3614.14451,0.07550
3612.08400,0.07706
3610.02348,0.07857
3607.96296,0.08000
3605.90245,0.08202
3603.84193,0.08463
3601.78142,0.08698
3599.72090,0.08865
3597.66039,0.09017
3595.59987,0.09190
3593.53936,0.09364
3591.47884,0.09549
3589.41832,0.09755
3587.35781,0.09952
3585.29729,0.10123
3583.23678,0.10293
3581.17626,0.10470
3579.11575,0.10656
3577.05523,0.10860
3574.99471,0.11110
3572.93420,0.11376
3570.87368,0.11583
3568.81317,0.11758
3566.75265,0.11977
3564.69214,0.12209
3562.63162,0.12402
3560.57110,0.12579
3558.51059,0.12805
3556.45007,0.13048
3554.38956,0.13266
3552.32904,0.13532
3550.26853,0.13823
3548.20801,0.14034
3546.14749,0.14201
3544.08698,0.14413
3542.02646,0.14642
3539.96595,0.14889
3537.90543,0.15185
3535.84492,0.15461
3533.78440,0.15682
3531.72388,0.15894
3529.66337,0.16094
3527.60285,0.16308
3525.54234,0.16542
3523.48182,0.16768
3521.42131,0.17033
3519.36079,0.17310
3517.30027,0.17537
3515.23976,0.17740
3513.17924,0.17961
3511.11873,0.18215
3509.05821,0.18484
3506.99770,0.18708
3504.93718,0.18886
3502.87666,0.19095
3500.81615,0.19324
3498.75563,0.19509
3496.69512,0.19697
3494.63460,0.19967
3492.57409,0.20276
3490.51357,0.20589
3488.45306,0.20914
3486.39254,0.21175
3484.33202,0.21382
3482.27151,0.21601
3480.21099,0.21791
3478.15048,0.21993
3476.08996,0.22269
3474.02945,0.22553
3471.96893,0.22795
3469.90841,0.23028
3467.84790,0.23277
3465.78738,0.23524
3463.72687,0.23771
3461.66635,0.24029
3459.60584,0.24283
3457.54532,0.24538
3455.48480,0.24803
3453.42429,0.25053
3451.36377,0.25302
3449.30326,0.25567
3447.24274,0.25817
3445.18223,0.26056
3443.12171,0.26298
3441.06119,0.26559
3439.00068,0.26847
3436.94016,0.27132
3434.87965,0.27376
3432.81913,0.27555
3430.75862,0.27747
3428.69810,0.28029
3426.63758,0.28294
3424.57707,0.28470
3422.51655,0.28654
3420.45604,0.28920
3418.39552,0.29252
3416.33501,0.29560
3414.27449,0.29758
3412.21397,0.29888
3410.15346,0.30078
3408.09294,0.30339
3406.03243,0.30587
3403.97191,0.30757
3401.91140,0.30874
3399.85088,0.31047
3397.79036,0.31283
3395.72985,0.31466
3393.66933,0.31577
3391.60882,0.31724
3389.54830,0.31960
3387.48779,0.32250
3385.42727,0.32489
3383.36676,0.32612
3381.30624,0.32658
3379.24572,0.32716
3377.18521,0.32813
3375.12469,0.32919
3373.06418,0.32969
3371.00366,0.32953
3368.94315,0.33000
3366.88263,0.33112
3364.82211,0.33209
3362.76160,0.33307
3360.70108,0.33404
3358.64057,0.33497
3356.58005,0.33576
3354.51954,0.33579
3352.45902,0.33493
3350.39850,0.33423
3348.33799,0.33477
3346.27747,0.33600
3344.21696,0.33644
3342.15644,0.33575
3340.09593,0.33492
3338.03541,0.33511
3335.97489,0.33595
3333.91438,0.33631
3331.85386,0.33590
3329.79335,0.33537
3327.73283,0.33525
3325.67232,0.33511
3323.61180,0.33497
3321.55128,0.33526
3319.49077,0.33536
3317.43025,0.33485
3315.36974,0.33455
3313.30922,0.33449
3311.24871,0.33387
3309.18819,0.33315
3307.12767,0.33324
3305.06716,0.33388
3303.00664,0.33414
3300.94613,0.33394
3298.88561,0.33379
3296.82510,0.33358
3294.76458,0.33293
3292.70406,0.33237
3290.64355,0.33239
3288.58303,0.33247
3286.52252,0.33244
3284.46200,0.33280
3282.40149,0.33347
3280.34097,0.33347
3278.28046,0.33273
3276.21994,0.33200
3274.15942,0.33139
3272.09891,0.33092
3270.03839,0.33068
3267.97788,0.33051
3265.91736,0.33028
3263.85685,0.32999
3261.79633,0.32967
3259.73581,0.32914
3257.67530,0.32820
3255.61478,0.32749
3253.55427,0.32800
3251.49375,0.32892
3249.43324,0.32841
3247.37272,0.32671
3245.31220,0.32562
3243.25169,0.32529
3241.19117,0.32478
3239.13066,0.32409
3237.07014,0.32317
3235.00963,0.32176
3232.94911,0.32011
3230.88859,0.31856
3228.82808,0.31730
3226.76756,0.31605
3224.70705,0.31482
3222.64653,0.31391
3220.58602,0.31258
3218.52550,0.31046
3216.46498,0.30836
3214.40447,0.30672
3212.34395,0.30514
3210.28344,0.30315
3208.22292,0.30094
3206.16241,0.29909
3204.10189,0.29717
3202.04137,0.29441
3199.98086,0.29135
3197.92034,0.28868
3195.85983,0.28610
3193.79931,0.28322
3191.73880,0.28036
3189.67828,0.27763
3187.61777,0.27502
3185.55725,0.27271
3183.49673,0.27019
3181.43622,0.26742
3179.37570,0.26494
3177.31519,0.26231
3175.25467,0.25906
3173.19416,0.25570
3171.13364,0.25264
3169.07312,0.24968
3167.01261,0.24656
3164.95209,0.24320
3162.89158,0.23964
3160.83106,0.23611
3158.77055,0.23281
3156.71003,0.22979
3154.64951,0.22688
3152.58900,0.22365
3150.52848,0.22024
3148.46797,0.21695
3146.40745,0.21368
3144.34694,0.21059
3142.28642,0.20757
3140.22590,0.20436
3138.16539,0.20096
3136.10487,0.19780
3134.04436,0.19487
3131.98384,0.19145
3129.92333,0.18801
3127.86281,0.18502
3125.80229,0.18224
3123.74178,0.17943
3121.68126,0.17617
3119.62075,0.17245
3117.56023,0.16901
3115.49972,0.16635
3113.43920,0.16413
3111.37868,0.16180
3109.31817,0.15883
3107.25765,0.15546
3105.19714,0.15232
3103.13662,0.14948
3101.07611,0.14674
3099.01559,0.14393
3096.95507,0.14132
3094.89456,0.13917
3092.83404,0.13705
3090.77353,0.13474
3088.71301,0.13218
3086.65250,0.12944
3084.59198,0.12696
3082.53147,0.12485
3080.47095,0.12284
3078.41043,0.12074
3076.34992,0.11849
3074.28940,0.11602
3072.22889,0.11361
3070.16837,0.11140
3068.10786,0.10921
3066.04734,0.10705
3063.98682,0.10488
3061.92631,0.10264
3059.86579,0.10052
3057.80528,0.09853
3055.74476,0.09668
3053.68425,0.09486
3051.62373,0.09288
3049.56321,0.09077
3047.50270,0.08882
3045.44218,0.08730
3043.38167,0.08582
3041.32115,0.08405
3039.26064,0.08228
3037.20012,0.08066
3035.13960,0.07923
3033.07909,0.07791
3031.01857,0.07633
3028.95806,0.07469
3026.89754,0.07341
3024.83703,0.07225
3022.77651,0.07101
3020.71599,0.06968
3018.65548,0.06822
3016.59496,0.06678
3014.53445,0.06547
3012.47393,0.06414
3010.41342,0.06279
3008.35290,0.06149
3006.29238,0.06032
3004.23187,0.05920
3002.17135,0.05794
3000.11084,0.05668
2998.05032,0.05578
2995.98981,0.05495
2993.92929,0.05410
2991.86877,0.05338
2989.80826,0.05257
2987.74774,0.05173
2985.68723,0.05094
2983.62671,0.05010
2981.56620,0.04952
2979.50568,0.04957
2977.44517,0.04996
2975.38465,0.05001
2973.32413,0.04966
2971.26362,0.04923
2969.20310,0.04897
2967.14259,0.04899
2965.08207,0.04897
2963.02156,0.04868
2960.96104,0.04834
2958.90052,0.04802
2956.84001,0.04781
2954.77949,0.04780
2952.71898,0.04768
2950.65846,0.04727
2948.59795,0.04679
2946.53743,0.04659
2944.47691,0.04656
2942.41640,0.04635
2940.35588,0.04600
2938.29537,0.04568
2936.23485,0.04554
2934.17434,0.04566
2932.11382,0.04583
2930.05330,0.04578
2927.99279,0.04569
2925.93227,0.04570
2923.87176,0.04549
2921.81124,0.04512
2919.75073,0.04463
2917.69021,0.04369
2915.62969,0.04254
2913.56918,0.04163
2911.50866,0.04080
2909.44815,0.03979
2907.38763,0.03870
2905.32712,0.03779
2903.26660,0.03706
2901.20608,0.03644
2899.14557,0.03601
2897.08505,0.03556
2895.02454,0.03498
2892.96402,0.03469
2890.90351,0.03500
2888.84299,0.03552
2886.78247,0.03557
2884.72196,0.03529
2882.66144,0.03507
2880.60093,0.03472
2878.54041,0.03391
2876.47990,0.03264
2874.41938,0.03141
2872.35887,0.03042
2870.29835,0.02931
2868.23783,0.02805
2866.17732,0.02687
2864.11680,0.02577
2862.05629,0.02486
2859.99577,0.02417
2857.93526,0.02338
2855.87474,0.02251
2853.81422,0.02191
2851.75371,0.02149
2849.69319,0.02090
2847.63268,0.02023
2845.57216,0.01967
2843.51165,0.01913
2841.45113,0.01853
2839.39061,0.01804
2837.33010,0.01769
2835.26958,0.01717
2833.20907,0.01654
2831.14855,0.01624
2829.08804,0.01622
2827.02752,0.01598
2824.96700,0.01556
2822.90649,0.01543
2820.84597,0.01559
2818.78546,0.01545
2816.72494,0.01487
2814.66443,0.01425
2812.60391,0.01364
2810.54339,0.01323
2808.48288,0.01322
2806.42236,0.01320
2804.36185,0.01299
2802.30133,0.01265
2800.24082,0.01225
2798.18030,0.01195
2796.11978,0.01167
2794.05927,0.01150
2791.99875,0.01149
2789.93824,0.01136
2787.87772,0.01111
2785.81721,0.01099
2783.75669,0.01090
2781.69618,0.01080
2779.63566,0.01075
2777.57514,0.01054
2775.51463,0.01026
2773.45411,0.01002
2771.39360,0.00970
2769.33308,0.00942
2767.27257,0.00929
2765.21205,0.00930
2763.15153,0.00938
2761.09102,0.00932
2759.03050,0.00914
2756.96999,0.00891
2754.90947,0.00847
2752.84896,0.00808
2750.78844,0.00810
2748.72792,0.00830
2746.66741,0.00841
2744.60689,0.00846
2742.54638,0.00851
2740.48586,0.00852
2738.42535,0.00845
2736.36483,0.00827
2734.30431,0.00812
2732.24380,0.00795
2730.18328,0.00778
2728.12277,0.00770
2726.06225,0.00761
2724.00174,0.00742
2721.94122,0.00720
2719.88070,0.00716
2717.82019,0.00726
2715.75967,0.00722
2713.69916,0.00709
2711.63864,0.00713
2709.57813,0.00719
2707.51761,0.00701
2705.45709,0.00670
2703.39658,0.00660
2701.33606,0.00666
2699.27555,0.00669
2697.21503,0.00669
2695.15452,0.00657
2693.09400,0.00618
2691.03348,0.00577
2688.97297,0.00558
2686.91245,0.00550
2684.85194,0.00537
2682.79142,0.00552
2680.73091,0.00593
2678.67039,0.00610
2676.60988,0.00605
2674.54936,0.00596
2672.48884,0.00584
2670.42833,0.00576
2668.36781,0.00576
2666.30730,0.00579
2664.24678,0.00583
2662.18627,0.00581
2660.12575,0.00567
2658.06523,0.00557
2656.00472,0.00559
2653.94420,0.00555
2651.88369,0.00555
2649.82317,0.00554
2647.76266,0.00526
2645.70214,0.00508
2643.64162,0.00522
2641.58111,0.00524
2639.52059,0.00509
2637.46008,0.00499
2635.39956,0.00485
2633.33905,0.00479
2631.27853,0.00512
2629.21801,0.00549
2627.15750,0.00528
2625.09698,0.00487
2623.03647,0.00471
2620.97595,0.00469
2618.91544,0.00482
2616.85492,0.00491
2614.79440,0.00471
2612.73389,0.00471
2610.67337,0.00488
2608.61286,0.00488
2606.55234,0.00494
2604.49183,0.00503
2602.43131,0.00498
2600.37079,0.00490
2598.31028,0.00500
2596.24976,0.00542
2594.18925,0.00574
2592.12873,0.00552
2590.06822,0.00499
2588.00770,0.00447
2585.94718,0.00441
2583.88667,0.00464
2581.82615,0.00455
2579.76564,0.00451
2577.70512,0.00483
2575.64461,0.00522
2573.58409,0.00543
2571.52358,0.00535
2569.46306,0.00494
2567.40254,0.00465
2565.34203,0.00483
2563.28151,0.00506
2561.22100,0.00507
2559.16048,0.00508
2557.09997,0.00509
2555.03945,0.00504
2552.97893,0.00521
2550.91842,0.00547
2548.85790,0.00546
2546.79739,0.00552
2544.73687,0.00554
2542.67636,0.00531
2540.61584,0.00529
2538.55532,0.00552
2536.49481,0.00555
2534.43429,0.00557
2532.37378,0.00581
2530.31326,0.00587
2528.25275,0.00542
2526.19223,0.00489
2524.13171,0.00480
2522.07120,0.00494
2520.01068,0.00484
2517.95017,0.00488
2515.88965,0.00553
2513.82914,0.00606
2511.76862,0.00579
2509.70810,0.00530
2507.64759,0.00546
2505.58707,0.00625
2503.52656,0.00665
2501.46604,0.00622
2499.40553,0.00575
2497.34501,0.00579
2495.28449,0.00619
2493.22398,0.00636
2491.16346,0.00596
2489.10295,0.00581
2487.04243,0.00633
2484.98192,0.00677
2482.92140,0.00695
2480.86088,0.00683
2478.80037,0.00624
2476.73985,0.00576
2474.67934,0.00572
2472.61882,0.00571
2470.55831,0.00582
2468.49779,0.00623
2466.43728,0.00663
2464.37676,0.00689
2462.31624,0.00716
2460.25573,0.00727
2458.19521,0.00697
2456.13470,0.00664
2454.07418,0.00692
2452.01367,0.00762
2449.95315,0.00781
2447.89263,0.00730
2445.83212,0.00663
2443.77160,0.00616
2441.71109,0.00626
2439.65057,0.00673
2437.59006,0.00677
2435.52954,0.00658
2433.46902,0.00660
2431.40851,0.00660
2429.34799,0.00657
2427.28748,0.00673
2425.22696,0.00715
2423.16645,0.00765
2421.10593,0.00786
2419.04541,0.00757
2416.98490,0.00716
2414.92438,0.00718
2412.86387,0.00743
2410.80335,0.00765
2408.74284,0.00793
2406.68232,0.00802
2404.62180,0.00794
2402.56129,0.00811
2400.50077,0.00866
2398.44026,0.00903
2396.37974,0.00885
2394.31923,0.00858
2392.25871,0.00865
2390.19819,0.00874
2388.13768,0.00863
2386.07716,0.00839
2384.01665,0.00819
2381.95613,0.00826
2379.89562,0.00876
2377.83510,0.00921
2375.77459,0.00933
2373.71407,0.00932
2371.65355,0.00903
2369.59304,0.00858
2367.53252,0.00818
2365.47201,0.00815
2363.41149,0.00921
2361.35098,0.01035
2359.29046,0.01069
2357.22994,0.01072
2355.16943,0.01026
2353.10891,0.00948
2351.04840,0.00903
2348.98788,0.00906
2346.92737,0.00955
2344.86685,0.01031
2342.80633,0.01100
2340.74582,0.01147
2338.68530,0.01131
2336.62479,0.01061
2334.56427,0.01043
2332.50376,0.01089
2330.44324,0.01100
2328.38272,0.01061
2326.32221,0.01063
2324.26169,0.01101
2322.20118,0.01107
2320.14066,0.01118
2318.08015,0.01132
2316.01963,0.01092
2313.95911,0.01036
2311.89860,0.01048
2309.83808,0.01111
2307.77757,0.01124
2305.71705,0.01118
2303.65654,0.01153
2301.59602,0.01175
2299.53550,0.01181
2297.47499,0.01192
2295.41447,0.01149
2293.35396,0.01086
2291.29344,0.01114
2289.23293,0.01214
2287.17241,0.01297
2285.11189,0.01336
2283.05138,0.01334
2280.99086,0.01329
2278.93035,0.01350
2276.86983,0.01308
2274.80932,0.01160
2272.74880,0.01072
2270.68829,0.01129
2268.62777,0.01208
2266.56725,0.01261
2264.50674,0.01321
2262.44622,0.01391
2260.38571,0.01446
2258.32519,0.01446
2256.26468,0.01421
2254.20416,0.01389
2252.14364,0.01342
2250.08313,0.01335
2248.02261,0.01354
2245.96210,0.01396
2243.90158,0.01477
2241.84107,0.01474
2239.78055,0.01403
2237.72003,0.01411
2235.65952,0.01465
2233.59900,0.01412
2231.53849,0.01286
2229.47797,0.01262
2227.41746,0.01263
2225.35694,0.01240
2223.29642,0.01315
2221.23591,0.01406
2219.17539,0.01404
2217.11488,0.01375
2215.05436,0.01346
2212.99385,0.01299
2210.93333,0.01314
2208.87281,0.01397
2206.81230,0.01490
2204.75178,0.01613
2202.69127,0.01755
2200.63075,0.01833
2198.57024,0.01759
2196.50972,0.01580
2194.44920,0.01493
2192.38869,0.01624
2190.32817,0.01852
2188.26766,0.01946
2186.20714,0.01907
2184.14663,0.01835
2182.08611,0.01747
2180.02559,0.01757
2177.96508,0.01729
2175.90456,0.01560
2173.84405,0.01539
2171.78353,0.01634
2169.72302,0.01718
2167.66250,0.01758
2165.60199,0.01661
2163.54147,0.01548
2161.48095,0.01462
2159.42044,0.01409
2157.35992,0.01532
2155.29941,0.01697
2153.23889,0.01743
2151.17838,0.01739
2149.11786,0.01758
2147.05734,0.01748
2144.99683,0.01720
2142.93631,0.01776
2140.87580,0.01852
2138.81528,0.01902
2136.75477,0.01990
2134.69425,0.02039
2132.63373,0.02024
2130.57322,0.02032
2128.51270,0.02056
2126.45219,0.02039
2124.39167,0.01950
2122.33116,0.01854
2120.27064,0.01841
2118.21012,0.01867
2116.14961,0.01869
2114.08909,0.01886
2112.02858,0.01934
2109.96806,0.01931
2107.90755,0.01901
2105.84703,0.01911
2103.78651,0.01910
2101.72600,0.01900
2099.66548,0.01899
2097.60497,0.01869
2095.54445,0.01822
2093.48394,0.01824
2091.42342,0.01876
2089.36290,0.01895
2087.30239,0.01889
2085.24187,0.01912
2083.18136,0.01942
2081.12084,0.01953
2079.06033,0.01939
2076.99981,0.01884
2074.93930,0.01809
2072.87878,0.01757
2070.81826,0.01778
2068.75775,0.01830
2066.69723,0.01809
2064.63672,0.01742
2062.57620,0.01737
2060.51569,0.01799
2058.45517,0.01795
2056.39465,0.01677
2054.33414,0.01585
2052.27362,0.01643
2050.21311,0.01812
2048.15259,0.01894
2046.09208,0.01824
2044.03156,0.01646
2041.97104,0.01488
2039.91053,0.01554
2037.85001,0.01612
2035.78950,0.01549
2033.72898,0.01580
2031.66847,0.01547
2029.60795,0.01350
2027.54743,0.01246
2025.48692,0.01336
2023.42640,0.01459
2021.36589,0.01360
2019.30537,0.01050
2017.24486,0.00892
2015.18434,0.01053
2013.12382,0.01381
2011.06331,0.01568
2009.00279,0.01509
2006.94228,0.01424
2004.88176,0.01404
2002.82125,0.01342
2000.76073,0.01221
1998.70021,0.01208
1996.63970,0.01303
1994.57918,0.01325
1992.51867,0.01250
1990.45815,0.01230
1988.39764,0.01335
1986.33712,0.01368
1984.27660,0.01261
1982.21609,0.01178
1980.15557,0.01110
1978.09506,0.00995
1976.03454,0.01025
1973.97403,0.01210
1971.91351,0.01222
1969.85300,0.01047
1967.79248,0.00951
1965.73196,0.00951
1963.67145,0.00922
1961.61093,0.00982
1959.55042,0.01197
1957.48990,0.01301
1955.42939,0.01232
1953.36887,0.01207
1951.30835,0.01250
1949.24784,0.01244
1947.18732,0.01196
1945.12681,0.01176
1943.06629,0.01223
1941.00578,0.01333
1938.94526,0.01344
1936.88474,0.01209
1934.82423,0.01098
1932.76371,0.01110
1930.70320,0.01199
1928.64268,0.01241
1926.58217,0.01175
1924.52165,0.01109
1922.46113,0.01117
1920.40062,0.01136
1918.34010,0.01139
1916.27959,0.01140
1914.21907,0.01125
1912.15856,0.01108
1910.09804,0.01133
1908.03752,0.01170
1905.97701,0.01156
1903.91649,0.01146
1901.85598,0.01179
1899.79546,0.01179
1897.73495,0.01153
1895.67443,0.01165
1893.61391,0.01183
1891.55340,0.01173
1889.49288,0.01148
1887.43237,0.01118
1885.37185,0.01094
1883.31134,0.01096
1881.25082,0.01100
1879.19030,0.01065
1877.12979,0.01005
1875.06927,0.00975
1873.00876,0.01011
1870.94824,0.01040
1868.88773,0.01048
1866.82721,0.01104
1864.76670,0.01150
1862.70618,0.01149
1860.64566,0.01160
1858.58515,0.01207
1856.52463,0.01235
1854.46412,0.01194
1852.40360,0.01132
1850.34309,0.01149
1848.28257,0.01227
1846.22205,0.01251
1844.16154,0.01204
1842.10102,0.01172
1840.04051,0.01166
1837.97999,0.01163
1835.91948,0.01165
1833.85896,0.01184
1831.79844,0.01213
1829.73793,0.01226
1827.67741,0.01212
1825.61690,0.01192
1823.55638,0.01202
1821.49587,0.01242
1819.43535,0.01280
1817.37483,0.01296
1815.31432,0.01294
1813.25380,0.01300
1811.19329,0.01313
1809.13277,0.01313
1807.07226,0.01328
1805.01174,0.01377
1802.95122,0.01431
1800.89071,0.01447
1798.83019,0.01419
1796.76968,0.01410
1794.70916,0.01445
1792.64865,0.01516
1790.58813,0.01585
1788.52761,0.01602
1786.46710,0.01593
1784.40658,0.01594
1782.34607,0.01616
1780.28555,0.01652
1778.22504,0.01677
1776.16452,0.01687
1774.10400,0.01708
1772.04349,0.01740
1769.98297,0.01780
1767.92246,0.01853
1765.86194,0.01945
1763.80143,0.01999
1761.74091,0.02010
1759.68040,0.02025
1757.61988,0.02059
1755.55936,0.02115
1753.49885,0.02166
1751.43833,0.02214
1749.37782,0.02302
1747.31730,0.02413
1745.25679,0.02495
1743.19627,0.02554
1741.13575,0.02623
1739.07524,0.02717
1737.01472,0.02808
1734.95421,0.02872
1732.89369,0.02964
1730.83318,0.03094
1728.77266,0.03230
1726.71214,0.03365
1724.65163,0.03523
1722.59111,0.03689
1720.53060,0.03800
1718.47008,0.03912
1716.40957,0.04124
1714.34905,0.04352
1712.28853,0.04534
1710.22802,0.04727
1708.16750,0.04944
1706.10699,0.05189
1704.04647,0.05442
1701.98596,0.05676
1699.92544,0.05955
1697.86492,0.06265
1695.80441,0.06615
1693.74389,0.06985
1691.68338,0.07295
1689.62286,0.07628
1687.56235,0.07970
1685.50183,0.08307
1683.44131,0.08778
1681.38080,0.09265
1679.32028,0.09666
1677.25977,0.10025
1675.19925,0.10400
1673.13874,0.10795
1671.07822,0.11193
1669.01771,0.11672
1666.95719,0.12143
1664.89667,0.12523
1662.83616,0.12917
1660.77564,0.13348
1658.71513,0.13738
1656.65461,0.14064
1654.59410,0.14402
1652.53358,0.14869
1650.47306,0.15221
1648.41255,0.15461
1646.35203,0.15721
1644.29152,0.15927
1642.23100,0.16069
1640.17049,0.16196
1638.10997,0.16267
1636.04945,0.16230
1633.98894,0.16134
1631.92842,0.16036
1629.86791,0.15868
1627.80739,0.15590
1625.74688,0.15253
1623.68636,0.14862
1621.62584,0.14433
1619.56533,0.14028
1617.50481,0.13535
1615.44430,0.12960
1613.38378,0.12505
1611.32327,0.12075
1609.26275,0.11589
1607.20223,0.11099
1605.14172,0.10647
1603.08120,0.10222
1601.02069,0.09843
1598.96017,0.09515
1596.89966,0.09186
1594.83914,0.08844
1592.77862,0.08537
1590.71811,0.08259
1588.65759,0.07979
1586.59708,0.07725
1584.53656,0.07512
1582.47605,0.07315
1580.41553,0.07151
1578.35501,0.07014
1576.29450,0.06825
1574.23398,0.06629
1572.17347,0.06486
1570.11295,0.06333
1568.05244,0.06199
1565.99192,0.06109
1563.93141,0.06011
1561.87089,0.05904
1559.81037,0.05768
1557.74986,0.05624
1555.68934,0.05569
1553.62883,0.05515
1551.56831,0.05435
1549.50780,0.05368
1547.44728,0.05322
1545.38676,0.05253
1543.32625,0.05155
1541.26573,0.05050
1539.20522,0.04981
1537.14470,0.04961
1535.08419,0.04928
1533.02367,0.04886
1530.96315,0.04864
1528.90264,0.04837
1526.84212,0.04794
1524.78161,0.04745
1522.72109,0.04693
1520.66058,0.04671
1518.60006,0.04656
1516.53954,0.04616
1514.47903,0.04592
1512.41851,0.04585
1510.35800,0.04558
1508.29748,0.04507
1506.23697,0.04488
1504.17645,0.04526
1502.11593,0.04550
1500.05542,0.04535
1497.99490,0.04497
1495.93439,0.04492
1493.87387,0.04520
1491.81336,0.04532
1489.75284,0.04551
1487.69232,0.04604
1485.63181,0.04651
1483.57129,0.04701
1481.51078,0.04784
1479.45026,0.04891
1477.38975,0.05019
1475.32923,0.05159
1473.26871,0.05261
1471.20820,0.05308
1469.14768,0.05324
1467.08717,0.05315
1465.02665,0.05309
1462.96614,0.05340
1460.90562,0.05374
1458.84511,0.05383
1456.78459,0.05355
1454.72407,0.05293
1452.66356,0.05221
1450.60304,0.05138
1448.54253,0.05054
1446.48201,0.04990
1444.42150,0.04930
1442.36098,0.04844
1440.30046,0.04749
1438.23995,0.04666
1436.17943,0.04595
1434.11892,0.04560
1432.05840,0.04543
1429.99789,0.04540
1427.93737,0.04566
1425.87685,0.04584
1423.81634,0.04562
1421.75582,0.04525
1419.69531,0.04492
1417.63479,0.04474
1415.57428,0.04459
1413.51376,0.04439
1411.45324,0.04443
1409.39273,0.04472
1407.33221,0.04495
1405.27170,0.04497
1403.21118,0.04475
1401.15067,0.04458
1399.09015,0.04451
1397.02963,0.04443
1394.96912,0.04443
1392.90860,0.04452
1390.84809,0.04459
1388.78757,0.04454
1386.72706,0.04444
1384.66654,0.04438
1382.60602,0.04458
1380.54551,0.04508
1378.48499,0.04539
1376.42448,0.04535
1374.36396,0.04539
1372.30345,0.04587
1370.24293,0.04673
1368.18241,0.04774
1366.12190,0.04866
1364.06138,0.04946
1362.00087,0.05049
1359.94035,0.05195
1357.87984,0.05383
1355.81932,0.05596
1353.75881,0.05802
1351.69829,0.05973
1349.63777,0.06028
1347.57726,0.05847
1345.51674,0.05464
1343.45623,0.05083
1341.39571,0.04844
1339.33520,0.04728
1337.27468,0.04695
1335.21416,0.04700
1333.15365,0.04688
1331.09313,0.04652
1329.03262,0.04601
1326.97210,0.04553
1324.91159,0.04536
1322.85107,0.04541
1320.79055,0.04544
1318.73004,0.04563
1316.66952,0.04614
1314.60901,0.04689
1312.54849,0.04785
1310.48798,0.04878
1308.42746,0.04956
1306.36694,0.05043
1304.30643,0.05138
1302.24591,0.05197
1300.18540,0.05211
1298.12488,0.05204
1296.06437,0.05191
1294.00385,0.05185
1291.94333,0.05192
1289.88282,0.05197
1287.82230,0.05175
1285.76179,0.05130
1283.70127,0.05086
1281.64076,0.05057
1279.58024,0.05014
1277.51972,0.04942
1275.45921,0.04878
1273.39869,0.04844
1271.33818,0.04833
1269.27766,0.04849
1267.21715,0.04884
1265.15663,0.04931
1263.09612,0.05007
1261.03560,0.05102
1258.97508,0.05200
1256.91457,0.05299
1254.85405,0.05384
1252.79354,0.05431
1250.73302,0.05437
1248.67251,0.05396
1246.61199,0.05302
1244.55147,0.05191
1242.49096,0.05097
1240.43044,0.05012
1238.36993,0.04939
1236.30941,0.04883
1234.24890,0.04823
1232.18838,0.04747
1230.12786,0.04667
1228.06735,0.04603
1226.00683,0.04582
1223.94632,0.04584
1221.88580,0.04551
1219.82529,0.04483
1217.76477,0.04429
1215.70425,0.04422
1213.64374,0.04431
1211.58322,0.04425
1209.52271,0.04408
1207.46219,0.04386
1205.40168,0.04372
1203.34116,0.04375
1201.28064,0.04380
1199.22013,0.04368
1197.15961,0.04352
1195.09910,0.04350
1193.03858,0.04355
1190.97807,0.04369
1188.91755,0.04398
1186.85703,0.04409
1184.79652,0.04402
1182.73600,0.04400
1180.67549,0.04395
1178.61497,0.04385
1176.55446,0.04401
1174.49394,0.04442
1172.43342,0.04488
1170.37291,0.04534
1168.31239,0.04567
1166.25188,0.04593
1164.19136,0.04646
1162.13085,0.04734
1160.07033,0.04849
1158.00982,0.04995
1155.94930,0.05177
1153.88878,0.05380
1151.82827,0.05608
1149.76775,0.05882
1147.70724,0.06171
1145.64672,0.06435
1143.58621,0.06692
1141.52569,0.06950
1139.46517,0.07175
1137.40466,0.07371
1135.34414,0.07544
1133.28363,0.07683
1131.22311,0.07811
1129.16260,0.07956
1127.10208,0.08123
1125.04156,0.08305
1122.98105,0.08493
1120.92053,0.08717
1118.86002,0.08975
1116.79950,0.09243
1114.73899,0.09500
1112.67847,0.09732
1110.61795,0.09964
1108.55744,0.10197
1106.49692,0.10435
1104.43641,0.10680
1102.37589,0.10897
1100.31538,0.11120
1098.25486,0.11382
1096.19434,0.11605
1094.13383,0.11747
1092.07331,0.11877
1090.01280,0.12001
1087.95228,0.12075
1085.89177,0.12126
1083.83125,0.12154
1081.77073,0.12126
1079.71022,0.12033
1077.64970,0.11897
1075.58919,0.11748
1073.52867,0.11597
1071.46816,0.11424
1069.40764,0.11187
1067.34712,0.10883
1065.28661,0.10535
1063.22609,0.10140
1061.16558,0.09723
1059.10506,0.09324
1057.04455,0.08924
1054.98403,0.08498
1052.92352,0.08072
1050.86300,0.07659
1048.80248,0.07291
1046.74197,0.07042
1044.68145,0.06921
1042.62094,0.06855
1040.56042,0.06804
1038.49991,0.06781
1036.43939,0.06770
1034.37887,0.06749
1032.31836,0.06703
1030.25784,0.06610
1028.19733,0.06493
1026.13681,0.06387
1024.07630,0.06298
1022.01578,0.06218
1019.95526,0.06117
1017.89475,0.05986
1015.83423,0.05878
1013.77372,0.05840
1011.71320,0.05843
1009.65269,0.05832
1007.59217,0.05807
1005.53165,0.05789
1003.47114,0.05797
1001.41062,0.05814
999.35011,0.05806
997.28959,0.05804
995.22908,0.05833
993.16856,0.05855
991.10804,0.05879
989.04753,0.05937
986.98701,0.05984
984.92650,0.06003
982.86598,0.06009
980.80547,0.06011
978.74495,0.06013
976.68443,0.06019
974.62392,0.06036
972.56340,0.06087
970.50289,0.06181
968.44237,0.06303
966.38186,0.06455
964.32134,0.06639
962.26082,0.06849
960.20031,0.07098
958.13979,0.07395
956.07928,0.07716
954.01876,0.08047
951.95825,0.08367
949.89773,0.08614
947.83722,0.08758
945.77670,0.08821
943.71618,0.08811
941.65567,0.08748
939.59515,0.08700
937.53464,0.08701
935.47412,0.08705
933.41361,0.08671
931.35309,0.08632
929.29257,0.08620
927.23206,0.08639
925.17154,0.08694
923.11103,0.08760
921.05051,0.08816
918.99000,0.08879
916.92948,0.08949
914.86896,0.09000
912.80845,0.09032
910.74793,0.09073
908.68742,0.09167
906.62690,0.09306
904.56639,0.09434
902.50587,0.09553
900.44535,0.09670
898.38484,0.09790
896.32432,0.09954
894.26381,0.10166
892.20329,0.10397
890.14278,0.10607
888.08226,0.10772
886.02174,0.10953
883.96123,0.11154
881.90071,0.11309
879.84020,0.11444
877.77968,0.11607
875.71917,0.11809
873.65865,0.12021
871.59813,0.12203
869.53762,0.12375
867.47710,0.12555
865.41659,0.12767
863.35607,0.13009
861.29556,0.13225
859.23504,0.13453
857.17453,0.13717
855.11401,0.13954
853.05349,0.14184
850.99298,0.14485
848.93246,0.14838
846.87195,0.15135
844.81143,0.15368
842.75092,0.15648
840.69040,0.15959
838.62988,0.16226
836.56937,0.16456
834.50885,0.16677
832.44834,0.16913
830.38782,0.17166
828.32731,0.17412
826.26679,0.17664
824.20627,0.17895
822.14576,0.18068
820.08524,0.18267
818.02473,0.18539
815.96421,0.18825
813.90370,0.19092
811.84318,0.19342
809.78266,0.19551
807.72215,0.19742
805.66163,0.19987
803.60112,0.20308
801.54060,0.20630
799.48009,0.20870
797.41957,0.21079
795.35905,0.21347
793.29854,0.21658
791.23802,0.21971
789.17751,0.22271
787.11699,0.22524
785.05648,0.22746
782.99596,0.22978
780.93544,0.23241
778.87493,0.23538
776.81441,0.23825
774.75390,0.24082
772.69338,0.24368
770.63287,0.24695
768.57235,0.25003
766.51183,0.25273
764.45132,0.25504
762.39080,0.25742
760.33029,0.26084
758.26977,0.26475
756.20926,0.26773
754.14874,0.26987
752.08823,0.27236
750.02771,0.27557
747.96719,0.27869
745.90668,0.28168
743.84616,0.28469
741.78565,0.28712
739.72513,0.28944
737.66462,0.29213
735.60410,0.29490
733.54358,0.29771
731.48307,0.30049
729.42255,0.30309
727.36204,0.30535
725.30152,0.30759
723.24101,0.31048
721.18049,0.31371
719.11997,0.31648
717.05946,0.31926
714.99894,0.32252
712.93843,0.32579
710.87791,0.32874
708.81740,0.33142
706.75688,0.33376
704.69636,0.33630
702.63585,0.33944
700.57533,0.34234
698.51482,0.34492
696.45430,0.34744
694.39379,0.34956
692.33327,0.35204
690.27275,0.35544
688.21224,0.35883
686.15172,0.36208
684.09121,0.36552
682.03069,0.36926
679.97018,0.37263
677.90966,0.37496
675.84914,0.37632
673.78863,0.37740
671.72811,0.37953
669.66760,0.38229
667.60708,0.38448
665.54657,0.38634
663.48605,0.38868
661.42553,0.39212
659.36502,0.39593
657.30450,0.39896
655.24399,0.40116
653.18347,0.40237
651.12296,0.40350
649.06244,0.40571
647.00193,0.40802
644.94141,0.41053
642.88089,0.41391
640.82038,0.41616
638.75986,0.41685
636.69935,0.41886
634.63883,0.42276
632.57832,0.42633
630.51780,0.42864
628.45728,0.43057
626.39677,0.43216
624.33625,0.43303
622.27574,0.43541
620.21522,0.43931
618.15471,0.44158
616.09419,0.44313
614.03367,0.44571
611.97316,0.44730
609.91264,0.44833
607.85213,0.45052
605.79161,0.45207
603.73110,0.45272
601.67058,0.45447
599.61006,0.45664
597.54955,0.45936
595.48903,0.46356
593.42852,0.46634
591.36800,0.46752
589.30749,0.46967
587.24697,0.47171
585.18645,0.47275
583.12594,0.47380
581.06542,0.47506
579.00491,0.47681
576.94439,0.47839
574.88388,0.47890
572.82336,0.48052
570.76284,0.48329
568.70233,0.48570
566.64181,0.48912
564.58130,0.49210
562.52078,0.49221
560.46027,0.49285
558.39975,0.49545
556.33924,0.49708
554.27872,0.49794
552.21820,0.49827
550.15769,0.49780
548.09717,0.49928
546.03666,0.50219
543.97614,0.50349
541.91563,0.50457
539.85511,0.50678
537.79459,0.50909
535.73408,0.51130
533.67356,0.51270
531.61305,0.51283
529.55253,0.51302
527.49202,0.51349
525.43150,0.51361
523.37098,0.51498
521.31047,0.51752
519.24995,0.51981
517.18944,0.52182
515.12892,0.52271
513.06841,0.52342
511.00789,0.52473
508.94737,0.52538
506.88686,0.52610
504.82634,0.52802
502.76583,0.53070
500.70531,0.53307
498.64480,0.53373
496.58428,0.53230
494.52376,0.53043
492.46325,0.52881
490.40273,0.52778
488.34222,0.52863
486.28170,0.52946
484.22119,0.52989
482.16067,0.53228
480.10015,0.53740
478.03964,0.54357
475.97912,0.54663
473.91861,0.54587
471.85809,0.54559
469.79758,0.54544
467.73706,0.54213
465.67654,0.53854
463.61603,0.53677
461.55551,0.53601
459.49500,0.53956
457.43448,0.54737
455.37397,0.54964
453.31345,0.54502
451.25294,0.54123
449.19242,0.54348
447.13190,0.55152
445.07139,0.55708
443.01087,0.55244
440.95036,0.54401
438.88984,0.54085
436.82933,0.53974
434.76881,0.53685
432.70829,0.53616
430.64778,0.54224
428.58726,0.55309
426.52675,0.56091
424.46623,0.56436
422.40572,0.56544
420.34520,0.56031
418.28468,0.55090
416.22417,0.54811
414.16365,0.55023
412.10314,0.55153
410.04262,0.54991
407.98211,0.54210
405.92159,0.53322
403.86107,0.53971
401.80056,0.55748
399.74004,0.57319
