3997.40043,0.00344
3995.33991,0.00387
3993.27940,0.00364
3991.21888,0.00294
3989.15837,0.00249
3987.09785,0.00255
3985.03734,0.00296
3982.97682,0.00339
3980.91630,0.00347
3978.85579,0.00288
3976.79527,0.00222
3974.73476,0.00218
3972.67424,0.00234
3970.61373,0.00231
3968.55321,0.00214
3966.49269,0.00208
3964.43218,0.00224
3962.37166,0.00231
3960.31115,0.00232
3958.25063,0.00252
3956.19012,0.00288
3954.12960,0.00314
3952.06908,0.00304
3950.00857,0.00272
3947.94805,0.00232
3945.88754,0.00203
3943.82702,0.00201
3941.76651,0.00236
3939.70599,0.00303
3937.64547,0.00335
3935.58496,0.00271
3933.52444,0.00199
3931.46393,0.00204
3929.40341,0.00222
3927.34290,0.00191
3925.28238,0.00165
3923.22186,0.00187
3921.16135,0.00205
3919.10083,0.00206
3917.04032,0.00226
3914.97980,0.00249
3912.91929,0.00258
3910.85877,0.00255
3908.79825,0.00220
3906.73774,0.00178
3904.67722,0.00178
3902.61671,0.00197
3900.55619,0.00183
3898.49568,0.00183
3896.43516,0.00232
3894.37465,0.00262
3892.31413,0.00243
3890.25361,0.00212
3888.19310,0.00171
3886.13258,0.00150
3884.07207,0.00195
3882.01155,0.00212
3879.95104,0.00186
3877.89052,0.00202
3875.83000,0.00213
3873.76949,0.00193
3871.70897,0.00187
3869.64846,0.00193
3867.58794,0.00194
3865.52743,0.00189
3863.46691,0.00218
3861.40639,0.00276
3859.34588,0.00283
3857.28536,0.00221
3855.22485,0.00142
3853.16433,0.00129
3851.10382,0.00170
3849.04330,0.00206
3846.98278,0.00240
3844.92227,0.00254
3842.86175,0.00248
3840.80124,0.00223
3838.74072,0.00165
3836.68021,0.00133
3834.61969,0.00195
3832.55917,0.00263
3830.49866,0.00267
3828.43814,0.00253
3826.37763,0.00263
3824.31711,0.00288
3822.25660,0.00289
3820.19608,0.00261
3818.13556,0.00233
3816.07505,0.00243
3814.01453,0.00282
3811.95402,0.00286
3809.89350,0.00244
3807.83299,0.00178
3805.77247,0.00143
3803.71195,0.00168
3801.65144,0.00229
3799.59092,0.00289
3797.53041,0.00300
3795.46989,0.00285
3793.40938,0.00284
3791.34886,0.00299
3789.28835,0.00304
3787.22783,0.00292
3785.16731,0.00304
3783.10680,0.00345
3781.04628,0.00360
3778.98577,0.00338
3776.92525,0.00341
3774.86474,0.00393
3772.80422,0.00437
3770.74370,0.00415
3768.68319,0.00379
3766.62267,0.00376
3764.56216,0.00358
3762.50164,0.00330
3760.44113,0.00343
3758.38061,0.00398
3756.32009,0.00435
3754.25958,0.00402
3752.19906,0.00343
3750.13855,0.00318
3748.07803,0.00297
3746.01752,0.00312
3743.95700,0.00386
3741.89648,0.00440
3739.83597,0.00485
3737.77545,0.00527
3735.71494,0.00513
3733.65442,0.00477
3731.59391,0.00491
3729.53339,0.00500
3727.47287,0.00467
3725.41236,0.00418
3723.35184,0.00412
3721.29133,0.00477
3719.23081,0.00581
3717.17030,0.00670
3715.10978,0.00701
3713.04926,0.00671
3710.98875,0.00661
3708.92823,0.00724
3706.86772,0.00765
3704.80720,0.00763
3702.74669,0.00771
3700.68617,0.00855
3698.62565,0.00978
3696.56514,0.01023
3694.50462,0.01004
3692.44411,0.01033
3690.38359,0.01164
3688.32308,0.01360
3686.26256,0.01521
3684.20205,0.01613
3682.14153,0.01669
3680.08101,0.01714
3678.02050,0.01766
3675.95998,0.01830
3673.89947,0.01927
3671.83895,0.02078
3669.77844,0.02308
3667.71792,0.02545
3665.65740,0.02717
3663.59689,0.02880
3661.53637,0.03015
3659.47586,0.03107
3657.41534,0.03222
3655.35483,0.03373
3653.29431,0.03538
3651.23379,0.03717
3649.17328,0.03904
3647.11276,0.04133
3645.05225,0.04364
3642.99173,0.04530
3640.93122,0.04640
3638.87070,0.04738
3636.81018,0.04891
3634.74967,0.05115
3632.68915,0.05338
3630.62864,0.05521
3628.56812,0.05672
3626.50761,0.05785
3624.44709,0.05913
3622.38657,0.06085
3620.32606,0.06283
3618.26554,0.06500
3616.20503,0.06703
3614.14451,0.06893
3612.08400,0.07095
3610.02348,0.07263
3607.96296,0.07377
3605.90245,0.07524
3603.84193,0.07728
3601.78142,0.07945
3599.72090,0.08136
3597.66039,0.08308
3595.59987,0.08497
3593.53936,0.08717
3591.47884,0.08919
3589.41832,0.09070
3587.35781,0.09223
3585.29729,0.09394
3583.23678,0.09582
3581.17626,0.09815
3579.11575,0.10074
3577.05523,0.10316
3574.99471,0.10544
3572.93420,0.10778
3570.87368,0.11007
3568.81317,0.11236
3566.75265,0.11459
3564.69214,0.11650
3562.63162,0.11830
3560.57110,0.12013
3558.51059,0.12248
3556.45007,0.12544
3554.38956,0.12813
3552.32904,0.13025
3550.26853,0.13217
3548.20801,0.13421
3546.14749,0.13647
3544.08698,0.13898
3542.02646,0.14159
3539.96595,0.14382
3537.90543,0.14578
3535.84492,0.14783
3533.78440,0.15023
3531.72388,0.15309
3529.66337,0.15587
3527.60285,0.15821
3525.54234,0.16028
3523.48182,0.16240
3521.42131,0.16469
3519.36079,0.16704
3517.30027,0.16965
3515.23976,0.17227
3513.17924,0.17450
3511.11873,0.17641
3509.05821,0.17847
3506.99770,0.18083
3504.93718,0.18286
3502.87666,0.18450
3500.81615,0.18642
3498.75563,0.18878
3496.69512,0.19130
3494.63460,0.19382
3492.57409,0.19603
3490.51357,0.19785
3488.45306,0.19966
3486.39254,0.20182
3484.33202,0.20463
3482.27151,0.20779
3480.21099,0.21045
3478.15048,0.21271
3476.08996,0.21520
3474.02945,0.21761
3471.96893,0.21965
3469.90841,0.22185
3467.84790,0.22452
3465.78738,0.22718
3463.72687,0.22945
3461.66635,0.23199
3459.60584,0.23473
3457.54532,0.23695
3455.48480,0.23906
3453.42429,0.24113
3451.36377,0.24308
3449.30326,0.24500
3447.24274,0.24686
3445.18223,0.24915
3443.12171,0.25170
3441.06119,0.25390
3439.00068,0.25603
3436.94016,0.25842
3434.87965,0.26093
3432.81913,0.26359
3430.75862,0.26597
3428.69810,0.26772
3426.63758,0.26935
3424.57707,0.27136
3422.51655,0.27370
3420.45604,0.27604
3418.39552,0.27803
3416.33501,0.27950
3414.27449,0.28080
3412.21397,0.28228
3410.15346,0.28442
3408.09294,0.28728
3406.03243,0.28971
3403.97191,0.29082
3401.91140,0.29157
3399.85088,0.29327
3397.79036,0.29520
3395.72985,0.29605
3393.66933,0.29647
3391.60882,0.29795
3389.54830,0.29999
3387.48779,0.30158
3385.42727,0.30291
3383.36676,0.30372
3381.30624,0.30406
3379.24572,0.30485
3377.18521,0.30609
3375.12469,0.30706
3373.06418,0.30734
3371.00366,0.30705
3368.94315,0.30712
3366.88263,0.30799
3364.82211,0.30860
3362.76160,0.30836
3360.70108,0.30795
3358.64057,0.30774
3356.58005,0.30780
3354.51954,0.30810
3352.45902,0.30806
3350.39850,0.30772
3348.33799,0.30780
3346.27747,0.30797
3344.21696,0.30732
3342.15644,0.30612
3340.09593,0.30565
3338.03541,0.30606
3335.97489,0.30604
3333.91438,0.30536
3331.85386,0.30494
3329.79335,0.30462
3327.73283,0.30401
3325.67232,0.30329
3323.61180,0.30295
3321.55128,0.30273
3319.49077,0.30217
3317.43025,0.30204
3315.36974,0.30233
3313.30922,0.30200
3311.24871,0.30084
3309.18819,0.29968
3307.12767,0.29899
3305.06716,0.29847
3303.00664,0.29801
3300.94613,0.29749
3298.88561,0.29723
3296.82510,0.29747
3294.76458,0.29745
3292.70406,0.29710
3290.64355,0.29666
3288.58303,0.29579
3286.52252,0.29525
3284.46200,0.29599
3282.40149,0.29729
3280.34097,0.29772
3278.28046,0.29697
3276.21994,0.29607
3274.15942,0.29573
3272.09891,0.29537
3270.03839,0.29456
3267.97788,0.29361
3265.91736,0.29279
3263.85685,0.29201
3261.79633,0.29145
3259.73581,0.29163
3257.67530,0.29170
3255.61478,0.29084
3253.55427,0.28983
3251.49375,0.28912
3249.43324,0.28837
3247.37272,0.28724
3245.31220,0.28628
3243.25169,0.28603
3241.19117,0.28566
3239.13066,0.28446
3237.07014,0.28266
3235.00963,0.28056
3232.94911,0.27887
3230.88859,0.27803
3228.82808,0.27738
3226.76756,0.27614
3224.70705,0.27444
3222.64653,0.27286
3220.58602,0.27131
3218.52550,0.26958
3216.46498,0.26768
3214.40447,0.26565
3212.34395,0.26386
3210.28344,0.26196
3208.22292,0.25958
3206.16241,0.25730
3204.10189,0.25523
3202.04137,0.25284
3199.98086,0.25011
3197.92034,0.24751
3195.85983,0.24522
3193.79931,0.24293
3191.73880,0.24030
3189.67828,0.23749
3187.61777,0.23471
3185.55725,0.23180
3183.49673,0.22912
3181.43622,0.22687
3179.37570,0.22462
3177.31519,0.22199
3175.25467,0.21920
3173.19416,0.21635
3171.13364,0.21320
3169.07312,0.21007
3167.01261,0.20705
3164.95209,0.20404
3162.89158,0.20141
3160.83106,0.19872
3158.77055,0.19546
3156.71003,0.19246
3154.64951,0.19006
3152.58900,0.18743
3150.52848,0.18453
3148.46797,0.18169
3146.40745,0.17899
3144.34694,0.17624
3142.28642,0.17304
3140.22590,0.16958
3138.16539,0.16657
3136.10487,0.16408
3134.04436,0.16167
3131.98384,0.15936
3129.92333,0.15723
3127.86281,0.15466
3125.80229,0.15176
3123.74178,0.14897
3121.68126,0.14602
3119.62075,0.14316
3117.56023,0.14068
3115.49972,0.13844
3113.43920,0.13620
3111.37868,0.13397
3109.31817,0.13184
3107.25765,0.12945
3105.19714,0.12679
3103.13662,0.12418
3101.07611,0.12158
3099.01559,0.11926
3096.95507,0.11752
3094.89456,0.11563
3092.83404,0.11332
3090.77353,0.11124
3088.71301,0.10919
3086.65250,0.10686
3084.59198,0.10455
3082.53147,0.10250
3080.47095,0.10079
3078.41043,0.09938
3076.34992,0.09777
3074.28940,0.09557
3072.22889,0.09334
3070.16837,0.09155
3068.10786,0.08987
3066.04734,0.08806
3063.98682,0.08631
3061.92631,0.08480
3059.86579,0.08343
3057.80528,0.08199
3055.74476,0.08027
3053.68425,0.07841
3051.62373,0.07680
3049.56321,0.07537
3047.50270,0.07403
3045.44218,0.07260
3043.38167,0.07081
3041.32115,0.06913
3039.26064,0.06798
3037.20012,0.06679
3035.13960,0.06527
3033.07909,0.06387
3031.01857,0.06276
3028.95806,0.06168
3026.89754,0.06055
3024.83703,0.05943
3022.77651,0.05835
3020.71599,0.05747
3018.65548,0.05668
3016.59496,0.05558
3014.53445,0.05435
3012.47393,0.05323
3010.41342,0.05212
3008.35290,0.05109
3006.29238,0.05016
3004.23187,0.04933
3002.17135,0.04859
3000.11084,0.04794
2998.05032,0.04745
2995.98981,0.04678
2993.92929,0.04602
2991.86877,0.04571
2989.80826,0.04557
2987.74774,0.04503
2985.68723,0.04440
2983.62671,0.04420
2981.56620,0.04458
2979.50568,0.04541
2977.44517,0.04629
2975.38465,0.04687
2973.32413,0.04721
2971.26362,0.04757
2969.20310,0.04811
2967.14259,0.04892
2965.08207,0.04981
2963.02156,0.05037
2960.96104,0.05062
2958.90052,0.05094
2956.84001,0.05140
2954.77949,0.05173
2952.71898,0.05195
2950.65846,0.05230
2948.59795,0.05282
2946.53743,0.05348
2944.47691,0.05402
2942.41640,0.05426
2940.35588,0.05446
2938.29537,0.05478
2936.23485,0.05534
2934.17434,0.05613
2932.11382,0.05670
2930.05330,0.05687
2927.99279,0.05710
2925.93227,0.05766
2923.87176,0.05808
2921.81124,0.05798
2919.75073,0.05764
2917.69021,0.05706
2915.62969,0.05609
2913.56918,0.05502
2911.50866,0.05411
2909.44815,0.05334
2907.38763,0.05230
2905.32712,0.05102
2903.26660,0.04996
2901.20608,0.04918
2899.14557,0.04854
2897.08505,0.04802
2895.02454,0.04777
2892.96402,0.04807
2890.90351,0.04876
2888.84299,0.04938
2886.78247,0.04970
2884.72196,0.04994
2882.66144,0.04997
2880.60093,0.04939
2878.54041,0.04829
2876.47990,0.04685
2874.41938,0.04528
2872.35887,0.04374
2870.29835,0.04176
2868.23783,0.03926
2866.17732,0.03708
2864.11680,0.03541
2862.05629,0.03372
2859.99577,0.03202
2857.93526,0.03059
2855.87474,0.02932
2853.81422,0.02811
2851.75371,0.02712
2849.69319,0.02623
2847.63268,0.02518
2845.57216,0.02410
2843.51165,0.02308
2841.45113,0.02211
2839.39061,0.02134
2837.33010,0.02107
2835.26958,0.02103
2833.20907,0.02063
2831.14855,0.02000
2829.08804,0.01953
2827.02752,0.01915
2824.96700,0.01877
2822.90649,0.01850
2820.84597,0.01833
2818.78546,0.01788
2816.72494,0.01712
2814.66443,0.01649
2812.60391,0.01590
2810.54339,0.01527
2808.48288,0.01494
2806.42236,0.01472
2804.36185,0.01437
2802.30133,0.01395
2800.24082,0.01368
2798.18030,0.01355
2796.11978,0.01330
2794.05927,0.01295
2791.99875,0.01272
2789.93824,0.01253
2787.87772,0.01224
2785.81721,0.01195
2783.75669,0.01173
2781.69618,0.01153
2779.63566,0.01139
2777.57514,0.01125
2775.51463,0.01098
2773.45411,0.01063
2771.39360,0.01047
2769.33308,0.01038
2767.27257,0.01006
2765.21205,0.00980
2763.15153,0.00981
2761.09102,0.00976
2759.03050,0.00967
2756.96999,0.00970
2754.90947,0.00965
2752.84896,0.00949
2750.78844,0.00944
2748.72792,0.00934
2746.66741,0.00908
2744.60689,0.00893
2742.54638,0.00896
2740.48586,0.00899
2738.42535,0.00893
2736.36483,0.00876
2734.30431,0.00846
2732.24380,0.00812
2730.18328,0.00812
2728.12277,0.00826
2726.06225,0.00826
2724.00174,0.00827
2721.94122,0.00819
2719.88070,0.00785
2717.82019,0.00744
2715.75967,0.00728
2713.69916,0.00737
2711.63864,0.00759
2709.57813,0.00777
2707.51761,0.00758
2705.45709,0.00713
2703.39658,0.00683
2701.33606,0.00661
2699.27555,0.00642
2697.21503,0.00651
2695.15452,0.00670
2693.09400,0.00659
2691.03348,0.00618
2688.97297,0.00592
2686.91245,0.00594
2684.85194,0.00592
2682.79142,0.00573
2680.73091,0.00556
2678.67039,0.00559
2676.60988,0.00578
2674.54936,0.00585
2672.48884,0.00581
2670.42833,0.00579
2668.36781,0.00567
2666.30730,0.00559
2664.24678,0.00569
2662.18627,0.00564
2660.12575,0.00537
2658.06523,0.00523
2656.00472,0.00521
2653.94420,0.00515
2651.88369,0.00514
2649.82317,0.00516
2647.76266,0.00498
2645.70214,0.00483
2643.64162,0.00493
2641.58111,0.00510
2639.52059,0.00514
2637.46008,0.00501
2635.39956,0.00482
2633.33905,0.00453
2631.27853,0.00440
2629.21801,0.00452
2627.15750,0.00438
2625.09698,0.00429
2623.03647,0.00441
2620.97595,0.00432
2618.91544,0.00434
2616.85492,0.00448
2614.79440,0.00442
2612.73389,0.00436
2610.67337,0.00420
2608.61286,0.00400
2606.55234,0.00420
2604.49183,0.00457
2602.43131,0.00461
2600.37079,0.00439
2598.31028,0.00424
2596.24976,0.00436
2594.18925,0.00462
2592.12873,0.00468
2590.06822,0.00454
2588.00770,0.00438
2585.94718,0.00424
2583.88667,0.00405
2581.82615,0.00393
2579.76564,0.00411
2577.70512,0.00430
2575.64461,0.00433
2573.58409,0.00444
2571.52358,0.00447
2569.46306,0.00430
2567.40254,0.00416
2565.34203,0.00425
2563.28151,0.00425
2561.22100,0.00408
2559.16048,0.00435
2557.09997,0.00497
2555.03945,0.00516
2552.97893,0.00497
2550.91842,0.00471
2548.85790,0.00463
2546.79739,0.00501
2544.73687,0.00526
2542.67636,0.00496
2540.61584,0.00464
2538.55532,0.00452
2536.49481,0.00453
2534.43429,0.00476
2532.37378,0.00507
2530.31326,0.00520
2528.25275,0.00490
2526.19223,0.00425
2524.13171,0.00396
2522.07120,0.00415
2520.01068,0.00433
2517.95017,0.00471
2515.88965,0.00549
2513.82914,0.00591
2511.76862,0.00562
2509.70810,0.00529
2507.64759,0.00534
2505.58707,0.00565
2503.52656,0.00568
2501.46604,0.00511
2499.40553,0.00477
2497.34501,0.00507
2495.28449,0.00557
2493.22398,0.00603
2491.16346,0.00596
2489.10295,0.00561
2487.04243,0.00575
2484.98192,0.00614
2482.92140,0.00631
2480.86088,0.00596
2478.80037,0.00546
2476.73985,0.00543
2474.67934,0.00550
2472.61882,0.00528
2470.55831,0.00525
2468.49779,0.00554
2466.43728,0.00564
2464.37676,0.00549
2462.31624,0.00544
2460.25573,0.00550
2458.19521,0.00566
2456.13470,0.00602
2454.07418,0.00633
2452.01367,0.00631
2449.95315,0.00588
2447.89263,0.00551
2445.83212,0.00543
2443.77160,0.00536
2441.71109,0.00558
2439.65057,0.00629
2437.59006,0.00691
2435.52954,0.00691
2433.46902,0.00670
2431.40851,0.00670
2429.34799,0.00657
2427.28748,0.00645
2425.22696,0.00667
2423.16645,0.00695
2421.10593,0.00712
2419.04541,0.00683
2416.98490,0.00611
2414.92438,0.00574
2412.86387,0.00604
2410.80335,0.00672
2408.74284,0.00708
2406.68232,0.00709
2404.62180,0.00704
2402.56129,0.00688
2400.50077,0.00711
2398.44026,0.00783
2396.37974,0.00820
2394.31923,0.00802
2392.25871,0.00785
2390.19819,0.00790
2388.13768,0.00787
2386.07716,0.00751
2384.01665,0.00703
2381.95613,0.00698
2379.89562,0.00759
2377.83510,0.00822
2375.77459,0.00833
2373.71407,0.00831
2371.65355,0.00827
2369.59304,0.00812
2367.53252,0.00755
2365.47201,0.00661
2363.41149,0.00685
2361.35098,0.00846
2359.29046,0.00931
2357.22994,0.00851
2355.16943,0.00778
2353.10891,0.00842
2351.04840,0.00907
2348.98788,0.00887
2346.92737,0.00873
2344.86685,0.00887
2342.80633,0.00909
2340.74582,0.00981
2338.68530,0.01002
2336.62479,0.00941
2334.56427,0.00938
2332.50376,0.00967
2330.44324,0.00938
2328.38272,0.00877
2326.32221,0.00837
2324.26169,0.00841
2322.20118,0.00887
2320.14066,0.00953
2318.08015,0.00982
2316.01963,0.00939
2313.95911,0.00881
2311.89860,0.00896
2309.83808,0.00974
2307.77757,0.01012
2305.71705,0.00998
2303.65654,0.00991
2301.59602,0.01002
2299.53550,0.01024
2297.47499,0.01022
2295.41447,0.00972
2293.35396,0.00952
2291.29344,0.01023
2289.23293,0.01108
2287.17241,0.01141
2285.11189,0.01161
2283.05138,0.01172
2280.99086,0.01148
2278.93035,0.01113
2276.86983,0.01070
2274.80932,0.00988
2272.74880,0.00930
2270.68829,0.00946
2268.62777,0.00975
2266.56725,0.01053
2264.50674,0.01187
2262.44622,0.01236
2260.38571,0.01193
2258.32519,0.01145
2256.26468,0.01113
2254.20416,0.01079
2252.14364,0.01060
2250.08313,0.01105
2248.02261,0.01214
2245.96210,0.01292
2243.90158,0.01280
2241.84107,0.01208
2239.78055,0.01170
2237.72003,0.01188
2235.65952,0.01196
2233.59900,0.01149
2231.53849,0.01068
2229.47797,0.01024
2227.41746,0.01006
2225.35694,0.01045
2223.29642,0.01160
2221.23591,0.01248
2219.17539,0.01243
2217.11488,0.01185
2215.05436,0.01176
2212.99385,0.01229
2210.93333,0.01285
2208.87281,0.01281
2206.81230,0.01299
2204.75178,0.01391
2202.69127,0.01393
2200.63075,0.01318
2198.57024,0.01285
2196.50972,0.01247
2194.44920,0.01182
2192.38869,0.01190
2190.32817,0.01295
2188.26766,0.01379
2186.20714,0.01407
2184.14663,0.01444
2182.08611,0.01486
2180.02559,0.01505
2177.96508,0.01425
2175.90456,0.01274
2173.84405,0.01309
2171.78353,0.01502
2169.72302,0.01608
2167.66250,0.01573
2165.60199,0.01449
2163.54147,0.01362
2161.48095,0.01380
2159.42044,0.01432
2157.35992,0.01354
2155.29941,0.01161
2153.23889,0.01136
2151.17838,0.01302
2149.11786,0.01450
2147.05734,0.01490
2144.99683,0.01415
2142.93631,0.01377
2140.87580,0.01430
2138.81528,0.01446
2136.75477,0.01498
2134.69425,0.01620
2132.63373,0.01692
2130.57322,0.01747
2128.51270,0.01836
2126.45219,0.01869
2124.39167,0.01800
2122.33116,0.01717
2120.27064,0.01702
2118.21012,0.01755
2116.14961,0.01819
2114.08909,0.01844
2112.02858,0.01834
2109.96806,0.01795
2107.90755,0.01752
2105.84703,0.01749
2103.78651,0.01790
2101.72600,0.01834
2099.66548,0.01818
2097.60497,0.01754
2095.54445,0.01679
2093.48394,0.01639
2091.42342,0.01668
2089.36290,0.01665
2087.30239,0.01601
2085.24187,0.01592
2083.18136,0.01639
2081.12084,0.01683
2079.06033,0.01681
2076.99981,0.01604
2074.93930,0.01551
2072.87878,0.01572
2070.81826,0.01611
2068.75775,0.01658
2066.69723,0.01636
2064.63672,0.01558
2062.57620,0.01548
2060.51569,0.01563
2058.45517,0.01575
2056.39465,0.01564
2054.33414,0.01461
2052.27362,0.01365
2050.21311,0.01416
2048.15259,0.01499
2046.09208,0.01445
2044.03156,0.01346
2041.97104,0.01307
2039.91053,0.01317
2037.85001,0.01263
2035.78950,0.01163
2033.72898,0.01139
2031.66847,0.01051
2029.60795,0.00918
2027.54743,0.01054
2025.48692,0.01367
2023.42640,0.01489
2021.36589,0.01285
2019.30537,0.00930
2017.24486,0.00813
2015.18434,0.01005
2013.12382,0.01198
2011.06331,0.01222
2009.00279,0.01195
2006.94228,0.01200
2004.88176,0.01132
2002.82125,0.01014
2000.76073,0.00924
1998.70021,0.00909
1996.63970,0.01006
1994.57918,0.01161
1992.51867,0.01256
1990.45815,0.01287
1988.39764,0.01276
1986.33712,0.01155
1984.27660,0.01048
1982.21609,0.01120
1980.15557,0.01212
1978.09506,0.01171
1976.03454,0.01187
1973.97403,0.01357
1971.91351,0.01460
1969.85300,0.01322
1967.79248,0.01169
1965.73196,0.01215
1963.67145,0.01207
1961.61093,0.01098
1959.55042,0.01104
1957.48990,0.01183
1955.42939,0.01224
1953.36887,0.01199
1951.30835,0.01120
1949.24784,0.01088
1947.18732,0.01108
1945.12681,0.01121
1943.06629,0.01161
1941.00578,0.01212
1938.94526,0.01187
1936.88474,0.01112
1934.82423,0.01097
1932.76371,0.01128
1930.70320,0.01127
1928.64268,0.01094
1926.58217,0.01059
1924.52165,0.01062
1922.46113,0.01121
1920.40062,0.01150
1918.34010,0.01094
1916.27959,0.01018
1914.21907,0.00940
1912.15856,0.00881
1910.09804,0.00923
1908.03752,0.00997
1905.97701,0.00983
1903.91649,0.00931
1901.85598,0.00932
1899.79546,0.00988
1897.73495,0.01048
1895.67443,0.01050
1893.61391,0.00994
1891.55340,0.00952
1889.49288,0.00953
1887.43237,0.00958
1885.37185,0.00963
1883.31134,0.01009
1881.25082,0.01046
1879.19030,0.00995
1877.12979,0.00922
1875.06927,0.00923
1873.00876,0.00950
1870.94824,0.00952
1868.88773,0.00987
1866.82721,0.01041
1864.76670,0.01027
1862.70618,0.00993
1860.64566,0.00993
1858.58515,0.01013
1856.52463,0.01019
1854.46412,0.01002
1852.40360,0.00996
1850.34309,0.01028
1848.28257,0.01050
1846.22205,0.00996
1844.16154,0.00919
1842.10102,0.00912
1840.04051,0.00956
1837.97999,0.01018
1835.91948,0.01082
1833.85896,0.01115
1831.79844,0.01101
1829.73793,0.01071
1827.67741,0.01028
1825.61690,0.00975
1823.55638,0.00975
1821.49587,0.01031
1819.43535,0.01090
1817.37483,0.01129
1815.31432,0.01149
1813.25380,0.01151
1811.19329,0.01166
1809.13277,0.01195
1807.07226,0.01209
1805.01174,0.01212
1802.95122,0.01207
1800.89071,0.01193
1798.83019,0.01197
1796.76968,0.01234
1794.70916,0.01283
1792.64865,0.01339
1790.58813,0.01389
1788.52761,0.01404
1786.46710,0.01395
1784.40658,0.01394
1782.34607,0.01413
1780.28555,0.01446
1778.22504,0.01474
1776.16452,0.01488
1774.10400,0.01498
1772.04349,0.01509
1769.98297,0.01539
1767.92246,0.01601
1765.86194,0.01683
1763.80143,0.01744
1761.74091,0.01762
1759.68040,0.01774
1757.61988,0.01827
1755.55936,0.01903
1753.49885,0.01937
1751.43833,0.01944
1749.37782,0.02003
1747.31730,0.02107
1745.25679,0.02192
1743.19627,0.02267
1741.13575,0.02349
1739.07524,0.02439
1737.01472,0.02509
1734.95421,0.02550
1732.89369,0.02631
1730.83318,0.02746
1728.77266,0.02864
1726.71214,0.03000
1724.65163,0.03155
1722.59111,0.03302
1720.53060,0.03402
1718.47008,0.03498
1716.40957,0.03678
1714.34905,0.03900
1712.28853,0.04095
1710.22802,0.04287
1708.16750,0.04483
1706.10699,0.04707
1704.04647,0.04935
1701.98596,0.05131
1699.92544,0.05385
1697.86492,0.05711
1695.80441,0.06094
1693.74389,0.06481
1691.68338,0.06767
1689.62286,0.07036
1687.56235,0.07324
1685.50183,0.07656
1683.44131,0.08127
1681.38080,0.08590
1679.32028,0.08986
1677.25977,0.09356
1675.19925,0.09752
1673.13874,0.10178
1671.07822,0.10598
1669.01771,0.11078
1666.95719,0.11547
1664.89667,0.11929
1662.83616,0.12292
1660.77564,0.12656
1658.71513,0.12994
1656.65461,0.13293
1654.59410,0.13596
1652.53358,0.13991
1650.47306,0.14279
1648.41255,0.14478
1646.35203,0.14724
1644.29152,0.14916
1642.23100,0.14998
1640.17049,0.15047
1638.10997,0.15057
1636.04945,0.14943
1633.98894,0.14759
1631.92842,0.14621
1629.86791,0.14427
1627.80739,0.14101
1625.74688,0.13716
1623.68636,0.13297
1621.62584,0.12844
1619.56533,0.12427
1617.50481,0.11934
1615.44430,0.11359
1613.38378,0.10905
1611.32327,0.10490
1609.26275,0.10040
1607.20223,0.09593
1605.14172,0.09178
1603.08120,0.08783
1601.02069,0.08435
1598.96017,0.08139
1596.89966,0.07828
1594.83914,0.07507
1592.77862,0.07244
1590.71811,0.07028
1588.65759,0.06810
1586.59708,0.06594
1584.53656,0.06405
1582.47605,0.06252
1580.41553,0.06108
1578.35501,0.05950
1576.29450,0.05758
1574.23398,0.05596
1572.17347,0.05483
1570.11295,0.05348
1568.05244,0.05229
1565.99192,0.05164
1563.93141,0.05097
1561.87089,0.05001
1559.81037,0.04863
1557.74986,0.04770
1555.68934,0.04764
1553.62883,0.04711
1551.56831,0.04622
1549.50780,0.04564
1547.44728,0.04524
1545.38676,0.04443
1543.32625,0.04327
1541.26573,0.04236
1539.20522,0.04231
1537.14470,0.04267
1535.08419,0.04248
1533.02367,0.04199
1530.96315,0.04186
1528.90264,0.04177
1526.84212,0.04128
1524.78161,0.04055
1522.72109,0.03997
1520.66058,0.03985
1518.60006,0.04006
1516.53954,0.04022
1514.47903,0.04014
1512.41851,0.03994
1510.35800,0.03968
1508.29748,0.03916
1506.23697,0.03881
1504.17645,0.03919
1502.11593,0.03963
1500.05542,0.03988
1497.99490,0.03993
1495.93439,0.04006
1493.87387,0.04056
1491.81336,0.04122
1489.75284,0.04194
1487.69232,0.04270
1485.63181,0.04359
1483.57129,0.04488
1481.51078,0.04684
1479.45026,0.04947
1477.38975,0.05251
1475.32923,0.05546
1473.26871,0.05743
1471.20820,0.05828
1469.14768,0.05850
1467.08717,0.05833
1465.02665,0.05818
1462.96614,0.05873
1460.90562,0.05973
1458.84511,0.06054
1456.78459,0.06053
1454.72407,0.05951
1452.66356,0.05803
1450.60304,0.05632
1448.54253,0.05473
1446.48201,0.05340
1444.42150,0.05206
1442.36098,0.05043
1440.30046,0.04870
1438.23995,0.04703
1436.17943,0.04554
1434.11892,0.04479
1432.05840,0.04448
1429.99789,0.04428
1427.93737,0.04429
1425.87685,0.04427
1423.81634,0.04402
1421.75582,0.04358
1419.69531,0.04304
1417.63479,0.04283
1415.57428,0.04295
1413.51376,0.04298
1411.45324,0.04298
1409.39273,0.04300
1407.33221,0.04303
1405.27170,0.04313
1403.21118,0.04315
1401.15067,0.04297
1399.09015,0.04280
1397.02963,0.04282
1394.96912,0.04296
1392.90860,0.04326
1390.84809,0.04351
1388.78757,0.04347
1386.72706,0.04346
1384.66654,0.04367
1382.60602,0.04394
1380.54551,0.04441
1378.48499,0.04495
1376.42448,0.04534
1374.36396,0.04581
1372.30345,0.04668
1370.24293,0.04792
1368.18241,0.04939
1366.12190,0.05105
1364.06138,0.05316
1362.00087,0.05599
1359.94035,0.05927
1357.87984,0.06281
1355.81932,0.06669
1353.75881,0.07086
1351.69829,0.07450
1349.63777,0.07557
1347.57726,0.07205
1345.51674,0.06470
1343.45623,0.05712
1341.39571,0.05203
1339.33520,0.04952
1337.27468,0.04871
1335.21416,0.04868
1333.15365,0.04854
1331.09313,0.04793
1329.03262,0.04711
1326.97210,0.04639
1324.91159,0.04598
1322.85107,0.04588
1320.79055,0.04582
1318.73004,0.04601
1316.66952,0.04694
1314.60901,0.04840
1312.54849,0.05013
1310.48798,0.05215
1308.42746,0.05420
1306.36694,0.05593
1304.30643,0.05725
1302.24591,0.05816
1300.18540,0.05862
1298.12488,0.05879
1296.06437,0.05881
1294.00385,0.05883
1291.94333,0.05894
1289.88282,0.05893
1287.82230,0.05857
1285.76179,0.05790
1283.70127,0.05709
1281.64076,0.05613
1279.58024,0.05504
1277.51972,0.05390
1275.45921,0.05288
1273.39869,0.05207
1271.33818,0.05162
1269.27766,0.05193
1267.21715,0.05282
1265.15663,0.05381
1263.09612,0.05516
1261.03560,0.05702
1258.97508,0.05916
1256.91457,0.06129
1254.85405,0.06304
1252.79354,0.06395
1250.73302,0.06380
1248.67251,0.06283
1246.61199,0.06131
1244.55147,0.05940
1242.49096,0.05737
1240.43044,0.05540
1238.36993,0.05369
1236.30941,0.05217
1234.24890,0.05053
1232.18838,0.04901
1230.12786,0.04791
1228.06735,0.04704
1226.00683,0.04618
1223.94632,0.04538
1221.88580,0.04472
1219.82529,0.04424
1217.76477,0.04392
1215.70425,0.04359
1213.64374,0.04317
1211.58322,0.04276
1209.52271,0.04253
1207.46219,0.04235
1205.40168,0.04207
1203.34116,0.04188
1201.28064,0.04177
1199.22013,0.04168
1197.15961,0.04174
1195.09910,0.04188
1193.03858,0.04188
1190.97807,0.04193
1188.91755,0.04219
1186.85703,0.04248
1184.79652,0.04270
1182.73600,0.04276
1180.67549,0.04275
1178.61497,0.04278
1176.55446,0.04300
1174.49394,0.04353
1172.43342,0.04428
1170.37291,0.04520
1168.31239,0.04613
1166.25188,0.04709
1164.19136,0.04838
1162.13085,0.05034
1160.07033,0.05287
1158.00982,0.05567
1155.94930,0.05894
1153.88878,0.06299
1151.82827,0.06790
1149.76775,0.07338
1147.70724,0.07886
1145.64672,0.08424
1143.58621,0.08962
1141.52569,0.09461
1139.46517,0.09899
1137.40466,0.10291
1135.34414,0.10619
1133.28363,0.10875
1131.22311,0.11121
1129.16260,0.11411
1127.10208,0.11758
1125.04156,0.12155
1122.98105,0.12566
1120.92053,0.12990
1118.86002,0.13467
1116.79950,0.13987
1114.73899,0.14506
1112.67847,0.15010
1110.61795,0.15506
1108.55744,0.16006
1106.49692,0.16539
1104.43641,0.17083
1102.37589,0.17588
1100.31538,0.18049
1098.25486,0.18492
1096.19434,0.18927
1094.13383,0.19332
1092.07331,0.19689
1090.01280,0.20002
1087.95228,0.20252
1085.89177,0.20395
1083.83125,0.20439
1081.77073,0.20410
1079.71022,0.20289
1077.64970,0.20065
1075.58919,0.19775
1073.52867,0.19440
1071.46816,0.19048
1069.40764,0.18596
1067.34712,0.18077
1065.28661,0.17459
1063.22609,0.16698
1061.16558,0.15810
1059.10506,0.14851
1057.04455,0.13871
1054.98403,0.12927
1052.92352,0.12049
1050.86300,0.11229
1048.80248,0.10518
1046.74197,0.10005
1044.68145,0.09687
1042.62094,0.09473
1040.56042,0.09325
1038.49991,0.09237
1036.43939,0.09150
1034.37887,0.09029
1032.31836,0.08888
1030.25784,0.08717
1028.19733,0.08498
1026.13681,0.08241
1024.07630,0.07968
1022.01578,0.07700
1019.95526,0.07444
1017.89475,0.07192
1015.83423,0.06951
1013.77372,0.06757
1011.71320,0.06639
1009.65269,0.06548
1007.59217,0.06443
1005.53165,0.06352
1003.47114,0.06294
1001.41062,0.06262
999.35011,0.06250
997.28959,0.06241
995.22908,0.06229
993.16856,0.06229
991.10804,0.06252
989.04753,0.06285
986.98701,0.06288
984.92650,0.06239
982.86598,0.06182
980.80547,0.06177
978.74495,0.06209
976.68443,0.06228
974.62392,0.06228
972.56340,0.06276
970.50289,0.06423
968.44237,0.06625
966.38186,0.06833
964.32134,0.07103
962.26082,0.07489
960.20031,0.07986
958.13979,0.08570
956.07928,0.09194
954.01876,0.09799
951.95825,0.10330
949.89773,0.10730
947.83722,0.10973
945.77670,0.11062
943.71618,0.11005
941.65567,0.10848
939.59515,0.10655
937.53464,0.10472
935.47412,0.10312
933.41361,0.10133
931.35309,0.09940
929.29257,0.09792
927.23206,0.09703
925.17154,0.09640
923.11103,0.09587
921.05051,0.09559
918.99000,0.09549
916.92948,0.09545
914.86896,0.09557
912.80845,0.09563
910.74793,0.09520
908.68742,0.09470
906.62690,0.09485
904.56639,0.09547
902.50587,0.09602
900.44535,0.09662
898.38484,0.09780
896.32432,0.09972
894.26381,0.10211
892.20329,0.10471
890.14278,0.10709
888.08226,0.10890
886.02174,0.11050
883.96123,0.11214
881.90071,0.11348
879.84020,0.11435
877.77968,0.11528
875.71917,0.11685
873.65865,0.11864
871.59813,0.12000
869.53762,0.12139
867.47710,0.12341
865.41659,0.12577
863.35607,0.12808
861.29556,0.13028
859.23504,0.13265
857.17453,0.13568
855.11401,0.13902
853.05349,0.14230
850.99298,0.14581
848.93246,0.14937
846.87195,0.15239
844.81143,0.15504
842.75092,0.15816
840.69040,0.16166
838.62988,0.16480
836.56937,0.16724
834.50885,0.16959
832.44834,0.17228
830.38782,0.17448
828.32731,0.17585
826.26679,0.17726
824.20627,0.17898
822.14576,0.18070
820.08524,0.18281
818.02473,0.18543
815.96421,0.18794
813.90370,0.19011
811.84318,0.19225
809.78266,0.19446
807.72215,0.19634
805.66163,0.19837
803.60112,0.20120
801.54060,0.20431
799.48009,0.20692
797.41957,0.20888
795.35905,0.21088
793.29854,0.21312
791.23802,0.21540
789.17751,0.21790
787.11699,0.22040
785.05648,0.22272
782.99596,0.22546
780.93544,0.22901
778.87493,0.23239
776.81441,0.23502
774.75390,0.23768
772.69338,0.24059
770.63287,0.24326
768.57235,0.24594
766.51183,0.24890
764.45132,0.25149
762.39080,0.25365
760.33029,0.25648
758.26977,0.26010
756.20926,0.26363
754.14874,0.26664
752.08823,0.26918
750.02771,0.27184
747.96719,0.27481
745.90668,0.27744
743.84616,0.27970
741.78565,0.28207
739.72513,0.28491
737.66462,0.28816
735.60410,0.29126
733.54358,0.29424
731.48307,0.29714
729.42255,0.29961
727.36204,0.30183
725.30152,0.30413
723.24101,0.30667
721.18049,0.30947
719.11997,0.31250
717.05946,0.31587
714.99894,0.31930
712.93843,0.32235
710.87791,0.32505
708.81740,0.32786
706.75688,0.33088
704.69636,0.33367
702.63585,0.33573
700.57533,0.33759
698.51482,0.34014
696.45430,0.34289
694.39379,0.34544
692.33327,0.34841
690.27275,0.35108
688.21224,0.35288
686.15172,0.35574
684.09121,0.35993
682.03069,0.36331
679.97018,0.36504
677.90966,0.36708
675.84914,0.37060
673.78863,0.37320
671.72811,0.37443
669.66760,0.37650
667.60708,0.37932
665.54657,0.38174
663.48605,0.38441
661.42553,0.38713
659.36502,0.38968
657.30450,0.39213
655.24399,0.39444
653.18347,0.39680
651.12296,0.39862
649.06244,0.39954
647.00193,0.40104
644.94141,0.40428
642.88089,0.40795
640.82038,0.40976
638.75986,0.41113
636.69935,0.41493
634.63883,0.41924
632.57832,0.42148
630.51780,0.42172
628.45728,0.42160
626.39677,0.42257
624.33625,0.42457
622.27574,0.42697
620.21522,0.42879
618.15471,0.43101
616.09419,0.43464
614.03367,0.43781
611.97316,0.43920
609.91264,0.43953
607.85213,0.43975
605.79161,0.44083
603.73110,0.44271
601.67058,0.44467
599.61006,0.44705
597.54955,0.44853
595.48903,0.44831
593.42852,0.45031
591.36800,0.45562
589.30749,0.45932
587.24697,0.45925
585.18645,0.45790
583.12594,0.45770
581.06542,0.46005
579.00491,0.46458
576.94439,0.46731
574.88388,0.46712
572.82336,0.46883
570.76284,0.47335
568.70233,0.47680
566.64181,0.47844
564.58130,0.47968
562.52078,0.48044
560.46027,0.48019
558.39975,0.47926
556.33924,0.47960
554.27872,0.48061
552.21820,0.48120
550.15769,0.48304
548.09717,0.48446
546.03666,0.48340
543.97614,0.48338
541.91563,0.48632
539.85511,0.48810
537.79459,0.48853
535.73408,0.49123
533.67356,0.49482
531.61305,0.49521
529.55253,0.49411
527.49202,0.49531
525.43150,0.49762
523.37098,0.50018
521.31047,0.50519
519.24995,0.50980
517.18944,0.50834
515.12892,0.50594
513.06841,0.50822
511.00789,0.51062
508.94737,0.50994
506.88686,0.50801
504.82634,0.50566
502.76583,0.50477
500.70531,0.50668
498.64480,0.50921
496.58428,0.51292
494.52376,0.51661
492.46325,0.51558
490.40273,0.51263
488.34222,0.51356
486.28170,0.51480
484.22119,0.51221
482.16067,0.50947
480.10015,0.50884
478.03964,0.50985
475.97912,0.51218
473.91861,0.51400
471.85809,0.51495
469.79758,0.51387
467.73706,0.50941
465.67654,0.50850
463.61603,0.51495
461.55551,0.51972
459.49500,0.51493
457.43448,0.50567
455.37397,0.50229
453.31345,0.50473
451.25294,0.51192
449.19242,0.52294
447.13190,0.52962
445.07139,0.52780
443.01087,0.52242
440.95036,0.51763
438.88984,0.51866
436.82933,0.52226
434.76881,0.52141
432.70829,0.52097
430.64778,0.51671
428.58726,0.50859
426.52675,0.50841
424.46623,0.51071
422.40572,0.50751
420.34520,0.50740
418.28468,0.51254
416.22417,0.51236
414.16365,0.51130
412.10314,0.51790
410.04262,0.52531
407.98211,0.52414
405.92159,0.52503
403.86107,0.52860
401.80056,0.52046
399.74004,0.50560
