3997.40043,0.00327
3995.33991,0.00370
3993.27940,0.00381
3991.21888,0.00338
3989.15837,0.00306
3987.09785,0.00297
3985.03734,0.00275
3982.97682,0.00268
3980.91630,0.00284
3978.85579,0.00274
3976.79527,0.00247
3974.73476,0.00243
3972.67424,0.00270
3970.61373,0.00301
3968.55321,0.00311
3966.49269,0.00301
3964.43218,0.00308
3962.37166,0.00329
3960.31115,0.00325
3958.25063,0.00311
3956.19012,0.00307
3954.12960,0.00303
3952.06908,0.00302
3950.00857,0.00302
3947.94805,0.00290
3945.88754,0.00278
3943.82702,0.00290
3941.76651,0.00304
3939.70599,0.00317
3937.64547,0.00336
3935.58496,0.00326
3933.52444,0.00314
3931.46393,0.00320
3929.40341,0.00303
3927.34290,0.00275
3925.28238,0.00270
3923.22186,0.00297
3921.16135,0.00299
3919.10083,0.00239
3917.04032,0.00200
3914.97980,0.00225
3912.91929,0.00265
3910.85877,0.00285
3908.79825,0.00277
3906.73774,0.00283
3904.67722,0.00319
3902.61671,0.00331
3900.55619,0.00287
3898.49568,0.00229
3896.43516,0.00229
3894.37465,0.00289
3892.31413,0.00342
3890.25361,0.00332
3888.19310,0.00296
3886.13258,0.00288
3884.07207,0.00296
3882.01155,0.00287
3879.95104,0.00273
3877.89052,0.00284
3875.83000,0.00303
3873.76949,0.00323
3871.70897,0.00343
3869.64846,0.00350
3867.58794,0.00363
3865.52743,0.00408
3863.46691,0.00455
3861.40639,0.00455
3859.34588,0.00425
3857.28536,0.00399
3855.22485,0.00383
3853.16433,0.00362
3851.10382,0.00309
3849.04330,0.00251
3846.98278,0.00239
3844.92227,0.00294
3842.86175,0.00361
3840.80124,0.00369
3838.74072,0.00333
3836.68021,0.00315
3834.61969,0.00362
3832.55917,0.00407
3830.49866,0.00389
3828.43814,0.00378
3826.37763,0.00396
3824.31711,0.00409
3822.25660,0.00393
3820.19608,0.00341
3818.13556,0.00305
3816.07505,0.00328
3814.01453,0.00396
3811.95402,0.00438
3809.89350,0.00425
3807.83299,0.00375
3805.77247,0.00343
3803.71195,0.00360
3801.65144,0.00408
3799.59092,0.00455
3797.53041,0.00464
3795.46989,0.00442
3793.40938,0.00428
3791.34886,0.00421
3789.28835,0.00406
3787.22783,0.00410
3785.16731,0.00450
3783.10680,0.00478
3781.04628,0.00452
3778.98577,0.00415
3776.92525,0.00426
3774.86474,0.00484
3772.80422,0.00510
3770.74370,0.00459
3768.68319,0.00419
3766.62267,0.00431
3764.56216,0.00442
3762.50164,0.00461
3760.44113,0.00526
3758.38061,0.00633
3756.32009,0.00696
3754.25958,0.00651
3752.19906,0.00577
3750.13855,0.00586
3748.07803,0.00624
3746.01752,0.00638
3743.95700,0.00639
3741.89648,0.00624
3739.83597,0.00637
3737.77545,0.00695
3735.71494,0.00713
3733.65442,0.00675
3731.59391,0.00672
3729.53339,0.00691
3727.47287,0.00726
3725.41236,0.00769
3723.35184,0.00799
3721.29133,0.00831
3719.23081,0.00856
3717.17030,0.00880
3715.10978,0.00887
3713.04926,0.00871
3710.98875,0.00906
3708.92823,0.01017
3706.86772,0.01121
3704.80720,0.01182
3702.74669,0.01176
3700.68617,0.01185
3698.62565,0.01283
3696.56514,0.01365
3694.50462,0.01379
3692.44411,0.01407
3690.38359,0.01515
3688.32308,0.01691
3686.26256,0.01860
3684.20205,0.01991
3682.14153,0.02112
3680.08101,0.02226
3678.02050,0.02343
3675.95998,0.02490
3673.89947,0.02651
3671.83895,0.02815
3669.77844,0.03014
3667.71792,0.03208
3665.65740,0.03360
3663.59689,0.03516
3661.53637,0.03714
3659.47586,0.03949
3657.41534,0.04193
3655.35483,0.04392
3653.29431,0.04536
3651.23379,0.04733
3649.17328,0.05042
3647.11276,0.05307
3645.05225,0.05459
3642.99173,0.05604
3640.93122,0.05748
3638.87070,0.05851
3636.81018,0.06009
3634.74967,0.06253
3632.68915,0.06469
3630.62864,0.06638
3628.56812,0.06839
3626.50761,0.07034
3624.44709,0.07184
3622.38657,0.07378
3620.32606,0.07624
3618.26554,0.07801
3616.20503,0.07917
3614.14451,0.08051
3612.08400,0.08192
3610.02348,0.08331
3607.96296,0.08484
3605.90245,0.08683
3603.84193,0.08920
3601.78142,0.09156
3599.72090,0.09354
3597.66039,0.09531
3595.59987,0.09704
3593.53936,0.09860
3591.47884,0.10004
3589.41832,0.10155
3587.35781,0.10336
3585.29729,0.10527
3583.23678,0.10679
3581.17626,0.10833
3579.11575,0.11029
3577.05523,0.11229
3574.99471,0.11445
3572.93420,0.11677
3570.87368,0.11869
3568.81317,0.12081
3566.75265,0.12363
3564.69214,0.12579
3562.63162,0.12702
3560.57110,0.12869
3558.51059,0.13114
3556.45007,0.13360
3554.38956,0.13552
3552.32904,0.13761
3550.26853,0.14028
3548.20801,0.14251
3546.14749,0.14408
3544.08698,0.14568
3542.02646,0.14754
3539.96595,0.14966
3537.90543,0.15228
3535.84492,0.15532
3533.78440,0.15808
3531.72388,0.16029
3529.66337,0.16226
3527.60285,0.16450
3525.54234,0.16706
3523.48182,0.16953
3521.42131,0.17186
3519.36079,0.17415
3517.30027,0.17646
3515.23976,0.17870
3513.17924,0.18103
3511.11873,0.18377
3509.05821,0.18673
3506.99770,0.18909
3504.93718,0.19067
3502.87666,0.19244
3500.81615,0.19505
3498.75563,0.19781
3496.69512,0.20030
3494.63460,0.20293
3492.57409,0.20552
3490.51357,0.20767
3488.45306,0.20949
3486.39254,0.21172
3484.33202,0.21490
3482.27151,0.21801
3480.21099,0.22027
3478.15048,0.22248
3476.08996,0.22528
3474.02945,0.22835
3471.96893,0.23105
3469.90841,0.23326
3467.84790,0.23573
3465.78738,0.23850
3463.72687,0.24100
3461.66635,0.24343
3459.60584,0.24603
3457.54532,0.24883
3455.48480,0.25193
3453.42429,0.25489
3451.36377,0.25743
3449.30326,0.25962
3447.24274,0.26147
3445.18223,0.26375
3443.12171,0.26677
3441.06119,0.27013
3439.00068,0.27321
3436.94016,0.27524
3434.87965,0.27710
3432.81913,0.27986
3430.75862,0.28255
3428.69810,0.28490
3426.63758,0.28763
3424.57707,0.29054
3422.51655,0.29316
3420.45604,0.29550
3418.39552,0.29809
3416.33501,0.30084
3414.27449,0.30294
3412.21397,0.30456
3410.15346,0.30694
3408.09294,0.31014
3406.03243,0.31313
3403.97191,0.31521
3401.91140,0.31672
3399.85088,0.31870
3397.79036,0.32103
3395.72985,0.32281
3393.66933,0.32419
3391.60882,0.32589
3389.54830,0.32814
3387.48779,0.33055
3385.42727,0.33244
3383.36676,0.33383
3381.30624,0.33526
3379.24572,0.33693
3377.18521,0.33856
3375.12469,0.33989
3373.06418,0.34088
3371.00366,0.34160
3368.94315,0.34252
3366.88263,0.34371
3364.82211,0.34488
3362.76160,0.34595
3360.70108,0.34690
3358.64057,0.34791
3356.58005,0.34900
3354.51954,0.34964
3352.45902,0.34943
3350.39850,0.34910
3348.33799,0.34981
3346.27747,0.35085
3344.21696,0.35121
3342.15644,0.35150
3340.09593,0.35205
3338.03541,0.35259
3335.97489,0.35302
3333.91438,0.35354
3331.85386,0.35441
3329.79335,0.35533
3327.73283,0.35569
3325.67232,0.35549
3323.61180,0.35519
3321.55128,0.35478
3319.49077,0.35433
3317.43025,0.35470
3315.36974,0.35579
3313.30922,0.35584
3311.24871,0.35478
3309.18819,0.35448
3307.12767,0.35523
3305.06716,0.35571
3303.00664,0.35563
3300.94613,0.35553
3298.88561,0.35533
3296.82510,0.35511
3294.76458,0.35500
3292.70406,0.35496
3290.64355,0.35521
3288.58303,0.35563
3286.52252,0.35589
3284.46200,0.35579
3282.40149,0.35560
3280.34097,0.35551
3278.28046,0.35577
3276.21994,0.35629
3274.15942,0.35623
3272.09891,0.35588
3270.03839,0.35568
3267.97788,0.35517
3265.91736,0.35443
3263.85685,0.35394
3261.79633,0.35414
3259.73581,0.35508
3257.67530,0.35604
3255.61478,0.35608
3253.55427,0.35535
3251.49375,0.35494
3249.43324,0.35458
3247.37272,0.35323
3245.31220,0.35191
3243.25169,0.35171
3241.19117,0.35172
3239.13066,0.35157
3237.07014,0.35138
3235.00963,0.35059
3232.94911,0.34962
3230.88859,0.34894
3228.82808,0.34770
3226.76756,0.34591
3224.70705,0.34455
3222.64653,0.34361
3220.58602,0.34231
3218.52550,0.34051
3216.46498,0.33894
3214.40447,0.33766
3212.34395,0.33633
3210.28344,0.33468
3208.22292,0.33239
3206.16241,0.33026
3204.10189,0.32872
3202.04137,0.32674
3199.98086,0.32436
3197.92034,0.32212
3195.85983,0.31990
3193.79931,0.31739
3191.73880,0.31435
3189.67828,0.31147
3187.61777,0.30931
3185.55725,0.30727
3183.49673,0.30473
3181.43622,0.30173
3179.37570,0.29856
3177.31519,0.29527
3175.25467,0.29216
3173.19416,0.28937
3171.13364,0.28666
3169.07312,0.28404
3167.01261,0.28123
3164.95209,0.27782
3162.89158,0.27406
3160.83106,0.27046
3158.77055,0.26731
3156.71003,0.26433
3154.64951,0.26092
3152.58900,0.25740
3150.52848,0.25450
3148.46797,0.25174
3146.40745,0.24823
3144.34694,0.24417
3142.28642,0.24053
3140.22590,0.23768
3138.16539,0.23492
3136.10487,0.23177
3134.04436,0.22841
3131.98384,0.22510
3129.92333,0.22185
3127.86281,0.21835
3125.80229,0.21480
3123.74178,0.21159
3121.68126,0.20829
3119.62075,0.20486
3117.56023,0.20166
3115.49972,0.19869
3113.43920,0.19581
3111.37868,0.19300
3109.31817,0.18994
3107.25765,0.18657
3105.19714,0.18338
3103.13662,0.18054
3101.07611,0.17774
3099.01559,0.17477
3096.95507,0.17192
3094.89456,0.16915
3092.83404,0.16638
3090.77353,0.16397
3088.71301,0.16142
3086.65250,0.15826
3084.59198,0.15522
3082.53147,0.15261
3080.47095,0.15020
3078.41043,0.14806
3076.34992,0.14612
3074.28940,0.14390
3072.22889,0.14133
3070.16837,0.13857
3068.10786,0.13561
3066.04734,0.13275
3063.98682,0.13021
3061.92631,0.12797
3059.86579,0.12608
3057.80528,0.12423
3055.74476,0.12193
3053.68425,0.11958
3051.62373,0.11766
3049.56321,0.11573
3047.50270,0.11371
3045.44218,0.11194
3043.38167,0.11024
3041.32115,0.10834
3039.26064,0.10639
3037.20012,0.10457
3035.13960,0.10277
3033.07909,0.10085
3031.01857,0.09905
3028.95806,0.09745
3026.89754,0.09584
3024.83703,0.09439
3022.77651,0.09291
3020.71599,0.09127
3018.65548,0.08955
3016.59496,0.08758
3014.53445,0.08575
3012.47393,0.08437
3010.41342,0.08291
3008.35290,0.08145
3006.29238,0.08018
3004.23187,0.07876
3002.17135,0.07718
3000.11084,0.07557
2998.05032,0.07422
2995.98981,0.07315
2993.92929,0.07186
2991.86877,0.07043
2989.80826,0.06908
2987.74774,0.06782
2985.68723,0.06680
2983.62671,0.06579
2981.56620,0.06458
2979.50568,0.06342
2977.44517,0.06232
2975.38465,0.06115
2973.32413,0.06007
2971.26362,0.05916
2969.20310,0.05838
2967.14259,0.05773
2965.08207,0.05708
2963.02156,0.05630
2960.96104,0.05546
2958.90052,0.05446
2956.84001,0.05329
2954.77949,0.05218
2952.71898,0.05105
2950.65846,0.04988
2948.59795,0.04889
2946.53743,0.04812
2944.47691,0.04738
2942.41640,0.04644
2940.35588,0.04551
2938.29537,0.04465
2936.23485,0.04373
2934.17434,0.04286
2932.11382,0.04216
2930.05330,0.04154
2927.99279,0.04105
2925.93227,0.04062
2923.87176,0.04005
2921.81124,0.03945
2919.75073,0.03887
2917.69021,0.03821
2915.62969,0.03747
2913.56918,0.03666
2911.50866,0.03590
2909.44815,0.03526
2907.38763,0.03472
2905.32712,0.03418
2903.26660,0.03365
2901.20608,0.03313
2899.14557,0.03247
2897.08505,0.03174
2895.02454,0.03119
2892.96402,0.03082
2890.90351,0.03050
2888.84299,0.03009
2886.78247,0.02958
2884.72196,0.02921
2882.66144,0.02876
2880.60093,0.02814
2878.54041,0.02753
2876.47990,0.02683
2874.41938,0.02640
2872.35887,0.02638
2870.29835,0.02615
2868.23783,0.02561
2866.17732,0.02514
2864.11680,0.02470
2862.05629,0.02412
2859.99577,0.02366
2857.93526,0.02333
2855.87474,0.02290
2853.81422,0.02243
2851.75371,0.02211
2849.69319,0.02192
2847.63268,0.02169
2845.57216,0.02124
2843.51165,0.02041
2841.45113,0.01952
2839.39061,0.01919
2837.33010,0.01936
2835.26958,0.01937
2833.20907,0.01902
2831.14855,0.01877
2829.08804,0.01859
2827.02752,0.01839
2824.96700,0.01826
2822.90649,0.01811
2820.84597,0.01792
2818.78546,0.01765
2816.72494,0.01730
2814.66443,0.01696
2812.60391,0.01658
2810.54339,0.01638
2808.48288,0.01635
2806.42236,0.01612
2804.36185,0.01576
2802.30133,0.01550
2800.24082,0.01538
2798.18030,0.01529
2796.11978,0.01521
2794.05927,0.01509
2791.99875,0.01484
2789.93824,0.01449
2787.87772,0.01416
2785.81721,0.01397
2783.75669,0.01392
2781.69618,0.01390
2779.63566,0.01384
2777.57514,0.01361
2775.51463,0.01327
2773.45411,0.01306
2771.39360,0.01291
2769.33308,0.01255
2767.27257,0.01211
2765.21205,0.01184
2763.15153,0.01165
2761.09102,0.01149
2759.03050,0.01156
2756.96999,0.01166
2754.90947,0.01154
2752.84896,0.01140
2750.78844,0.01119
2748.72792,0.01083
2746.66741,0.01068
2744.60689,0.01089
2742.54638,0.01100
2740.48586,0.01079
2738.42535,0.01059
2736.36483,0.01062
2734.30431,0.01067
2732.24380,0.01054
2730.18328,0.01047
2728.12277,0.01049
2726.06225,0.01021
2724.00174,0.00974
2721.94122,0.00956
2719.88070,0.00965
2717.82019,0.00971
2715.75967,0.00961
2713.69916,0.00945
2711.63864,0.00938
2709.57813,0.00945
2707.51761,0.00944
2705.45709,0.00935
2703.39658,0.00927
2701.33606,0.00907
2699.27555,0.00889
2697.21503,0.00893
2695.15452,0.00892
2693.09400,0.00875
2691.03348,0.00843
2688.97297,0.00812
2686.91245,0.00808
2684.85194,0.00820
2682.79142,0.00830
2680.73091,0.00845
2678.67039,0.00854
2676.60988,0.00834
2674.54936,0.00801
2672.48884,0.00798
2670.42833,0.00823
2668.36781,0.00836
2666.30730,0.00823
2664.24678,0.00816
2662.18627,0.00813
2660.12575,0.00793
2658.06523,0.00769
2656.00472,0.00751
2653.94420,0.00743
2651.88369,0.00745
2649.82317,0.00740
2647.76266,0.00711
2645.70214,0.00681
2643.64162,0.00689
2641.58111,0.00721
2639.52059,0.00723
2637.46008,0.00699
2635.39956,0.00676
2633.33905,0.00664
2631.27853,0.00683
2629.21801,0.00701
2627.15750,0.00679
2625.09698,0.00655
2623.03647,0.00642
2620.97595,0.00634
2618.91544,0.00662
2616.85492,0.00700
2614.79440,0.00696
2612.73389,0.00672
2610.67337,0.00654
2608.61286,0.00652
2606.55234,0.00685
2604.49183,0.00704
2602.43131,0.00661
2600.37079,0.00626
2598.31028,0.00661
2596.24976,0.00711
2594.18925,0.00706
2592.12873,0.00655
2590.06822,0.00612
2588.00770,0.00603
2585.94718,0.00615
2583.88667,0.00628
2581.82615,0.00644
2579.76564,0.00680
2577.70512,0.00710
2575.64461,0.00701
2573.58409,0.00693
2571.52358,0.00708
2569.46306,0.00709
2567.40254,0.00694
2565.34203,0.00686
2563.28151,0.00678
2561.22100,0.00666
2559.16048,0.00656
2557.09997,0.00667
2555.03945,0.00686
2552.97893,0.00704
2550.91842,0.00717
2548.85790,0.00693
2546.79739,0.00674
2544.73687,0.00682
2542.67636,0.00667
2540.61584,0.00647
2538.55532,0.00656
2536.49481,0.00665
2534.43429,0.00692
2532.37378,0.00758
2530.31326,0.00789
2528.25275,0.00738
2526.19223,0.00663
2524.13171,0.00658
2522.07120,0.00711
2520.01068,0.00731
2517.95017,0.00720
2515.88965,0.00741
2513.82914,0.00769
2511.76862,0.00757
2509.70810,0.00734
2507.64759,0.00728
2505.58707,0.00751
2503.52656,0.00780
2501.46604,0.00803
2499.40553,0.00832
2497.34501,0.00829
2495.28449,0.00804
2493.22398,0.00807
2491.16346,0.00806
2489.10295,0.00808
2487.04243,0.00859
2484.98192,0.00894
2482.92140,0.00882
2480.86088,0.00858
2478.80037,0.00812
2476.73985,0.00761
2474.67934,0.00748
2472.61882,0.00772
2470.55831,0.00805
2468.49779,0.00833
2466.43728,0.00855
2464.37676,0.00864
2462.31624,0.00851
2460.25573,0.00829
2458.19521,0.00802
2456.13470,0.00807
2454.07418,0.00854
2452.01367,0.00891
2449.95315,0.00897
2447.89263,0.00888
2445.83212,0.00877
2443.77160,0.00836
2441.71109,0.00806
2439.65057,0.00856
2437.59006,0.00925
2435.52954,0.00939
2433.46902,0.00914
2431.40851,0.00882
2429.34799,0.00862
2427.28748,0.00887
2425.22696,0.00947
2423.16645,0.00984
2421.10593,0.00979
2419.04541,0.00946
2416.98490,0.00919
2414.92438,0.00921
2412.86387,0.00938
2410.80335,0.00969
2408.74284,0.01003
2406.68232,0.01010
2404.62180,0.00999
2402.56129,0.01015
2400.50077,0.01065
2398.44026,0.01087
2396.37974,0.01064
2394.31923,0.01042
2392.25871,0.01039
2390.19819,0.01052
2388.13768,0.01084
2386.07716,0.01091
2384.01665,0.01066
2381.95613,0.01068
2379.89562,0.01104
2377.83510,0.01126
2375.77459,0.01104
2373.71407,0.01065
2371.65355,0.01044
2369.59304,0.01041
2367.53252,0.01031
2365.47201,0.01012
2363.41149,0.01069
2361.35098,0.01206
2359.29046,0.01302
2357.22994,0.01260
2355.16943,0.01178
2353.10891,0.01187
2351.04840,0.01214
2348.98788,0.01199
2346.92737,0.01205
2344.86685,0.01249
2342.80633,0.01260
2340.74582,0.01274
2338.68530,0.01326
2336.62479,0.01351
2334.56427,0.01326
2332.50376,0.01277
2330.44324,0.01266
2328.38272,0.01297
2326.32221,0.01319
2324.26169,0.01318
2322.20118,0.01294
2320.14066,0.01290
2318.08015,0.01312
2316.01963,0.01329
2313.95911,0.01351
2311.89860,0.01410
2309.83808,0.01459
2307.77757,0.01418
2305.71705,0.01344
2303.65654,0.01326
2301.59602,0.01356
2299.53550,0.01395
2297.47499,0.01436
2295.41447,0.01445
2293.35396,0.01420
2291.29344,0.01440
2289.23293,0.01515
2287.17241,0.01592
2285.11189,0.01627
2283.05138,0.01600
2280.99086,0.01545
2278.93035,0.01510
2276.86983,0.01494
2274.80932,0.01458
2272.74880,0.01439
2270.68829,0.01492
2268.62777,0.01577
2266.56725,0.01656
2264.50674,0.01687
2262.44622,0.01645
2260.38571,0.01619
2258.32519,0.01608
2256.26468,0.01579
2254.20416,0.01569
2252.14364,0.01567
2250.08313,0.01608
2248.02261,0.01701
2245.96210,0.01766
2243.90158,0.01751
2241.84107,0.01678
2239.78055,0.01665
2237.72003,0.01722
2235.65952,0.01752
2233.59900,0.01730
2231.53849,0.01701
2229.47797,0.01725
2227.41746,0.01712
2225.35694,0.01664
2223.29642,0.01697
2221.23591,0.01727
2219.17539,0.01673
2217.11488,0.01631
2215.05436,0.01712
2212.99385,0.01886
2210.93333,0.02023
2208.87281,0.01987
2206.81230,0.01877
2204.75178,0.01896
2202.69127,0.01971
2200.63075,0.02021
2198.57024,0.02064
2196.50972,0.02030
2194.44920,0.01906
2192.38869,0.01819
2190.32817,0.01835
2188.26766,0.01941
2186.20714,0.02073
2184.14663,0.02087
2182.08611,0.02036
2180.02559,0.02151
2177.96508,0.02291
2175.90456,0.02135
2173.84405,0.01842
2171.78353,0.01769
2169.72302,0.01951
2167.66250,0.02175
2165.60199,0.02235
2163.54147,0.02076
2161.48095,0.01830
2159.42044,0.01823
2157.35992,0.02073
2155.29941,0.02145
2153.23889,0.02030
2151.17838,0.01951
2149.11786,0.01912
2147.05734,0.01920
2144.99683,0.01947
2142.93631,0.01986
2140.87580,0.02060
2138.81528,0.02129
2136.75477,0.02200
2134.69425,0.02289
2132.63373,0.02352
2130.57322,0.02348
2128.51270,0.02292
2126.45219,0.02223
2124.39167,0.02174
2122.33116,0.02180
2120.27064,0.02195
2118.21012,0.02142
2116.14961,0.02115
2114.08909,0.02157
2112.02858,0.02197
2109.96806,0.02225
2107.90755,0.02235
2105.84703,0.02215
2103.78651,0.02190
2101.72600,0.02205
2099.66548,0.02244
2097.60497,0.02223
2095.54445,0.02107
2093.48394,0.02039
2091.42342,0.02103
2089.36290,0.02137
2087.30239,0.02088
2085.24187,0.02095
2083.18136,0.02141
2081.12084,0.02128
2079.06033,0.02107
2076.99981,0.02108
2074.93930,0.02080
2072.87878,0.02033
2070.81826,0.02040
2068.75775,0.02103
2066.69723,0.02083
2064.63672,0.01927
2062.57620,0.01815
2060.51569,0.01856
2058.45517,0.01949
2056.39465,0.01967
2054.33414,0.01891
2052.27362,0.01908
2050.21311,0.02072
2048.15259,0.02099
2046.09208,0.01910
2044.03156,0.01692
2041.97104,0.01562
2039.91053,0.01613
2037.85001,0.01691
2035.78950,0.01603
2033.72898,0.01490
2031.66847,0.01375
2029.60795,0.01279
2027.54743,0.01425
2025.48692,0.01714
2023.42640,0.01802
2021.36589,0.01606
2019.30537,0.01393
2017.24486,0.01387
2015.18434,0.01503
2013.12382,0.01595
2011.06331,0.01587
2009.00279,0.01582
2006.94228,0.01666
2004.88176,0.01660
2002.82125,0.01577
2000.76073,0.01569
1998.70021,0.01626
1996.63970,0.01681
1994.57918,0.01669
1992.51867,0.01601
1990.45815,0.01568
1988.39764,0.01586
1986.33712,0.01571
1984.27660,0.01530
1982.21609,0.01523
1980.15557,0.01465
1978.09506,0.01341
1976.03454,0.01333
1973.97403,0.01496
1971.91351,0.01575
1969.85300,0.01477
1967.79248,0.01403
1965.73196,0.01411
1963.67145,0.01340
1961.61093,0.01215
1959.55042,0.01325
1957.48990,0.01553
1955.42939,0.01565
1953.36887,0.01460
1951.30835,0.01411
1949.24784,0.01403
1947.18732,0.01442
1945.12681,0.01480
1943.06629,0.01446
1941.00578,0.01418
1938.94526,0.01371
1936.88474,0.01301
1934.82423,0.01328
1932.76371,0.01374
1930.70320,0.01393
1928.64268,0.01444
1926.58217,0.01439
1924.52165,0.01370
1922.46113,0.01364
1920.40062,0.01400
1918.34010,0.01410
1916.27959,0.01383
1914.21907,0.01322
1912.15856,0.01286
1910.09804,0.01330
1908.03752,0.01372
1905.97701,0.01323
1903.91649,0.01252
1901.85598,0.01252
1899.79546,0.01301
1897.73495,0.01351
1895.67443,0.01369
1893.61391,0.01358
1891.55340,0.01374
1889.49288,0.01403
1887.43237,0.01377
1885.37185,0.01337
1883.31134,0.01357
1881.25082,0.01387
1879.19030,0.01355
1877.12979,0.01294
1875.06927,0.01269
1873.00876,0.01294
1870.94824,0.01318
1868.88773,0.01345
1866.82721,0.01394
1864.76670,0.01386
1862.70618,0.01323
1860.64566,0.01297
1858.58515,0.01354
1856.52463,0.01442
1854.46412,0.01462
1852.40360,0.01408
1850.34309,0.01376
1848.28257,0.01402
1846.22205,0.01424
1844.16154,0.01420
1842.10102,0.01408
1840.04051,0.01400
1837.97999,0.01418
1835.91948,0.01448
1833.85896,0.01469
1831.79844,0.01500
1829.73793,0.01508
1827.67741,0.01444
1825.61690,0.01380
1823.55638,0.01409
1821.49587,0.01468
1819.43535,0.01482
1817.37483,0.01486
1815.31432,0.01512
1813.25380,0.01547
1811.19329,0.01588
1809.13277,0.01626
1807.07226,0.01645
1805.01174,0.01655
1802.95122,0.01672
1800.89071,0.01682
1798.83019,0.01674
1796.76968,0.01688
1794.70916,0.01751
1792.64865,0.01832
1790.58813,0.01863
1788.52761,0.01848
1786.46710,0.01848
1784.40658,0.01882
1782.34607,0.01925
1780.28555,0.01948
1778.22504,0.01968
1776.16452,0.02009
1774.10400,0.02052
1772.04349,0.02064
1769.98297,0.02066
1767.92246,0.02098
1765.86194,0.02147
1763.80143,0.02185
1761.74091,0.02214
1759.68040,0.02272
1757.61988,0.02361
1755.55936,0.02441
1753.49885,0.02489
1751.43833,0.02544
1749.37782,0.02637
1747.31730,0.02734
1745.25679,0.02814
1743.19627,0.02890
1741.13575,0.02970
1739.07524,0.03061
1737.01472,0.03156
1734.95421,0.03263
1732.89369,0.03393
1730.83318,0.03500
1728.77266,0.03609
1726.71214,0.03735
1724.65163,0.03887
1722.59111,0.04063
1720.53060,0.04217
1718.47008,0.04379
1716.40957,0.04612
1714.34905,0.04842
1712.28853,0.05016
1710.22802,0.05202
1708.16750,0.05438
1706.10699,0.05700
1704.04647,0.05940
1701.98596,0.06176
1699.92544,0.06481
1697.86492,0.06789
1695.80441,0.07129
1693.74389,0.07491
1691.68338,0.07792
1689.62286,0.08110
1687.56235,0.08456
1685.50183,0.08836
1683.44131,0.09322
1681.38080,0.09768
1679.32028,0.10141
1677.25977,0.10500
1675.19925,0.10897
1673.13874,0.11319
1671.07822,0.11728
1669.01771,0.12195
1666.95719,0.12665
1664.89667,0.13064
1662.83616,0.13460
1660.77564,0.13870
1658.71513,0.14250
1656.65461,0.14594
1654.59410,0.14969
1652.53358,0.15465
1650.47306,0.15817
1648.41255,0.16050
1646.35203,0.16329
1644.29152,0.16604
1642.23100,0.16796
1640.17049,0.16918
1638.10997,0.16976
1636.04945,0.16967
1633.98894,0.16925
1631.92842,0.16873
1629.86791,0.16744
1627.80739,0.16497
1625.74688,0.16188
1623.68636,0.15820
1621.62584,0.15401
1619.56533,0.15008
1617.50481,0.14527
1615.44430,0.13948
1613.38378,0.13489
1611.32327,0.13076
1609.26275,0.12622
1607.20223,0.12155
1605.14172,0.11698
1603.08120,0.11260
1601.02069,0.10871
1598.96017,0.10524
1596.89966,0.10172
1594.83914,0.09815
1592.77862,0.09483
1590.71811,0.09182
1588.65759,0.08889
1586.59708,0.08605
1584.53656,0.08361
1582.47605,0.08158
1580.41553,0.07993
1578.35501,0.07845
1576.29450,0.07635
1574.23398,0.07420
1572.17347,0.07281
1570.11295,0.07133
1568.05244,0.06975
1565.99192,0.06859
1563.93141,0.06760
1561.87089,0.06668
1559.81037,0.06535
1557.74986,0.06354
1555.68934,0.06264
1553.62883,0.06201
1551.56831,0.06128
1549.50780,0.06059
1547.44728,0.05993
1545.38676,0.05920
1543.32625,0.05827
1541.26573,0.05736
1539.20522,0.05684
1537.14470,0.05651
1535.08419,0.05595
1533.02367,0.05523
1530.96315,0.05475
1528.90264,0.05449
1526.84212,0.05426
1524.78161,0.05390
1522.72109,0.05338
1520.66058,0.05308
1518.60006,0.05305
1516.53954,0.05272
1514.47903,0.05223
1512.41851,0.05198
1510.35800,0.05176
1508.29748,0.05141
1506.23697,0.05102
1504.17645,0.05087
1502.11593,0.05089
1500.05542,0.05079
1497.99490,0.05045
1495.93439,0.05014
1493.87387,0.05009
1491.81336,0.05015
1489.75284,0.05052
1487.69232,0.05137
1485.63181,0.05281
1483.57129,0.05478
1481.51078,0.05589
1479.45026,0.05502
1477.38975,0.05329
1475.32923,0.05211
1473.26871,0.05188
1471.20820,0.05274
1469.14768,0.05381
1467.08717,0.05437
1465.02665,0.05454
1462.96614,0.05442
1460.90562,0.05384
1458.84511,0.05274
1456.78459,0.05152
1454.72407,0.05101
1452.66356,0.05080
1450.60304,0.05035
1448.54253,0.04990
1446.48201,0.04969
1444.42150,0.04954
1442.36098,0.04936
1440.30046,0.04915
1438.23995,0.04888
1436.17943,0.04847
1434.11892,0.04796
1432.05840,0.04761
1429.99789,0.04754
1427.93737,0.04765
1425.87685,0.04764
1423.81634,0.04731
1421.75582,0.04685
1419.69531,0.04667
1417.63479,0.04691
1415.57428,0.04702
1413.51376,0.04679
1411.45324,0.04675
1409.39273,0.04718
1407.33221,0.04783
1405.27170,0.04826
1403.21118,0.04821
1401.15067,0.04782
1399.09015,0.04726
1397.02963,0.04673
1394.96912,0.04632
1392.90860,0.04610
1390.84809,0.04608
1388.78757,0.04601
1386.72706,0.04587
1384.66654,0.04587
1382.60602,0.04595
1380.54551,0.04602
1378.48499,0.04598
1376.42448,0.04582
1374.36396,0.04568
1372.30345,0.04559
1370.24293,0.04555
1368.18241,0.04568
1366.12190,0.04589
1364.06138,0.04590
1362.00087,0.04569
1359.94035,0.04550
1357.87984,0.04549
1355.81932,0.04551
1353.75881,0.04546
1351.69829,0.04547
1349.63777,0.04553
1347.57726,0.04554
1345.51674,0.04554
1343.45623,0.04552
1341.39571,0.04552
1339.33520,0.04562
1337.27468,0.04576
1335.21416,0.04574
1333.15365,0.04562
1331.09313,0.04545
1329.03262,0.04531
1326.97210,0.04531
1324.91159,0.04541
1322.85107,0.04545
1320.79055,0.04538
1318.73004,0.04540
1316.66952,0.04559
1314.60901,0.04565
1312.54849,0.04555
1310.48798,0.04551
1308.42746,0.04548
1306.36694,0.04535
1304.30643,0.04528
1302.24591,0.04541
1300.18540,0.04558
1298.12488,0.04558
1296.06437,0.04544
1294.00385,0.04537
1291.94333,0.04542
1289.88282,0.04557
1287.82230,0.04570
1285.76179,0.04567
1283.70127,0.04550
1281.64076,0.04546
1279.58024,0.04561
1277.51972,0.04567
1275.45921,0.04554
1273.39869,0.04545
1271.33818,0.04550
1269.27766,0.04557
1267.21715,0.04553
1265.15663,0.04540
1263.09612,0.04534
1261.03560,0.04521
1258.97508,0.04499
1256.91457,0.04510
1254.85405,0.04561
1252.79354,0.04616
1250.73302,0.04656
1248.67251,0.04695
1246.61199,0.04754
1244.55147,0.04841
1242.49096,0.04934
1240.43044,0.04980
1238.36993,0.04965
1236.30941,0.04921
1234.24890,0.04853
1232.18838,0.04781
1230.12786,0.04724
1228.06735,0.04668
1226.00683,0.04616
1223.94632,0.04588
1221.88580,0.04570
1219.82529,0.04557
1217.76477,0.04560
1215.70425,0.04558
1213.64374,0.04549
1211.58322,0.04555
1209.52271,0.04566
1207.46219,0.04552
1205.40168,0.04526
1203.34116,0.04529
1201.28064,0.04547
1199.22013,0.04553
1197.15961,0.04556
1195.09910,0.04559
1193.03858,0.04548
1190.97807,0.04540
1188.91755,0.04547
1186.85703,0.04544
1184.79652,0.04545
1182.73600,0.04557
1180.67549,0.04543
1178.61497,0.04512
1176.55446,0.04504
1174.49394,0.04524
1172.43342,0.04551
1170.37291,0.04558
1168.31239,0.04532
1166.25188,0.04503
1164.19136,0.04498
1162.13085,0.04508
1160.07033,0.04516
1158.00982,0.04520
1155.94930,0.04537
1153.88878,0.04561
1151.82827,0.04581
1149.76775,0.04599
1147.70724,0.04591
1145.64672,0.04550
1143.58621,0.04526
1141.52569,0.04545
1139.46517,0.04576
1137.40466,0.04595
1135.34414,0.04599
1133.28363,0.04577
1131.22311,0.04549
1129.16260,0.04547
1127.10208,0.04569
1125.04156,0.04588
1122.98105,0.04583
1120.92053,0.04572
1118.86002,0.04592
1116.79950,0.04631
1114.73899,0.04643
1112.67847,0.04625
1110.61795,0.04613
1108.55744,0.04621
1106.49692,0.04659
1104.43641,0.04701
1102.37589,0.04698
1100.31538,0.04682
1098.25486,0.04711
1096.19434,0.04748
1094.13383,0.04759
1092.07331,0.04776
1090.01280,0.04803
1087.95228,0.04822
1085.89177,0.04843
1083.83125,0.04875
1081.77073,0.04909
1079.71022,0.04939
1077.64970,0.04965
1075.58919,0.04979
1073.52867,0.04970
1071.46816,0.04948
1069.40764,0.04926
1067.34712,0.04906
1065.28661,0.04904
1063.22609,0.04914
1061.16558,0.04921
1059.10506,0.04922
1057.04455,0.04923
1054.98403,0.04935
1052.92352,0.04951
1050.86300,0.04926
1048.80248,0.04871
1046.74197,0.04861
1044.68145,0.04892
1042.62094,0.04932
1040.56042,0.04989
1038.49991,0.05051
1036.43939,0.05063
1034.37887,0.05034
1032.31836,0.05015
1030.25784,0.05008
1028.19733,0.05015
1026.13681,0.05044
1024.07630,0.05067
1022.01578,0.05086
1019.95526,0.05109
1017.89475,0.05121
1015.83423,0.05135
1013.77372,0.05175
1011.71320,0.05241
1009.65269,0.05301
1007.59217,0.05340
1005.53165,0.05373
1003.47114,0.05419
1001.41062,0.05457
999.35011,0.05477
997.28959,0.05516
995.22908,0.05572
993.16856,0.05617
991.10804,0.05668
989.04753,0.05729
986.98701,0.05771
984.92650,0.05797
982.86598,0.05819
980.80547,0.05850
978.74495,0.05904
976.68443,0.05959
974.62392,0.05997
972.56340,0.06039
970.50289,0.06107
968.44237,0.06202
966.38186,0.06312
964.32134,0.06428
962.26082,0.06564
960.20031,0.06743
958.13979,0.06970
956.07928,0.07239
954.01876,0.07517
951.95825,0.07738
949.89773,0.07852
947.83722,0.07856
945.77670,0.07785
943.71618,0.07676
941.65567,0.07579
939.59515,0.07543
937.53464,0.07583
935.47412,0.07657
933.41361,0.07706
931.35309,0.07736
929.29257,0.07794
927.23206,0.07909
925.17154,0.08078
923.11103,0.08246
921.05051,0.08353
918.99000,0.08438
916.92948,0.08562
914.86896,0.08716
912.80845,0.08867
910.74793,0.08990
908.68742,0.09089
906.62690,0.09219
904.56639,0.09413
902.50587,0.09608
900.44535,0.09760
898.38484,0.09914
896.32432,0.10115
894.26381,0.10332
892.20329,0.10513
890.14278,0.10649
888.08226,0.10782
886.02174,0.10959
883.96123,0.11156
881.90071,0.11333
879.84020,0.11520
877.77968,0.11744
875.71917,0.11999
873.65865,0.12245
871.59813,0.12430
869.53762,0.12564
867.47710,0.12704
865.41659,0.12920
863.35607,0.13188
861.29556,0.13427
859.23504,0.13660
857.17453,0.13942
855.11401,0.14204
853.05349,0.14413
850.99298,0.14654
848.93246,0.14912
846.87195,0.15114
844.81143,0.15316
842.75092,0.15582
840.69040,0.15864
838.62988,0.16113
836.56937,0.16335
834.50885,0.16552
832.44834,0.16786
830.38782,0.17045
828.32731,0.17303
826.26679,0.17527
824.20627,0.17733
822.14576,0.17972
820.08524,0.18274
818.02473,0.18582
815.96421,0.18857
813.90370,0.19131
811.84318,0.19385
809.78266,0.19595
807.72215,0.19790
805.66163,0.20015
803.60112,0.20279
801.54060,0.20562
799.48009,0.20856
797.41957,0.21149
795.35905,0.21422
793.29854,0.21671
791.23802,0.21932
789.17751,0.22223
787.11699,0.22475
785.05648,0.22683
782.99596,0.22954
780.93544,0.23325
778.87493,0.23696
776.81441,0.23977
774.75390,0.24205
772.69338,0.24467
770.63287,0.24789
768.57235,0.25107
766.51183,0.25375
764.45132,0.25639
762.39080,0.25964
760.33029,0.26352
758.26977,0.26738
756.20926,0.27080
754.14874,0.27332
752.08823,0.27485
750.02771,0.27689
747.96719,0.27997
745.90668,0.28290
743.84616,0.28556
741.78565,0.28848
739.72513,0.29105
737.66462,0.29289
735.60410,0.29478
733.54358,0.29715
731.48307,0.30002
729.42255,0.30323
727.36204,0.30616
725.30152,0.30886
723.24101,0.31179
721.18049,0.31458
719.11997,0.31689
717.05946,0.31967
714.99894,0.32351
712.93843,0.32727
710.87791,0.32992
708.81740,0.33172
706.75688,0.33362
704.69636,0.33661
702.63585,0.33973
700.57533,0.34165
698.51482,0.34387
696.45430,0.34713
694.39379,0.34972
692.33327,0.35202
690.27275,0.35520
688.21224,0.35786
686.15172,0.35950
684.09121,0.36200
682.03069,0.36568
679.97018,0.36891
677.90966,0.37163
675.84914,0.37457
673.78863,0.37685
671.72811,0.37835
669.66760,0.38098
667.60708,0.38580
665.54657,0.38926
663.48605,0.39123
661.42553,0.39312
659.36502,0.39482
657.30450,0.39757
655.24399,0.40228
653.18347,0.40667
651.12296,0.40881
649.06244,0.40921
647.00193,0.40995
644.94141,0.41264
642.88089,0.41598
640.82038,0.41816
638.75986,0.42028
636.69935,0.42397
634.63883,0.42870
632.57832,0.43192
630.51780,0.43263
628.45728,0.43382
626.39677,0.43570
624.33625,0.43628
622.27574,0.43760
620.21522,0.44058
618.15471,0.44320
616.09419,0.44498
614.03367,0.44722
611.97316,0.45007
609.91264,0.45240
607.85213,0.45327
605.79161,0.45393
603.73110,0.45701
601.67058,0.46137
599.61006,0.46404
597.54955,0.46614
595.48903,0.46920
593.42852,0.47158
591.36800,0.47296
589.30749,0.47387
587.24697,0.47424
585.18645,0.47563
583.12594,0.47690
581.06542,0.47626
579.00491,0.47681
576.94439,0.47996
574.88388,0.48413
572.82336,0.48818
570.76284,0.49081
568.70233,0.49232
566.64181,0.49481
564.58130,0.49786
562.52078,0.50010
560.46027,0.50243
558.39975,0.50370
556.33924,0.50277
554.27872,0.50081
552.21820,0.49825
550.15769,0.49852
548.09717,0.50410
546.03666,0.51000
543.97614,0.51346
541.91563,0.51580
539.85511,0.51718
537.79459,0.51911
535.73408,0.52061
533.67356,0.51996
531.61305,0.51853
529.55253,0.51676
527.49202,0.51501
525.43150,0.51706
523.37098,0.52286
521.31047,0.52736
519.24995,0.52954
517.18944,0.53137
515.12892,0.53509
513.06841,0.53854
511.00789,0.53886
508.94737,0.53757
506.88686,0.53645
504.82634,0.53807
502.76583,0.54304
500.70531,0.54583
498.64480,0.54402
496.58428,0.54420
494.52376,0.54693
492.46325,0.54787
490.40273,0.55017
488.34222,0.55307
486.28170,0.55278
484.22119,0.55368
482.16067,0.55453
480.10015,0.55036
478.03964,0.54754
475.97912,0.54968
473.91861,0.55053
471.85809,0.54956
469.79758,0.55330
467.73706,0.55929
465.67654,0.56167
463.61603,0.56457
461.55551,0.56775
459.49500,0.56745
457.43448,0.56808
455.37397,0.57232
453.31345,0.57509
451.25294,0.57279
449.19242,0.56978
447.13190,0.56779
445.07139,0.56506
443.01087,0.56236
440.95036,0.56226
438.88984,0.56748
436.82933,0.57341
434.76881,0.57280
432.70829,0.56617
430.64778,0.56026
428.58726,0.55925
426.52675,0.56094
424.46623,0.56283
422.40572,0.57070
420.34520,0.57894
418.28468,0.57295
416.22417,0.56350
414.16365,0.56242
412.10314,0.56933
410.04262,0.57878
407.98211,0.58194
405.92159,0.57860
403.86107,0.57106
401.80056,0.56263
399.74004,0.56327
