3997.40043,0.00318
3995.33991,0.00337
3993.27940,0.00337
3991.21888,0.00298
3989.15837,0.00237
3987.09785,0.00211
3985.03734,0.00253
3982.97682,0.00328
3980.91630,0.00383
3978.85579,0.00360
3976.79527,0.00267
3974.73476,0.00177
3972.67424,0.00139
3970.61373,0.00154
3968.55321,0.00195
3966.49269,0.00248
3964.43218,0.00303
3962.37166,0.00308
3960.31115,0.00268
3958.25063,0.00242
3956.19012,0.00242
3954.12960,0.00256
3952.06908,0.00254
3950.00857,0.00231
3947.94805,0.00228
3945.88754,0.00256
3943.82702,0.00291
3941.76651,0.00307
3939.70599,0.00325
3937.64547,0.00342
3935.58496,0.00307
3933.52444,0.00250
3931.46393,0.00225
3929.40341,0.00209
3927.34290,0.00173
3925.28238,0.00145
3923.22186,0.00160
3921.16135,0.00179
3919.10083,0.00190
3917.04032,0.00244
3914.97980,0.00291
3912.91929,0.00294
3910.85877,0.00275
3908.79825,0.00241
3906.73774,0.00242
3904.67722,0.00300
3902.61671,0.00302
3900.55619,0.00203
3898.49568,0.00159
3896.43516,0.00217
3894.37465,0.00263
3892.31413,0.00256
3890.25361,0.00237
3888.19310,0.00228
3886.13258,0.00229
3884.07207,0.00251
3882.01155,0.00265
3879.95104,0.00266
3877.89052,0.00294
3875.83000,0.00293
3873.76949,0.00228
3871.70897,0.00176
3869.64846,0.00201
3867.58794,0.00268
3865.52743,0.00314
3863.46691,0.00331
3861.40639,0.00333
3859.34588,0.00329
3857.28536,0.00319
3855.22485,0.00293
3853.16433,0.00253
3851.10382,0.00229
3849.04330,0.00220
3846.98278,0.00240
3844.92227,0.00294
3842.86175,0.00342
3840.80124,0.00357
3838.74072,0.00320
3836.68021,0.00253
3834.61969,0.00227
3832.55917,0.00238
3830.49866,0.00267
3828.43814,0.00305
3826.37763,0.00325
3824.31711,0.00310
3822.25660,0.00270
3820.19608,0.00255
3818.13556,0.00274
3816.07505,0.00306
3814.01453,0.00337
3811.95402,0.00344
3809.89350,0.00312
3807.83299,0.00257
3805.77247,0.00237
3803.71195,0.00262
3801.65144,0.00313
3799.59092,0.00348
3797.53041,0.00354
3795.46989,0.00365
3793.40938,0.00374
3791.34886,0.00378
3789.28835,0.00375
3787.22783,0.00365
3785.16731,0.00369
3783.10680,0.00385
3781.04628,0.00389
3778.98577,0.00386
3776.92525,0.00421
3774.86474,0.00472
3772.80422,0.00480
3770.74370,0.00454
3768.68319,0.00433
3766.62267,0.00397
3764.56216,0.00337
3762.50164,0.00331
3760.44113,0.00415
3758.38061,0.00510
3756.32009,0.00547
3754.25958,0.00540
3752.19906,0.00528
3750.13855,0.00539
3748.07803,0.00537
3746.01752,0.00521
3743.95700,0.00518
3741.89648,0.00533
3739.83597,0.00562
3737.77545,0.00587
3735.71494,0.00572
3733.65442,0.00551
3731.59391,0.00587
3729.53339,0.00628
3727.47287,0.00628
3725.41236,0.00614
3723.35184,0.00646
3721.29133,0.00704
3719.23081,0.00744
3717.17030,0.00762
3715.10978,0.00748
3713.04926,0.00716
3710.98875,0.00737
3708.92823,0.00819
3706.86772,0.00864
3704.80720,0.00885
3702.74669,0.00955
3700.68617,0.01071
3698.62565,0.01162
3696.56514,0.01184
3694.50462,0.01177
3692.44411,0.01203
3690.38359,0.01272
3688.32308,0.01391
3686.26256,0.01525
3684.20205,0.01651
3682.14153,0.01779
3680.08101,0.01898
3678.02050,0.02017
3675.95998,0.02131
3673.89947,0.02251
3671.83895,0.02399
3669.77844,0.02572
3667.71792,0.02732
3665.65740,0.02872
3663.59689,0.03039
3661.53637,0.03225
3659.47586,0.03401
3657.41534,0.03588
3655.35483,0.03774
3653.29431,0.03934
3651.23379,0.04137
3649.17328,0.04417
3647.11276,0.04646
3645.05225,0.04764
3642.99173,0.04862
3640.93122,0.04990
3638.87070,0.05148
3636.81018,0.05367
3634.74967,0.05605
3632.68915,0.05760
3630.62864,0.05860
3628.56812,0.05961
3626.50761,0.06060
3624.44709,0.06188
3622.38657,0.06352
3620.32606,0.06554
3618.26554,0.06783
3616.20503,0.06984
3614.14451,0.07168
3612.08400,0.07360
3610.02348,0.07529
3607.96296,0.07667
3605.90245,0.07825
3603.84193,0.08026
3601.78142,0.08197
3599.72090,0.08294
3597.66039,0.08426
3595.59987,0.08638
3593.53936,0.08850
3591.47884,0.09035
3589.41832,0.09200
3587.35781,0.09328
3585.29729,0.09489
3583.23678,0.09717
3581.17626,0.09917
3579.11575,0.10069
3577.05523,0.10220
3574.99471,0.10376
3572.93420,0.10563
3570.87368,0.10782
3568.81317,0.11020
3566.75265,0.11261
3564.69214,0.11448
3562.63162,0.11629
3560.57110,0.11822
3558.51059,0.11999
3556.45007,0.12195
3554.38956,0.12418
3552.32904,0.12667
3550.26853,0.12905
3548.20801,0.13104
3546.14749,0.13296
3544.08698,0.13473
3542.02646,0.13643
3539.96595,0.13851
3537.90543,0.14113
3535.84492,0.14399
3533.78440,0.14652
3531.72388,0.14843
3529.66337,0.15017
3527.60285,0.15236
3525.54234,0.15482
3523.48182,0.15713
3521.42131,0.15948
3519.36079,0.16193
3517.30027,0.16443
3515.23976,0.16688
3513.17924,0.16905
3511.11873,0.17103
3509.05821,0.17321
3506.99770,0.17558
3504.93718,0.17748
3502.87666,0.17897
3500.81615,0.18115
3498.75563,0.18397
3496.69512,0.18659
3494.63460,0.18947
3492.57409,0.19250
3490.51357,0.19464
3488.45306,0.19641
3486.39254,0.19851
3484.33202,0.20050
3482.27151,0.20241
3480.21099,0.20457
3478.15048,0.20705
3476.08996,0.20983
3474.02945,0.21249
3471.96893,0.21504
3469.90841,0.21754
3467.84790,0.21974
3465.78738,0.22206
3463.72687,0.22499
3461.66635,0.22804
3459.60584,0.23074
3457.54532,0.23328
3455.48480,0.23581
3453.42429,0.23824
3451.36377,0.24054
3449.30326,0.24237
3447.24274,0.24411
3445.18223,0.24696
3443.12171,0.25040
3441.06119,0.25343
3439.00068,0.25603
3436.94016,0.25798
3434.87965,0.25962
3432.81913,0.26169
3430.75862,0.26417
3428.69810,0.26696
3426.63758,0.26978
3424.57707,0.27175
3422.51655,0.27337
3420.45604,0.27609
3418.39552,0.27966
3416.33501,0.28254
3414.27449,0.28448
3412.21397,0.28620
3410.15346,0.28813
3408.09294,0.29034
3406.03243,0.29242
3403.97191,0.29404
3401.91140,0.29547
3399.85088,0.29703
3397.79036,0.29900
3395.72985,0.30096
3393.66933,0.30270
3391.60882,0.30482
3389.54830,0.30701
3387.48779,0.30900
3385.42727,0.31100
3383.36676,0.31309
3381.30624,0.31495
3379.24572,0.31594
3377.18521,0.31653
3375.12469,0.31737
3373.06418,0.31826
3371.00366,0.31891
3368.94315,0.31950
3366.88263,0.32052
3364.82211,0.32174
3362.76160,0.32264
3360.70108,0.32361
3358.64057,0.32486
3356.58005,0.32577
3354.51954,0.32631
3352.45902,0.32690
3350.39850,0.32759
3348.33799,0.32844
3346.27747,0.32941
3344.21696,0.33014
3342.15644,0.33074
3340.09593,0.33133
3338.03541,0.33149
3335.97489,0.33165
3333.91438,0.33228
3331.85386,0.33271
3329.79335,0.33275
3327.73283,0.33254
3325.67232,0.33185
3323.61180,0.33146
3321.55128,0.33222
3319.49077,0.33348
3317.43025,0.33421
3315.36974,0.33428
3313.30922,0.33425
3311.24871,0.33429
3309.18819,0.33418
3307.12767,0.33403
3305.06716,0.33417
3303.00664,0.33468
3300.94613,0.33510
3298.88561,0.33538
3296.82510,0.33558
3294.76458,0.33509
3292.70406,0.33417
3290.64355,0.33376
3288.58303,0.33429
3286.52252,0.33543
3284.46200,0.33632
3282.40149,0.33677
3280.34097,0.33719
3278.28046,0.33749
3276.21994,0.33735
3274.15942,0.33687
3272.09891,0.33662
3270.03839,0.33675
3267.97788,0.33718
3265.91736,0.33768
3263.85685,0.33789
3261.79633,0.33767
3259.73581,0.33695
3257.67530,0.33614
3255.61478,0.33559
3253.55427,0.33552
3251.49375,0.33634
3249.43324,0.33726
3247.37272,0.33695
3245.31220,0.33596
3243.25169,0.33554
3241.19117,0.33540
3239.13066,0.33478
3237.07014,0.33418
3235.00963,0.33386
3232.94911,0.33328
3230.88859,0.33251
3228.82808,0.33174
3226.76756,0.33081
3224.70705,0.32995
3222.64653,0.32933
3220.58602,0.32830
3218.52550,0.32666
3216.46498,0.32517
3214.40447,0.32395
3212.34395,0.32240
3210.28344,0.32035
3208.22292,0.31817
3206.16241,0.31659
3204.10189,0.31571
3202.04137,0.31434
3199.98086,0.31207
3197.92034,0.30994
3195.85983,0.30837
3193.79931,0.30667
3191.73880,0.30472
3189.67828,0.30280
3187.61777,0.30097
3185.55725,0.29907
3183.49673,0.29666
3181.43622,0.29391
3179.37570,0.29137
3177.31519,0.28890
3175.25467,0.28643
3173.19416,0.28402
3171.13364,0.28128
3169.07312,0.27869
3167.01261,0.27679
3164.95209,0.27480
3162.89158,0.27226
3160.83106,0.26935
3158.77055,0.26632
3156.71003,0.26365
3154.64951,0.26131
3152.58900,0.25895
3150.52848,0.25634
3148.46797,0.25352
3146.40745,0.25084
3144.34694,0.24815
3142.28642,0.24510
3140.22590,0.24232
3138.16539,0.24015
3136.10487,0.23794
3134.04436,0.23536
3131.98384,0.23272
3129.92333,0.23002
3127.86281,0.22696
3125.80229,0.22387
3123.74178,0.22121
3121.68126,0.21866
3119.62075,0.21598
3117.56023,0.21341
3115.49972,0.21108
3113.43920,0.20885
3111.37868,0.20681
3109.31817,0.20474
3107.25765,0.20228
3105.19714,0.19954
3103.13662,0.19645
3101.07611,0.19312
3099.01559,0.19037
3096.95507,0.18864
3094.89456,0.18708
3092.83404,0.18488
3090.77353,0.18222
3088.71301,0.17944
3086.65250,0.17665
3084.59198,0.17404
3082.53147,0.17169
3080.47095,0.16959
3078.41043,0.16784
3076.34992,0.16621
3074.28940,0.16426
3072.22889,0.16206
3070.16837,0.15983
3068.10786,0.15757
3066.04734,0.15523
3063.98682,0.15288
3061.92631,0.15068
3059.86579,0.14866
3057.80528,0.14678
3055.74476,0.14516
3053.68425,0.14367
3051.62373,0.14195
3049.56321,0.13988
3047.50270,0.13800
3045.44218,0.13658
3043.38167,0.13494
3041.32115,0.13289
3039.26064,0.13088
3037.20012,0.12913
3035.13960,0.12765
3033.07909,0.12629
3031.01857,0.12494
3028.95806,0.12359
3026.89754,0.12207
3024.83703,0.12035
3022.77651,0.11866
3020.71599,0.11708
3018.65548,0.11538
3016.59496,0.11354
3014.53445,0.11182
3012.47393,0.11011
3010.41342,0.10842
3008.35290,0.10705
3006.29238,0.10563
3004.23187,0.10402
3002.17135,0.10240
3000.11084,0.10080
2998.05032,0.09954
2995.98981,0.09829
2993.92929,0.09666
2991.86877,0.09519
2989.80826,0.09406
2987.74774,0.09289
2985.68723,0.09171
2983.62671,0.09050
2981.56620,0.08912
2979.50568,0.08810
2977.44517,0.08742
2975.38465,0.08643
2973.32413,0.08528
2971.26362,0.08435
2969.20310,0.08347
2967.14259,0.08253
2965.08207,0.08175
2963.02156,0.08084
2960.96104,0.07939
2958.90052,0.07765
2956.84001,0.07627
2954.77949,0.07528
2952.71898,0.07409
2950.65846,0.07274
2948.59795,0.07160
2946.53743,0.07071
2944.47691,0.06987
2942.41640,0.06893
2940.35588,0.06786
2938.29537,0.06660
2936.23485,0.06548
2934.17434,0.06464
2932.11382,0.06379
2930.05330,0.06285
2927.99279,0.06191
2925.93227,0.06098
2923.87176,0.06010
2921.81124,0.05938
2919.75073,0.05863
2917.69021,0.05773
2915.62969,0.05682
2913.56918,0.05590
2911.50866,0.05508
2909.44815,0.05445
2907.38763,0.05388
2905.32712,0.05318
2903.26660,0.05228
2901.20608,0.05133
2899.14557,0.05042
2897.08505,0.04951
2895.02454,0.04859
2892.96402,0.04785
2890.90351,0.04744
2888.84299,0.04697
2886.78247,0.04625
2884.72196,0.04567
2882.66144,0.04512
2880.60093,0.04434
2878.54041,0.04348
2876.47990,0.04271
2874.41938,0.04214
2872.35887,0.04165
2870.29835,0.04089
2868.23783,0.04000
2866.17732,0.03947
2864.11680,0.03922
2862.05629,0.03884
2859.99577,0.03837
2857.93526,0.03788
2855.87474,0.03718
2853.81422,0.03633
2851.75371,0.03566
2849.69319,0.03528
2847.63268,0.03508
2845.57216,0.03476
2843.51165,0.03410
2841.45113,0.03319
2839.39061,0.03248
2837.33010,0.03222
2835.26958,0.03191
2833.20907,0.03134
2831.14855,0.03090
2829.08804,0.03066
2827.02752,0.03032
2824.96700,0.02990
2822.90649,0.02962
2820.84597,0.02942
2818.78546,0.02885
2816.72494,0.02792
2814.66443,0.02725
2812.60391,0.02691
2810.54339,0.02680
2808.48288,0.02682
2806.42236,0.02663
2804.36185,0.02617
2802.30133,0.02567
2800.24082,0.02537
2798.18030,0.02506
2796.11978,0.02450
2794.05927,0.02416
2791.99875,0.02423
2789.93824,0.02408
2787.87772,0.02341
2785.81721,0.02276
2783.75669,0.02249
2781.69618,0.02237
2779.63566,0.02217
2777.57514,0.02192
2775.51463,0.02167
2773.45411,0.02134
2771.39360,0.02091
2769.33308,0.02056
2767.27257,0.02030
2765.21205,0.02015
2763.15153,0.02011
2761.09102,0.01987
2759.03050,0.01946
2756.96999,0.01912
2754.90947,0.01868
2752.84896,0.01830
2750.78844,0.01818
2748.72792,0.01806
2746.66741,0.01791
2744.60689,0.01787
2742.54638,0.01783
2740.48586,0.01758
2738.42535,0.01717
2736.36483,0.01692
2734.30431,0.01686
2732.24380,0.01667
2730.18328,0.01636
2728.12277,0.01621
2726.06225,0.01605
2724.00174,0.01588
2721.94122,0.01582
2719.88070,0.01569
2717.82019,0.01541
2715.75967,0.01519
2713.69916,0.01516
2711.63864,0.01522
2709.57813,0.01514
2707.51761,0.01487
2705.45709,0.01473
2703.39658,0.01484
2701.33606,0.01469
2699.27555,0.01421
2697.21503,0.01401
2695.15452,0.01408
2693.09400,0.01399
2691.03348,0.01368
2688.97297,0.01323
2686.91245,0.01278
2684.85194,0.01257
2682.79142,0.01272
2680.73091,0.01293
2678.67039,0.01296
2676.60988,0.01282
2674.54936,0.01255
2672.48884,0.01230
2670.42833,0.01221
2668.36781,0.01218
2666.30730,0.01218
2664.24678,0.01218
2662.18627,0.01187
2660.12575,0.01143
2658.06523,0.01128
2656.00472,0.01130
2653.94420,0.01133
2651.88369,0.01129
2649.82317,0.01106
2647.76266,0.01070
2645.70214,0.01062
2643.64162,0.01082
2641.58111,0.01087
2639.52059,0.01064
2637.46008,0.01033
2635.39956,0.01015
2633.33905,0.01023
2631.27853,0.01062
2629.21801,0.01080
2627.15750,0.01043
2625.09698,0.01013
2623.03647,0.01008
2620.97595,0.01008
2618.91544,0.01031
2616.85492,0.01045
2614.79440,0.01021
2612.73389,0.00990
2610.67337,0.00969
2608.61286,0.00960
2606.55234,0.00960
2604.49183,0.00943
2602.43131,0.00931
2600.37079,0.00952
2598.31028,0.00972
2596.24976,0.00979
2594.18925,0.00984
2592.12873,0.00981
2590.06822,0.00964
2588.00770,0.00926
2585.94718,0.00902
2583.88667,0.00919
2581.82615,0.00936
2579.76564,0.00925
2577.70512,0.00909
2575.64461,0.00904
2573.58409,0.00907
2571.52358,0.00913
2569.46306,0.00915
2567.40254,0.00901
2565.34203,0.00889
2563.28151,0.00895
2561.22100,0.00899
2559.16048,0.00897
2557.09997,0.00913
2555.03945,0.00935
2552.97893,0.00922
2550.91842,0.00897
2548.85790,0.00906
2546.79739,0.00942
2544.73687,0.00958
2542.67636,0.00938
2540.61584,0.00917
2538.55532,0.00926
2536.49481,0.00949
2534.43429,0.00947
2532.37378,0.00944
2530.31326,0.00956
2528.25275,0.00922
2526.19223,0.00855
2524.13171,0.00835
2522.07120,0.00867
2520.01068,0.00889
2517.95017,0.00909
2515.88965,0.00961
2513.82914,0.00975
2511.76862,0.00919
2509.70810,0.00874
2507.64759,0.00868
2505.58707,0.00895
2503.52656,0.00938
2501.46604,0.00942
2499.40553,0.00927
2497.34501,0.00934
2495.28449,0.00964
2493.22398,0.01015
2491.16346,0.01032
2489.10295,0.01006
2487.04243,0.01027
2484.98192,0.01098
2482.92140,0.01134
2480.86088,0.01086
2478.80037,0.00986
2476.73985,0.00929
2474.67934,0.00949
2472.61882,0.00981
2470.55831,0.00992
2468.49779,0.00986
2466.43728,0.00984
2464.37676,0.01000
2462.31624,0.01019
2460.25573,0.01017
2458.19521,0.00973
2456.13470,0.00949
2454.07418,0.00991
2452.01367,0.01050
2449.95315,0.01064
2447.89263,0.01036
2445.83212,0.01019
2443.77160,0.01025
2441.71109,0.01058
2439.65057,0.01103
2437.59006,0.01102
2435.52954,0.01068
2433.46902,0.01054
2431.40851,0.01041
2429.34799,0.01029
2427.28748,0.01066
2425.22696,0.01120
2423.16645,0.01142
2421.10593,0.01142
2419.04541,0.01116
2416.98490,0.01068
2414.92438,0.01064
2412.86387,0.01122
2410.80335,0.01176
2408.74284,0.01178
2406.68232,0.01166
2404.62180,0.01162
2402.56129,0.01175
2400.50077,0.01229
2398.44026,0.01276
2396.37974,0.01264
2394.31923,0.01234
2392.25871,0.01248
2390.19819,0.01287
2388.13768,0.01300
2386.07716,0.01271
2384.01665,0.01229
2381.95613,0.01227
2379.89562,0.01267
2377.83510,0.01297
2375.77459,0.01322
2373.71407,0.01381
2371.65355,0.01402
2369.59304,0.01342
2367.53252,0.01282
2365.47201,0.01264
2363.41149,0.01253
2361.35098,0.01278
2359.29046,0.01368
2357.22994,0.01368
2355.16943,0.01288
2353.10891,0.01294
2351.04840,0.01354
2348.98788,0.01400
2346.92737,0.01431
2344.86685,0.01441
2342.80633,0.01478
2340.74582,0.01537
2338.68530,0.01535
2336.62479,0.01497
2334.56427,0.01489
2332.50376,0.01494
2330.44324,0.01492
2328.38272,0.01501
2326.32221,0.01490
2324.26169,0.01440
2322.20118,0.01439
2320.14066,0.01535
2318.08015,0.01573
2316.01963,0.01494
2313.95911,0.01432
2311.89860,0.01479
2309.83808,0.01559
2307.77757,0.01566
2305.71705,0.01561
2303.65654,0.01589
2301.59602,0.01598
2299.53550,0.01603
2297.47499,0.01626
2295.41447,0.01618
2293.35396,0.01606
2291.29344,0.01644
2289.23293,0.01668
2287.17241,0.01659
2285.11189,0.01692
2283.05138,0.01732
2280.99086,0.01724
2278.93035,0.01735
2276.86983,0.01774
2274.80932,0.01749
2272.74880,0.01664
2270.68829,0.01639
2268.62777,0.01692
2266.56725,0.01772
2264.50674,0.01846
2262.44622,0.01879
2260.38571,0.01906
2258.32519,0.01959
2256.26468,0.02000
2254.20416,0.01960
2252.14364,0.01842
2250.08313,0.01760
2248.02261,0.01788
2245.96210,0.01874
2243.90158,0.01906
2241.84107,0.01899
2239.78055,0.01925
2237.72003,0.01953
2235.65952,0.01992
2233.59900,0.02038
2231.53849,0.02011
2229.47797,0.01944
2227.41746,0.01912
2225.35694,0.01958
2223.29642,0.02055
2221.23591,0.02089
2219.17539,0.02046
2217.11488,0.02008
2215.05436,0.01993
2212.99385,0.01956
2210.93333,0.02029
2208.87281,0.02237
2206.81230,0.02317
2204.75178,0.02303
2202.69127,0.02290
2200.63075,0.02224
2198.57024,0.02175
2196.50972,0.02169
2194.44920,0.02238
2192.38869,0.02339
2190.32817,0.02316
2188.26766,0.02258
2186.20714,0.02333
2184.14663,0.02451
2182.08611,0.02449
2180.02559,0.02366
2177.96508,0.02244
2175.90456,0.02120
2173.84405,0.02082
2171.78353,0.02135
2169.72302,0.02323
2167.66250,0.02492
2165.60199,0.02409
2163.54147,0.02182
2161.48095,0.02009
2159.42044,0.01980
2157.35992,0.01997
2155.29941,0.01976
2153.23889,0.01989
2151.17838,0.01987
2149.11786,0.02045
2147.05734,0.02265
2144.99683,0.02424
2142.93631,0.02408
2140.87580,0.02356
2138.81528,0.02344
2136.75477,0.02364
2134.69425,0.02377
2132.63373,0.02370
2130.57322,0.02336
2128.51270,0.02301
2126.45219,0.02295
2124.39167,0.02276
2122.33116,0.02264
2120.27064,0.02311
2118.21012,0.02332
2116.14961,0.02302
2114.08909,0.02310
2112.02858,0.02355
2109.96806,0.02372
2107.90755,0.02360
2105.84703,0.02347
2103.78651,0.02333
2101.72600,0.02322
2099.66548,0.02281
2097.60497,0.02184
2095.54445,0.02054
2093.48394,0.01960
2091.42342,0.01989
2089.36290,0.02090
2087.30239,0.02142
2085.24187,0.02126
2083.18136,0.02107
2081.12084,0.02088
2079.06033,0.02057
2076.99981,0.02057
2074.93930,0.02075
2072.87878,0.02092
2070.81826,0.02170
2068.75775,0.02253
2066.69723,0.02188
2064.63672,0.02016
2062.57620,0.01914
2060.51569,0.01904
2058.45517,0.01957
2056.39465,0.02033
2054.33414,0.01993
2052.27362,0.01888
2050.21311,0.01905
2048.15259,0.01978
2046.09208,0.01987
2044.03156,0.01931
2041.97104,0.01829
2039.91053,0.01796
2037.85001,0.01819
2035.78950,0.01768
2033.72898,0.01656
2031.66847,0.01513
2029.60795,0.01362
2027.54743,0.01328
2025.48692,0.01472
2023.42640,0.01595
2021.36589,0.01500
2019.30537,0.01310
2017.24486,0.01243
2015.18434,0.01339
2013.12382,0.01513
2011.06331,0.01628
2009.00279,0.01681
2006.94228,0.01751
2004.88176,0.01783
2002.82125,0.01786
2000.76073,0.01736
1998.70021,0.01623
1996.63970,0.01559
1994.57918,0.01541
1992.51867,0.01516
1990.45815,0.01514
1988.39764,0.01495
1986.33712,0.01384
1984.27660,0.01277
1982.21609,0.01301
1980.15557,0.01352
1978.09506,0.01262
1976.03454,0.01163
1973.97403,0.01273
1971.91351,0.01461
1969.85300,0.01481
1967.79248,0.01341
1965.73196,0.01194
1963.67145,0.01088
1961.61093,0.01091
1959.55042,0.01261
1957.48990,0.01404
1955.42939,0.01451
1953.36887,0.01523
1951.30835,0.01562
1949.24784,0.01567
1947.18732,0.01570
1945.12681,0.01515
1943.06629,0.01462
1941.00578,0.01468
1938.94526,0.01460
1936.88474,0.01419
1934.82423,0.01400
1932.76371,0.01418
1930.70320,0.01459
1928.64268,0.01476
1926.58217,0.01423
1924.52165,0.01326
1922.46113,0.01281
1920.40062,0.01302
1918.34010,0.01334
1916.27959,0.01328
1914.21907,0.01263
1912.15856,0.01222
1910.09804,0.01287
1908.03752,0.01363
1905.97701,0.01348
1903.91649,0.01319
1901.85598,0.01349
1899.79546,0.01413
1897.73495,0.01450
1895.67443,0.01423
1893.61391,0.01383
1891.55340,0.01378
1889.49288,0.01392
1887.43237,0.01391
1885.37185,0.01376
1883.31134,0.01371
1881.25082,0.01380
1879.19030,0.01391
1877.12979,0.01390
1875.06927,0.01383
1873.00876,0.01379
1870.94824,0.01377
1868.88773,0.01426
1866.82721,0.01496
1864.76670,0.01480
1862.70618,0.01412
1860.64566,0.01368
1858.58515,0.01379
1856.52463,0.01414
1854.46412,0.01417
1852.40360,0.01400
1850.34309,0.01417
1848.28257,0.01460
1846.22205,0.01478
1844.16154,0.01453
1842.10102,0.01427
1840.04051,0.01451
1837.97999,0.01508
1835.91948,0.01535
1833.85896,0.01526
1831.79844,0.01531
1829.73793,0.01545
1827.67741,0.01525
1825.61690,0.01499
1823.55638,0.01516
1821.49587,0.01571
1819.43535,0.01610
1817.37483,0.01607
1815.31432,0.01581
1813.25380,0.01560
1811.19329,0.01559
1809.13277,0.01589
1807.07226,0.01640
1805.01174,0.01693
1802.95122,0.01733
1800.89071,0.01746
1798.83019,0.01740
1796.76968,0.01772
1794.70916,0.01838
1792.64865,0.01877
1790.58813,0.01885
1788.52761,0.01887
1786.46710,0.01889
1784.40658,0.01912
1782.34607,0.01959
1780.28555,0.01988
1778.22504,0.01991
1776.16452,0.02018
1774.10400,0.02081
1772.04349,0.02126
1769.98297,0.02156
1767.92246,0.02218
1765.86194,0.02282
1763.80143,0.02319
1761.74091,0.02347
1759.68040,0.02386
1757.61988,0.02440
1755.55936,0.02509
1753.49885,0.02565
1751.43833,0.02602
1749.37782,0.02668
1747.31730,0.02776
1745.25679,0.02874
1743.19627,0.02953
1741.13575,0.03040
1739.07524,0.03150
1737.01472,0.03262
1734.95421,0.03362
1732.89369,0.03476
1730.83318,0.03606
1728.77266,0.03745
1726.71214,0.03887
1724.65163,0.04046
1722.59111,0.04204
1720.53060,0.04336
1718.47008,0.04494
1716.40957,0.04712
1714.34905,0.04919
1712.28853,0.05112
1710.22802,0.05327
1708.16750,0.05556
1706.10699,0.05825
1704.04647,0.06102
1701.98596,0.06328
1699.92544,0.06565
1697.86492,0.06836
1695.80441,0.07179
1693.74389,0.07569
1691.68338,0.07885
1689.62286,0.08189
1687.56235,0.08492
1685.50183,0.08826
1683.44131,0.09285
1681.38080,0.09691
1679.32028,0.10040
1677.25977,0.10417
1675.19925,0.10814
1673.13874,0.11175
1671.07822,0.11528
1669.01771,0.11965
1666.95719,0.12391
1664.89667,0.12726
1662.83616,0.13049
1660.77564,0.13402
1658.71513,0.13738
1656.65461,0.14011
1654.59410,0.14247
1652.53358,0.14587
1650.47306,0.14913
1648.41255,0.15139
1646.35203,0.15348
1644.29152,0.15515
1642.23100,0.15619
1640.17049,0.15670
1638.10997,0.15657
1636.04945,0.15573
1633.98894,0.15467
1631.92842,0.15381
1629.86791,0.15234
1627.80739,0.14968
1625.74688,0.14632
1623.68636,0.14251
1621.62584,0.13854
1619.56533,0.13495
1617.50481,0.13048
1615.44430,0.12536
1613.38378,0.12146
1611.32327,0.11774
1609.26275,0.11363
1607.20223,0.10954
1605.14172,0.10560
1603.08120,0.10179
1601.02069,0.09858
1598.96017,0.09593
1596.89966,0.09312
1594.83914,0.09010
1592.77862,0.08729
1590.71811,0.08471
1588.65759,0.08216
1586.59708,0.07986
1584.53656,0.07799
1582.47605,0.07644
1580.41553,0.07514
1578.35501,0.07389
1576.29450,0.07215
1574.23398,0.07041
1572.17347,0.06917
1570.11295,0.06774
1568.05244,0.06632
1565.99192,0.06540
1563.93141,0.06452
1561.87089,0.06340
1559.81037,0.06180
1557.74986,0.06053
1555.68934,0.06028
1553.62883,0.05975
1551.56831,0.05899
1549.50780,0.05844
1547.44728,0.05796
1545.38676,0.05717
1543.32625,0.05605
1541.26573,0.05509
1539.20522,0.05467
1537.14470,0.05464
1535.08419,0.05458
1533.02367,0.05436
1530.96315,0.05404
1528.90264,0.05365
1526.84212,0.05304
1524.78161,0.05224
1522.72109,0.05155
1520.66058,0.05148
1518.60006,0.05173
1516.53954,0.05158
1514.47903,0.05118
1512.41851,0.05088
1510.35800,0.05064
1508.29748,0.05036
1506.23697,0.05018
1504.17645,0.05037
1502.11593,0.05068
1500.05542,0.05083
1497.99490,0.05062
1495.93439,0.05034
1493.87387,0.05054
1491.81336,0.05117
1489.75284,0.05252
1487.69232,0.05570
1485.63181,0.06152
1483.57129,0.06879
1481.51078,0.07310
1479.45026,0.07103
1477.38975,0.06562
1475.32923,0.06185
1473.26871,0.06182
1471.20820,0.06483
1469.14768,0.06834
1467.08717,0.07093
1465.02665,0.07172
1462.96614,0.07047
1460.90562,0.06835
1458.84511,0.06576
1456.78459,0.06267
1454.72407,0.06072
1452.66356,0.06003
1450.60304,0.05931
1448.54253,0.05795
1446.48201,0.05651
1444.42150,0.05561
1442.36098,0.05489
1440.30046,0.05411
1438.23995,0.05325
1436.17943,0.05227
1434.11892,0.05144
1432.05840,0.05074
1429.99789,0.05008
1427.93737,0.04957
1425.87685,0.04919
1423.81634,0.04879
1421.75582,0.04837
1419.69531,0.04791
1417.63479,0.04772
1415.57428,0.04789
1413.51376,0.04810
1411.45324,0.04842
1409.39273,0.04923
1407.33221,0.05079
1405.27170,0.05254
1403.21118,0.05314
1401.15067,0.05221
1399.09015,0.05058
1397.02963,0.04901
1394.96912,0.04767
1392.90860,0.04675
1390.84809,0.04637
1388.78757,0.04620
1386.72706,0.04606
1384.66654,0.04601
1382.60602,0.04603
1380.54551,0.04611
1378.48499,0.04597
1376.42448,0.04549
1374.36396,0.04501
1372.30345,0.04496
1370.24293,0.04525
1368.18241,0.04552
1366.12190,0.04568
1364.06138,0.04577
1362.00087,0.04561
1359.94035,0.04520
1357.87984,0.04488
1355.81932,0.04490
1353.75881,0.04507
1351.69829,0.04500
1349.63777,0.04484
1347.57726,0.04479
1345.51674,0.04477
1343.45623,0.04484
1341.39571,0.04494
1339.33520,0.04503
1337.27468,0.04518
1335.21416,0.04525
1333.15365,0.04509
1331.09313,0.04485
1329.03262,0.04479
1326.97210,0.04492
1324.91159,0.04499
1322.85107,0.04495
1320.79055,0.04482
1318.73004,0.04468
1316.66952,0.04469
1314.60901,0.04474
1312.54849,0.04474
1310.48798,0.04469
1308.42746,0.04459
1306.36694,0.04457
1304.30643,0.04475
1302.24591,0.04493
1300.18540,0.04500
1298.12488,0.04494
1296.06437,0.04473
1294.00385,0.04457
1291.94333,0.04467
1289.88282,0.04474
1287.82230,0.04459
1285.76179,0.04441
1283.70127,0.04431
1281.64076,0.04432
1279.58024,0.04437
1277.51972,0.04444
1275.45921,0.04456
1273.39869,0.04461
1271.33818,0.04459
1269.27766,0.04478
1267.21715,0.04494
1265.15663,0.04476
1263.09612,0.04465
1261.03560,0.04473
1258.97508,0.04481
1256.91457,0.04517
1254.85405,0.04588
1252.79354,0.04667
1250.73302,0.04765
1248.67251,0.04925
1246.61199,0.05162
1244.55147,0.05474
1242.49096,0.05799
1240.43044,0.06014
1238.36993,0.06042
1236.30941,0.05887
1234.24890,0.05611
1232.18838,0.05328
1230.12786,0.05107
1228.06735,0.04930
1226.00683,0.04798
1223.94632,0.04735
1221.88580,0.04692
1219.82529,0.04642
1217.76477,0.04611
1215.70425,0.04599
1213.64374,0.04591
1211.58322,0.04586
1209.52271,0.04572
1207.46219,0.04541
1205.40168,0.04511
1203.34116,0.04506
1201.28064,0.04514
1199.22013,0.04517
1197.15961,0.04518
1195.09910,0.04511
1193.03858,0.04500
1190.97807,0.04499
1188.91755,0.04506
1186.85703,0.04506
1184.79652,0.04496
1182.73600,0.04480
1180.67549,0.04467
1178.61497,0.04460
1176.55446,0.04459
1174.49394,0.04461
1172.43342,0.04472
1170.37291,0.04500
1168.31239,0.04520
1166.25188,0.04505
1164.19136,0.04482
1162.13085,0.04475
1160.07033,0.04468
1158.00982,0.04459
1155.94930,0.04457
1153.88878,0.04449
1151.82827,0.04443
1149.76775,0.04445
1147.70724,0.04438
1145.64672,0.04428
1143.58621,0.04436
1141.52569,0.04450
1139.46517,0.04457
1137.40466,0.04478
1135.34414,0.04501
1133.28363,0.04503
1131.22311,0.04500
1129.16260,0.04509
1127.10208,0.04542
1125.04156,0.04609
1122.98105,0.04669
1120.92053,0.04669
1118.86002,0.04621
1116.79950,0.04581
1114.73899,0.04564
1112.67847,0.04558
1110.61795,0.04573
1108.55744,0.04602
1106.49692,0.04630
1104.43641,0.04643
1102.37589,0.04639
1100.31538,0.04637
1098.25486,0.04650
1096.19434,0.04663
1094.13383,0.04666
1092.07331,0.04686
1090.01280,0.04715
1087.95228,0.04730
1085.89177,0.04755
1083.83125,0.04783
1081.77073,0.04798
1079.71022,0.04817
1077.64970,0.04832
1075.58919,0.04832
1073.52867,0.04835
1071.46816,0.04840
1069.40764,0.04841
1067.34712,0.04830
1065.28661,0.04803
1063.22609,0.04773
1061.16558,0.04760
1059.10506,0.04778
1057.04455,0.04808
1054.98403,0.04816
1052.92352,0.04812
1050.86300,0.04809
1048.80248,0.04803
1046.74197,0.04824
1044.68145,0.04859
1042.62094,0.04867
1040.56042,0.04864
1038.49991,0.04868
1036.43939,0.04872
1034.37887,0.04886
1032.31836,0.04915
1030.25784,0.04956
1028.19733,0.05008
1026.13681,0.05047
1024.07630,0.05048
1022.01578,0.05043
1019.95526,0.05060
1017.89475,0.05071
1015.83423,0.05078
1013.77372,0.05111
1011.71320,0.05161
1009.65269,0.05224
1007.59217,0.05287
1005.53165,0.05322
1003.47114,0.05344
1001.41062,0.05375
999.35011,0.05420
997.28959,0.05477
995.22908,0.05541
993.16856,0.05596
991.10804,0.05649
989.04753,0.05716
986.98701,0.05770
984.92650,0.05799
982.86598,0.05837
980.80547,0.05920
978.74495,0.06037
976.68443,0.06132
974.62392,0.06184
972.56340,0.06234
970.50289,0.06333
968.44237,0.06486
966.38186,0.06664
964.32134,0.06894
962.26082,0.07217
960.20031,0.07642
958.13979,0.08223
956.07928,0.08983
954.01876,0.09773
951.95825,0.10369
949.89773,0.10643
947.83722,0.10563
945.77670,0.10160
943.71618,0.09599
941.65567,0.09072
939.59515,0.08678
937.53464,0.08455
935.47412,0.08367
933.41361,0.08322
931.35309,0.08296
929.29257,0.08309
927.23206,0.08358
925.17154,0.08442
923.11103,0.08550
921.05051,0.08654
918.99000,0.08766
916.92948,0.08926
914.86896,0.09114
912.80845,0.09271
910.74793,0.09385
908.68742,0.09503
906.62690,0.09671
904.56639,0.09847
902.50587,0.09987
900.44535,0.10113
898.38484,0.10280
896.32432,0.10485
894.26381,0.10685
892.20329,0.10890
890.14278,0.11101
888.08226,0.11293
886.02174,0.11487
883.96123,0.11693
881.90071,0.11896
879.84020,0.12118
877.77968,0.12375
875.71917,0.12607
873.65865,0.12779
871.59813,0.12954
869.53762,0.13155
867.47710,0.13357
865.41659,0.13599
863.35607,0.13877
861.29556,0.14113
859.23504,0.14335
857.17453,0.14584
855.11401,0.14811
853.05349,0.15037
850.99298,0.15318
848.93246,0.15617
846.87195,0.15824
844.81143,0.15964
842.75092,0.16187
840.69040,0.16470
838.62988,0.16702
836.56937,0.16937
834.50885,0.17248
832.44834,0.17580
830.38782,0.17855
828.32731,0.18077
826.26679,0.18304
824.20627,0.18547
822.14576,0.18789
820.08524,0.19054
818.02473,0.19394
815.96421,0.19748
813.90370,0.20000
811.84318,0.20196
809.78266,0.20408
807.72215,0.20634
805.66163,0.20914
803.60112,0.21255
801.54060,0.21538
799.48009,0.21742
797.41957,0.22020
795.35905,0.22355
793.29854,0.22610
791.23802,0.22841
789.17751,0.23129
787.11699,0.23438
785.05648,0.23764
782.99596,0.24097
780.93544,0.24411
778.87493,0.24724
776.81441,0.25018
774.75390,0.25278
772.69338,0.25564
770.63287,0.25943
768.57235,0.26348
766.51183,0.26705
764.45132,0.27052
762.39080,0.27502
760.33029,0.28123
758.26977,0.28707
756.20926,0.29078
754.14874,0.29340
752.08823,0.29527
750.02771,0.29621
747.96719,0.29686
745.90668,0.29757
743.84616,0.29882
741.78565,0.30124
739.72513,0.30409
737.66462,0.30636
735.60410,0.30877
733.54358,0.31206
731.48307,0.31478
729.42255,0.31633
727.36204,0.31853
725.30152,0.32175
723.24101,0.32420
721.18049,0.32621
719.11997,0.32952
717.05946,0.33334
714.99894,0.33635
712.93843,0.33880
710.87791,0.34115
708.81740,0.34364
706.75688,0.34674
704.69636,0.35023
702.63585,0.35284
700.57533,0.35455
698.51482,0.35606
696.45430,0.35788
694.39379,0.36044
692.33327,0.36313
690.27275,0.36608
688.21224,0.36988
686.15172,0.37306
684.09121,0.37518
682.03069,0.37733
679.97018,0.37941
677.90966,0.38166
675.84914,0.38418
673.78863,0.38642
671.72811,0.38858
669.66760,0.39135
667.60708,0.39449
665.54657,0.39622
663.48605,0.39824
661.42553,0.40125
659.36502,0.40387
657.30450,0.40626
655.24399,0.40909
653.18347,0.41126
651.12296,0.41254
649.06244,0.41456
647.00193,0.41710
644.94141,0.41922
642.88089,0.42103
640.82038,0.42183
638.75986,0.42230
636.69935,0.42405
634.63883,0.42671
632.57832,0.42933
630.51780,0.43155
628.45728,0.43402
626.39677,0.43667
624.33625,0.43817
622.27574,0.43875
620.21522,0.43995
618.15471,0.44253
616.09419,0.44484
614.03367,0.44523
611.97316,0.44574
609.91264,0.44934
607.85213,0.45329
605.79161,0.45451
603.73110,0.45541
601.67058,0.45721
599.61006,0.45878
597.54955,0.46041
595.48903,0.46272
593.42852,0.46502
591.36800,0.46689
589.30749,0.46830
587.24697,0.46996
585.18645,0.47158
583.12594,0.47063
581.06542,0.46922
579.00491,0.47048
576.94439,0.47304
574.88388,0.47639
572.82336,0.47997
570.76284,0.48120
568.70233,0.48007
566.64181,0.47956
564.58130,0.48055
562.52078,0.48211
560.46027,0.48437
558.39975,0.48549
556.33924,0.48506
554.27872,0.48592
552.21820,0.48681
550.15769,0.48632
548.09717,0.48667
546.03666,0.48919
543.97614,0.49262
541.91563,0.49461
539.85511,0.49513
537.79459,0.49552
535.73408,0.49561
533.67356,0.49599
531.61305,0.49740
529.55253,0.49854
527.49202,0.49953
525.43150,0.50118
523.37098,0.50440
521.31047,0.50859
519.24995,0.51114
517.18944,0.51294
515.12892,0.51564
513.06841,0.51817
511.00789,0.52010
508.94737,0.52308
506.88686,0.52865
504.82634,0.53612
502.76583,0.54274
500.70531,0.54533
498.64480,0.54450
496.58428,0.54291
494.52376,0.54109
492.46325,0.53893
490.40273,0.53781
488.34222,0.53752
486.28170,0.53761
484.22119,0.53709
482.16067,0.53256
480.10015,0.52653
478.03964,0.52462
475.97912,0.52561
473.91861,0.52779
471.85809,0.53276
469.79758,0.54201
467.73706,0.55473
465.67654,0.56351
463.61603,0.56652
461.55551,0.56709
459.49500,0.56454
457.43448,0.56490
455.37397,0.56565
453.31345,0.55835
451.25294,0.55151
449.19242,0.55121
447.13190,0.55024
445.07139,0.54500
443.01087,0.53927
440.95036,0.53574
438.88984,0.53441
436.82933,0.53382
434.76881,0.53375
432.70829,0.53189
430.64778,0.52801
428.58726,0.53024
426.52675,0.53591
424.46623,0.53727
422.40572,0.53922
420.34520,0.54137
418.28468,0.54058
416.22417,0.53898
414.16365,0.53278
412.10314,0.52680
410.04262,0.53042
407.98211,0.53404
405.92159,0.52798
403.86107,0.52278
401.80056,0.52774
399.74004,0.54107
