3997.40043,0.00319
3995.33991,0.00388
3993.27940,0.00411
3991.21888,0.00363
3989.15837,0.00286
3987.09785,0.00234
3985.03734,0.00241
3982.97682,0.00291
3980.91630,0.00330
3978.85579,0.00319
3976.79527,0.00272
3974.73476,0.00220
3972.67424,0.00198
3970.61373,0.00215
3968.55321,0.00215
3966.49269,0.00184
3964.43218,0.00189
3962.37166,0.00234
3960.31115,0.00245
3958.25063,0.00220
3956.19012,0.00206
3954.12960,0.00211
3952.06908,0.00218
3950.00857,0.00211
3947.94805,0.00187
3945.88754,0.00199
3943.82702,0.00255
3941.76651,0.00274
3939.70599,0.00271
3937.64547,0.00294
3935.58496,0.00294
3933.52444,0.00263
3931.46393,0.00250
3929.40341,0.00238
3927.34290,0.00184
3925.28238,0.00139
3923.22186,0.00162
3921.16135,0.00192
3919.10083,0.00191
3917.04032,0.00208
3914.97980,0.00241
3912.91929,0.00265
3910.85877,0.00281
3908.79825,0.00270
3906.73774,0.00256
3904.67722,0.00264
3902.61671,0.00273
3900.55619,0.00260
3898.49568,0.00236
3896.43516,0.00250
3894.37465,0.00290
3892.31413,0.00291
3890.25361,0.00253
3888.19310,0.00223
3886.13258,0.00186
3884.07207,0.00196
3882.01155,0.00264
3879.95104,0.00280
3877.89052,0.00247
3875.83000,0.00214
3873.76949,0.00183
3871.70897,0.00187
3869.64846,0.00233
3867.58794,0.00274
3865.52743,0.00292
3863.46691,0.00301
3861.40639,0.00302
3859.34588,0.00309
3857.28536,0.00330
3855.22485,0.00324
3853.16433,0.00231
3851.10382,0.00165
3849.04330,0.00186
3846.98278,0.00228
3844.92227,0.00286
3842.86175,0.00352
3840.80124,0.00372
3838.74072,0.00345
3836.68021,0.00308
3834.61969,0.00292
3832.55917,0.00280
3830.49866,0.00268
3828.43814,0.00271
3826.37763,0.00270
3824.31711,0.00278
3822.25660,0.00274
3820.19608,0.00209
3818.13556,0.00155
3816.07505,0.00178
3814.01453,0.00222
3811.95402,0.00233
3809.89350,0.00225
3807.83299,0.00199
3805.77247,0.00192
3803.71195,0.00220
3801.65144,0.00258
3799.59092,0.00307
3797.53041,0.00340
3795.46989,0.00331
3793.40938,0.00291
3791.34886,0.00268
3789.28835,0.00274
3787.22783,0.00296
3785.16731,0.00320
3783.10680,0.00317
3781.04628,0.00271
3778.98577,0.00230
3776.92525,0.00263
3774.86474,0.00322
3772.80422,0.00327
3770.74370,0.00298
3768.68319,0.00321
3766.62267,0.00352
3764.56216,0.00325
3762.50164,0.00281
3760.44113,0.00278
3758.38061,0.00325
3756.32009,0.00379
3754.25958,0.00387
3752.19906,0.00337
3750.13855,0.00292
3748.07803,0.00294
3746.01752,0.00311
3743.95700,0.00338
3741.89648,0.00365
3739.83597,0.00400
3737.77545,0.00458
3735.71494,0.00469
3733.65442,0.00425
3731.59391,0.00421
3729.53339,0.00421
3727.47287,0.00409
3725.41236,0.00385
3723.35184,0.00350
3721.29133,0.00360
3719.23081,0.00410
3717.17030,0.00450
3715.10978,0.00479
3713.04926,0.00490
3710.98875,0.00482
3708.92823,0.00503
3706.86772,0.00551
3704.80720,0.00597
3702.74669,0.00622
3700.68617,0.00644
3698.62565,0.00680
3696.56514,0.00689
3694.50462,0.00663
3692.44411,0.00673
3690.38359,0.00730
3688.32308,0.00825
3686.26256,0.00948
3684.20205,0.01014
3682.14153,0.01026
3680.08101,0.01016
3678.02050,0.01023
3675.95998,0.01103
3673.89947,0.01199
3671.83895,0.01271
3669.77844,0.01369
3667.71792,0.01431
3665.65740,0.01453
3663.59689,0.01531
3661.53637,0.01656
3659.47586,0.01775
3657.41534,0.01889
3655.35483,0.01979
3653.29431,0.02036
3651.23379,0.02137
3649.17328,0.02342
3647.11276,0.02568
3645.05225,0.02695
3642.99173,0.02751
3640.93122,0.02798
3638.87070,0.02857
3636.81018,0.02972
3634.74967,0.03132
3632.68915,0.03263
3630.62864,0.03369
3628.56812,0.03471
3626.50761,0.03564
3624.44709,0.03676
3622.38657,0.03805
3620.32606,0.03941
3618.26554,0.04097
3616.20503,0.04246
3614.14451,0.04383
3612.08400,0.04529
3610.02348,0.04629
3607.96296,0.04739
3605.90245,0.04937
3603.84193,0.05136
3601.78142,0.05298
3599.72090,0.05423
3597.66039,0.05535
3595.59987,0.05694
3593.53936,0.05872
3591.47884,0.06024
3589.41832,0.06167
3587.35781,0.06312
3585.29729,0.06448
3583.23678,0.06595
3581.17626,0.06764
3579.11575,0.06929
3577.05523,0.07090
3574.99471,0.07289
3572.93420,0.07526
3570.87368,0.07723
3568.81317,0.07899
3566.75265,0.08146
3564.69214,0.08364
3562.63162,0.08514
3560.57110,0.08676
3558.51059,0.08860
3556.45007,0.09044
3554.38956,0.09207
3552.32904,0.09386
3550.26853,0.09594
3548.20801,0.09777
3546.14749,0.09963
3544.08698,0.10205
3542.02646,0.10446
3539.96595,0.10631
3537.90543,0.10800
3535.84492,0.11017
3533.78440,0.11260
3531.72388,0.11453
3529.66337,0.11613
3527.60285,0.11832
3525.54234,0.12090
3523.48182,0.12313
3521.42131,0.12517
3519.36079,0.12717
3517.30027,0.12910
3515.23976,0.13108
3513.17924,0.13287
3511.11873,0.13421
3509.05821,0.13581
3506.99770,0.13821
3504.93718,0.14043
3502.87666,0.14184
3500.81615,0.14313
3498.75563,0.14464
3496.69512,0.14618
3494.63460,0.14797
3492.57409,0.14995
3490.51357,0.15184
3488.45306,0.15366
3486.39254,0.15523
3484.33202,0.15679
3482.27151,0.15872
3480.21099,0.16069
3478.15048,0.16251
3476.08996,0.16421
3474.02945,0.16567
3471.96893,0.16720
3469.90841,0.16895
3467.84790,0.17077
3465.78738,0.17276
3463.72687,0.17474
3461.66635,0.17652
3459.60584,0.17812
3457.54532,0.17954
3455.48480,0.18116
3453.42429,0.18283
3451.36377,0.18424
3449.30326,0.18565
3447.24274,0.18693
3445.18223,0.18839
3443.12171,0.19058
3441.06119,0.19296
3439.00068,0.19486
3436.94016,0.19641
3434.87965,0.19783
3432.81913,0.19915
3430.75862,0.20050
3428.69810,0.20190
3426.63758,0.20341
3424.57707,0.20507
3422.51655,0.20658
3420.45604,0.20793
3418.39552,0.20965
3416.33501,0.21127
3414.27449,0.21222
3412.21397,0.21326
3410.15346,0.21467
3408.09294,0.21598
3406.03243,0.21706
3403.97191,0.21817
3401.91140,0.21963
3399.85088,0.22127
3397.79036,0.22267
3395.72985,0.22346
3393.66933,0.22376
3391.60882,0.22447
3389.54830,0.22563
3387.48779,0.22673
3385.42727,0.22767
3383.36676,0.22849
3381.30624,0.22912
3379.24572,0.22957
3377.18521,0.22996
3375.12469,0.23065
3373.06418,0.23156
3371.00366,0.23180
3368.94315,0.23150
3366.88263,0.23138
3364.82211,0.23132
3362.76160,0.23153
3360.70108,0.23229
3358.64057,0.23316
3356.58005,0.23351
3354.51954,0.23320
3352.45902,0.23251
3350.39850,0.23176
3348.33799,0.23177
3346.27747,0.23253
3344.21696,0.23299
3342.15644,0.23331
3340.09593,0.23381
3338.03541,0.23369
3335.97489,0.23315
3333.91438,0.23304
3331.85386,0.23301
3329.79335,0.23282
3327.73283,0.23292
3325.67232,0.23321
3323.61180,0.23320
3321.55128,0.23306
3319.49077,0.23308
3317.43025,0.23318
3315.36974,0.23340
3313.30922,0.23359
3311.24871,0.23334
3309.18819,0.23257
3307.12767,0.23221
3305.06716,0.23257
3303.00664,0.23309
3300.94613,0.23338
3298.88561,0.23332
3296.82510,0.23333
3294.76458,0.23332
3292.70406,0.23314
3290.64355,0.23321
3288.58303,0.23325
3286.52252,0.23313
3284.46200,0.23351
3282.40149,0.23423
3280.34097,0.23467
3278.28046,0.23481
3276.21994,0.23470
3274.15942,0.23452
3272.09891,0.23452
3270.03839,0.23490
3267.97788,0.23532
3265.91736,0.23512
3263.85685,0.23451
3261.79633,0.23406
3259.73581,0.23383
3257.67530,0.23381
3255.61478,0.23379
3253.55427,0.23372
3251.49375,0.23401
3249.43324,0.23429
3247.37272,0.23385
3245.31220,0.23322
3243.25169,0.23277
3241.19117,0.23204
3239.13066,0.23149
3237.07014,0.23161
3235.00963,0.23150
3232.94911,0.23083
3230.88859,0.23045
3228.82808,0.23028
3226.76756,0.22942
3224.70705,0.22829
3222.64653,0.22763
3220.58602,0.22709
3218.52550,0.22638
3216.46498,0.22558
3214.40447,0.22472
3212.34395,0.22397
3210.28344,0.22314
3208.22292,0.22209
3206.16241,0.22109
3204.10189,0.22029
3202.04137,0.21968
3199.98086,0.21903
3197.92034,0.21806
3195.85983,0.21707
3193.79931,0.21614
3191.73880,0.21477
3189.67828,0.21331
3187.61777,0.21222
3185.55725,0.21119
3183.49673,0.21021
3181.43622,0.20918
3179.37570,0.20805
3177.31519,0.20730
3175.25467,0.20656
3173.19416,0.20509
3171.13364,0.20340
3169.07312,0.20240
3167.01261,0.20174
3164.95209,0.20055
3162.89158,0.19916
3160.83106,0.19784
3158.77055,0.19610
3156.71003,0.19438
3154.64951,0.19310
3152.58900,0.19219
3150.52848,0.19165
3148.46797,0.19080
3146.40745,0.18945
3144.34694,0.18818
3142.28642,0.18710
3140.22590,0.18586
3138.16539,0.18442
3136.10487,0.18320
3134.04436,0.18222
3131.98384,0.18119
3129.92333,0.18004
3127.86281,0.17868
3125.80229,0.17745
3123.74178,0.17633
3121.68126,0.17482
3119.62075,0.17312
3117.56023,0.17169
3115.49972,0.17064
3113.43920,0.16976
3111.37868,0.16876
3109.31817,0.16770
3107.25765,0.16646
3105.19714,0.16509
3103.13662,0.16391
3101.07611,0.16287
3099.01559,0.16181
3096.95507,0.16081
3094.89456,0.15968
3092.83404,0.15834
3090.77353,0.15721
3088.71301,0.15624
3086.65250,0.15508
3084.59198,0.15374
3082.53147,0.15229
3080.47095,0.15084
3078.41043,0.14993
3076.34992,0.14952
3074.28940,0.14869
3072.22889,0.14726
3070.16837,0.14585
3068.10786,0.14473
3066.04734,0.14368
3063.98682,0.14257
3061.92631,0.14146
3059.86579,0.14047
3057.80528,0.13942
3055.74476,0.13809
3053.68425,0.13694
3051.62373,0.13630
3049.56321,0.13582
3047.50270,0.13508
3045.44218,0.13429
3043.38167,0.13397
3041.32115,0.13371
3039.26064,0.13274
3037.20012,0.13135
3035.13960,0.13019
3033.07909,0.12939
3031.01857,0.12872
3028.95806,0.12813
3026.89754,0.12763
3024.83703,0.12691
3022.77651,0.12576
3020.71599,0.12437
3018.65548,0.12274
3016.59496,0.12094
3014.53445,0.11946
3012.47393,0.11836
3010.41342,0.11733
3008.35290,0.11611
3006.29238,0.11461
3004.23187,0.11327
3002.17135,0.11234
3000.11084,0.11141
2998.05032,0.11038
2995.98981,0.10941
2993.92929,0.10845
2991.86877,0.10756
2989.80826,0.10699
2987.74774,0.10662
2985.68723,0.10616
2983.62671,0.10542
2981.56620,0.10474
2979.50568,0.10477
2977.44517,0.10528
2975.38465,0.10579
2973.32413,0.10634
2971.26362,0.10701
2969.20310,0.10790
2967.14259,0.10870
2965.08207,0.10933
2963.02156,0.11010
2960.96104,0.11086
2958.90052,0.11120
2956.84001,0.11109
2954.77949,0.11070
2952.71898,0.11003
2950.65846,0.10927
2948.59795,0.10876
2946.53743,0.10847
2944.47691,0.10792
2942.41640,0.10699
2940.35588,0.10609
2938.29537,0.10553
2936.23485,0.10530
2934.17434,0.10530
2932.11382,0.10548
2930.05330,0.10553
2927.99279,0.10529
2925.93227,0.10509
2923.87176,0.10512
2921.81124,0.10513
2919.75073,0.10489
2917.69021,0.10460
2915.62969,0.10438
2913.56918,0.10406
2911.50866,0.10365
2909.44815,0.10306
2907.38763,0.10220
2905.32712,0.10138
2903.26660,0.10068
2901.20608,0.09979
2899.14557,0.09892
2897.08505,0.09824
2895.02454,0.09746
2892.96402,0.09676
2890.90351,0.09643
2888.84299,0.09612
2886.78247,0.09582
2884.72196,0.09611
2882.66144,0.09656
2880.60093,0.09656
2878.54041,0.09618
2876.47990,0.09539
2874.41938,0.09433
2872.35887,0.09315
2870.29835,0.09169
2868.23783,0.08998
2866.17732,0.08811
2864.11680,0.08602
2862.05629,0.08374
2859.99577,0.08152
2857.93526,0.07945
2855.87474,0.07728
2853.81422,0.07494
2851.75371,0.07271
2849.69319,0.07082
2847.63268,0.06920
2845.57216,0.06748
2843.51165,0.06558
2841.45113,0.06389
2839.39061,0.06264
2837.33010,0.06176
2835.26958,0.06089
2833.20907,0.05970
2831.14855,0.05844
2829.08804,0.05759
2827.02752,0.05700
2824.96700,0.05638
2822.90649,0.05573
2820.84597,0.05492
2818.78546,0.05373
2816.72494,0.05261
2814.66443,0.05181
2812.60391,0.05101
2810.54339,0.05033
2808.48288,0.04962
2806.42236,0.04875
2804.36185,0.04797
2802.30133,0.04724
2800.24082,0.04664
2798.18030,0.04617
2796.11978,0.04537
2794.05927,0.04454
2791.99875,0.04405
2789.93824,0.04339
2787.87772,0.04246
2785.81721,0.04168
2783.75669,0.04111
2781.69618,0.04075
2779.63566,0.04047
2777.57514,0.03997
2775.51463,0.03912
2773.45411,0.03826
2771.39360,0.03777
2769.33308,0.03735
2767.27257,0.03680
2765.21205,0.03638
2763.15153,0.03609
2761.09102,0.03571
2759.03050,0.03538
2756.96999,0.03494
2754.90947,0.03427
2752.84896,0.03384
2750.78844,0.03371
2748.72792,0.03338
2746.66741,0.03293
2744.60689,0.03265
2742.54638,0.03238
2740.48586,0.03205
2738.42535,0.03166
2736.36483,0.03123
2734.30431,0.03084
2732.24380,0.03032
2730.18328,0.02984
2728.12277,0.02966
2726.06225,0.02947
2724.00174,0.02921
2721.94122,0.02892
2719.88070,0.02845
2717.82019,0.02793
2715.75967,0.02762
2713.69916,0.02750
2711.63864,0.02742
2709.57813,0.02726
2707.51761,0.02687
2705.45709,0.02623
2703.39658,0.02574
2701.33606,0.02548
2699.27555,0.02512
2697.21503,0.02484
2695.15452,0.02476
2693.09400,0.02448
2691.03348,0.02388
2688.97297,0.02342
2686.91245,0.02323
2684.85194,0.02290
2682.79142,0.02245
2680.73091,0.02226
2678.67039,0.02223
2676.60988,0.02205
2674.54936,0.02173
2672.48884,0.02150
2670.42833,0.02138
2668.36781,0.02116
2666.30730,0.02073
2664.24678,0.02029
2662.18627,0.01998
2660.12575,0.01971
2658.06523,0.01942
2656.00472,0.01914
2653.94420,0.01900
2651.88369,0.01918
2649.82317,0.01927
2647.76266,0.01879
2645.70214,0.01808
2643.64162,0.01783
2641.58111,0.01796
2639.52059,0.01782
2637.46008,0.01742
2635.39956,0.01701
2633.33905,0.01662
2631.27853,0.01644
2629.21801,0.01642
2627.15750,0.01631
2625.09698,0.01621
2623.03647,0.01616
2620.97595,0.01602
2618.91544,0.01604
2616.85492,0.01604
2614.79440,0.01568
2612.73389,0.01525
2610.67337,0.01489
2608.61286,0.01471
2606.55234,0.01478
2604.49183,0.01472
2602.43131,0.01469
2600.37079,0.01497
2598.31028,0.01529
2596.24976,0.01541
2594.18925,0.01525
2592.12873,0.01475
2590.06822,0.01419
2588.00770,0.01402
2585.94718,0.01410
2583.88667,0.01415
2581.82615,0.01434
2579.76564,0.01474
2577.70512,0.01492
2575.64461,0.01458
2573.58409,0.01433
2571.52358,0.01440
2569.46306,0.01425
2567.40254,0.01401
2565.34203,0.01399
2563.28151,0.01390
2561.22100,0.01379
2559.16048,0.01396
2557.09997,0.01409
2555.03945,0.01375
2552.97893,0.01321
2550.91842,0.01289
2548.85790,0.01284
2546.79739,0.01322
2544.73687,0.01378
2542.67636,0.01393
2540.61584,0.01376
2538.55532,0.01358
2536.49481,0.01351
2534.43429,0.01373
2532.37378,0.01404
2530.31326,0.01385
2528.25275,0.01307
2526.19223,0.01230
2524.13171,0.01237
2522.07120,0.01317
2520.01068,0.01359
2517.95017,0.01348
2515.88965,0.01354
2513.82914,0.01368
2511.76862,0.01335
2509.70810,0.01293
2507.64759,0.01297
2505.58707,0.01344
2503.52656,0.01364
2501.46604,0.01321
2499.40553,0.01292
2497.34501,0.01309
2495.28449,0.01343
2493.22398,0.01381
2491.16346,0.01378
2489.10295,0.01334
2487.04243,0.01326
2484.98192,0.01361
2482.92140,0.01385
2480.86088,0.01364
2478.80037,0.01308
2476.73985,0.01254
2474.67934,0.01228
2472.61882,0.01224
2470.55831,0.01227
2468.49779,0.01244
2466.43728,0.01279
2464.37676,0.01299
2462.31624,0.01313
2460.25573,0.01342
2458.19521,0.01340
2456.13470,0.01324
2454.07418,0.01347
2452.01367,0.01375
2449.95315,0.01383
2447.89263,0.01378
2445.83212,0.01349
2443.77160,0.01295
2441.71109,0.01283
2439.65057,0.01345
2437.59006,0.01408
2435.52954,0.01421
2433.46902,0.01409
2431.40851,0.01414
2429.34799,0.01415
2427.28748,0.01411
2425.22696,0.01414
2423.16645,0.01392
2421.10593,0.01364
2419.04541,0.01371
2416.98490,0.01374
2414.92438,0.01370
2412.86387,0.01408
2410.80335,0.01454
2408.74284,0.01458
2406.68232,0.01450
2404.62180,0.01454
2402.56129,0.01476
2400.50077,0.01520
2398.44026,0.01546
2396.37974,0.01533
2394.31923,0.01521
2392.25871,0.01527
2390.19819,0.01534
2388.13768,0.01533
2386.07716,0.01520
2384.01665,0.01491
2381.95613,0.01477
2379.89562,0.01523
2377.83510,0.01586
2375.77459,0.01614
2373.71407,0.01630
2371.65355,0.01606
2369.59304,0.01520
2367.53252,0.01430
2365.47201,0.01395
2363.41149,0.01471
2361.35098,0.01599
2359.29046,0.01690
2357.22994,0.01719
2355.16943,0.01694
2353.10891,0.01658
2351.04840,0.01663
2348.98788,0.01688
2346.92737,0.01696
2344.86685,0.01701
2342.80633,0.01745
2340.74582,0.01802
2338.68530,0.01795
2336.62479,0.01727
2334.56427,0.01698
2332.50376,0.01723
2330.44324,0.01722
2328.38272,0.01690
2326.32221,0.01660
2324.26169,0.01645
2322.20118,0.01671
2320.14066,0.01734
2318.08015,0.01785
2316.01963,0.01794
2313.95911,0.01758
2311.89860,0.01733
2309.83808,0.01776
2307.77757,0.01791
2305.71705,0.01744
2303.65654,0.01753
2301.59602,0.01811
2299.53550,0.01851
2297.47499,0.01880
2295.41447,0.01864
2293.35396,0.01814
2291.29344,0.01808
2289.23293,0.01820
2287.17241,0.01827
2285.11189,0.01859
2283.05138,0.01878
2280.99086,0.01871
2278.93035,0.01896
2276.86983,0.01925
2274.80932,0.01895
2272.74880,0.01877
2270.68829,0.01888
2268.62777,0.01860
2266.56725,0.01845
2264.50674,0.01864
2262.44622,0.01865
2260.38571,0.01879
2258.32519,0.01909
2256.26468,0.01905
2254.20416,0.01884
2252.14364,0.01892
2250.08313,0.01977
2248.02261,0.02076
2245.96210,0.02093
2243.90158,0.02061
2241.84107,0.02030
2239.78055,0.02007
2237.72003,0.01991
2235.65952,0.01986
2233.59900,0.01953
2231.53849,0.01902
2229.47797,0.01932
2227.41746,0.02007
2225.35694,0.02102
2223.29642,0.02175
2221.23591,0.02113
2219.17539,0.02016
2217.11488,0.01967
2215.05436,0.01966
2212.99385,0.02024
2210.93333,0.02041
2208.87281,0.01987
2206.81230,0.01948
2204.75178,0.01981
2202.69127,0.02066
2200.63075,0.02134
2198.57024,0.02106
2196.50972,0.01996
2194.44920,0.01929
2192.38869,0.01980
2190.32817,0.02105
2188.26766,0.02239
2186.20714,0.02358
2184.14663,0.02394
2182.08611,0.02311
2180.02559,0.02264
2177.96508,0.02218
2175.90456,0.02083
2173.84405,0.02055
2171.78353,0.02120
2169.72302,0.02086
2167.66250,0.02013
2165.60199,0.02025
2163.54147,0.02034
2161.48095,0.01961
2159.42044,0.01953
2157.35992,0.02035
2155.29941,0.02083
2153.23889,0.02043
2151.17838,0.01935
2149.11786,0.01945
2147.05734,0.02097
2144.99683,0.02134
2142.93631,0.02122
2140.87580,0.02198
2138.81528,0.02180
2136.75477,0.02061
2134.69425,0.02023
2132.63373,0.02078
2130.57322,0.02145
2128.51270,0.02163
2126.45219,0.02093
2124.39167,0.01977
2122.33116,0.01911
2120.27064,0.01938
2118.21012,0.01989
2116.14961,0.01984
2114.08909,0.01928
2112.02858,0.01919
2109.96806,0.02003
2107.90755,0.02072
2105.84703,0.02043
2103.78651,0.01969
2101.72600,0.01938
2099.66548,0.01954
2097.60497,0.01944
2095.54445,0.01860
2093.48394,0.01799
2091.42342,0.01835
2089.36290,0.01819
2087.30239,0.01729
2085.24187,0.01695
2083.18136,0.01703
2081.12084,0.01670
2079.06033,0.01608
2076.99981,0.01638
2074.93930,0.01713
2072.87878,0.01654
2070.81826,0.01569
2068.75775,0.01579
2066.69723,0.01554
2064.63672,0.01486
2062.57620,0.01524
2060.51569,0.01625
2058.45517,0.01647
2056.39465,0.01588
2054.33414,0.01528
2052.27362,0.01467
2050.21311,0.01386
2048.15259,0.01351
2046.09208,0.01442
2044.03156,0.01597
2041.97104,0.01644
2039.91053,0.01559
2037.85001,0.01420
2035.78950,0.01260
2033.72898,0.01133
2031.66847,0.01013
2029.60795,0.00957
2027.54743,0.01086
2025.48692,0.01290
2023.42640,0.01434
2021.36589,0.01396
2019.30537,0.01150
2017.24486,0.00959
2015.18434,0.01021
2013.12382,0.01276
2011.06331,0.01352
2009.00279,0.01175
2006.94228,0.01146
2004.88176,0.01300
2002.82125,0.01361
2000.76073,0.01209
1998.70021,0.01052
1996.63970,0.01070
1994.57918,0.01182
1992.51867,0.01254
1990.45815,0.01258
1988.39764,0.01290
1986.33712,0.01318
1984.27660,0.01317
1982.21609,0.01365
1980.15557,0.01364
1978.09506,0.01291
1976.03454,0.01356
1973.97403,0.01458
1971.91351,0.01354
1969.85300,0.01163
1967.79248,0.01088
1965.73196,0.01103
1963.67145,0.01065
1961.61093,0.00991
1959.55042,0.01095
1957.48990,0.01337
1955.42939,0.01466
1953.36887,0.01435
1951.30835,0.01307
1949.24784,0.01229
1947.18732,0.01243
1945.12681,0.01232
1943.06629,0.01261
1941.00578,0.01374
1938.94526,0.01409
1936.88474,0.01345
1934.82423,0.01302
1932.76371,0.01284
1930.70320,0.01305
1928.64268,0.01370
1926.58217,0.01380
1924.52165,0.01346
1922.46113,0.01364
1920.40062,0.01401
1918.34010,0.01380
1916.27959,0.01300
1914.21907,0.01199
1912.15856,0.01166
1910.09804,0.01245
1908.03752,0.01329
1905.97701,0.01314
1903.91649,0.01267
1901.85598,0.01274
1899.79546,0.01304
1897.73495,0.01344
1895.67443,0.01384
1893.61391,0.01391
1891.55340,0.01410
1889.49288,0.01447
1887.43237,0.01419
1885.37185,0.01367
1883.31134,0.01383
1881.25082,0.01412
1879.19030,0.01383
1877.12979,0.01342
1875.06927,0.01312
1873.00876,0.01277
1870.94824,0.01280
1868.88773,0.01346
1866.82721,0.01391
1864.76670,0.01363
1862.70618,0.01314
1860.64566,0.01302
1858.58515,0.01326
1856.52463,0.01354
1854.46412,0.01353
1852.40360,0.01318
1850.34309,0.01318
1848.28257,0.01371
1846.22205,0.01380
1844.16154,0.01335
1842.10102,0.01339
1840.04051,0.01390
1837.97999,0.01424
1835.91948,0.01429
1833.85896,0.01432
1831.79844,0.01456
1829.73793,0.01468
1827.67741,0.01417
1825.61690,0.01343
1823.55638,0.01343
1821.49587,0.01421
1819.43535,0.01471
1817.37483,0.01464
1815.31432,0.01448
1813.25380,0.01441
1811.19329,0.01462
1809.13277,0.01515
1807.07226,0.01556
1805.01174,0.01569
1802.95122,0.01591
1800.89071,0.01620
1798.83019,0.01623
1796.76968,0.01634
1794.70916,0.01682
1792.64865,0.01738
1790.58813,0.01771
1788.52761,0.01777
1786.46710,0.01773
1784.40658,0.01781
1782.34607,0.01814
1780.28555,0.01849
1778.22504,0.01892
1776.16452,0.01956
1774.10400,0.01992
1772.04349,0.01968
1769.98297,0.01963
1767.92246,0.02019
1765.86194,0.02074
1763.80143,0.02106
1761.74091,0.02141
1759.68040,0.02199
1757.61988,0.02260
1755.55936,0.02306
1753.49885,0.02347
1751.43833,0.02402
1749.37782,0.02484
1747.31730,0.02571
1745.25679,0.02649
1743.19627,0.02730
1741.13575,0.02803
1739.07524,0.02874
1737.01472,0.02953
1734.95421,0.03029
1732.89369,0.03132
1730.83318,0.03239
1728.77266,0.03332
1726.71214,0.03431
1724.65163,0.03563
1722.59111,0.03712
1720.53060,0.03828
1718.47008,0.03937
1716.40957,0.04115
1714.34905,0.04332
1712.28853,0.04529
1710.22802,0.04721
1708.16750,0.04926
1706.10699,0.05145
1704.04647,0.05349
1701.98596,0.05524
1699.92544,0.05760
1697.86492,0.06069
1695.80441,0.06404
1693.74389,0.06727
1691.68338,0.06990
1689.62286,0.07248
1687.56235,0.07496
1685.50183,0.07765
1683.44131,0.08143
1681.38080,0.08505
1679.32028,0.08801
1677.25977,0.09069
1675.19925,0.09328
1673.13874,0.09584
1671.07822,0.09842
1669.01771,0.10124
1666.95719,0.10393
1664.89667,0.10619
1662.83616,0.10819
1660.77564,0.11000
1658.71513,0.11169
1656.65461,0.11328
1654.59410,0.11467
1652.53358,0.11550
1650.47306,0.11586
1648.41255,0.11603
1646.35203,0.11555
1644.29152,0.11454
1642.23100,0.11362
1640.17049,0.11271
1638.10997,0.11145
1636.04945,0.10918
1633.98894,0.10635
1631.92842,0.10428
1629.86791,0.10210
1627.80739,0.09921
1625.74688,0.09617
1623.68636,0.09304
1621.62584,0.08988
1619.56533,0.08719
1617.50481,0.08405
1615.44430,0.08041
1613.38378,0.07788
1611.32327,0.07582
1609.26275,0.07351
1607.20223,0.07125
1605.14172,0.06926
1603.08120,0.06735
1601.02069,0.06572
1598.96017,0.06452
1596.89966,0.06330
1594.83914,0.06190
1592.77862,0.06069
1590.71811,0.05959
1588.65759,0.05830
1586.59708,0.05695
1584.53656,0.05588
1582.47605,0.05510
1580.41553,0.05432
1578.35501,0.05348
1576.29450,0.05236
1574.23398,0.05128
1572.17347,0.05060
1570.11295,0.04976
1568.05244,0.04893
1565.99192,0.04850
1563.93141,0.04806
1561.87089,0.04747
1559.81037,0.04668
1557.74986,0.04573
1555.68934,0.04520
1553.62883,0.04476
1551.56831,0.04436
1549.50780,0.04417
1547.44728,0.04406
1545.38676,0.04365
1543.32625,0.04310
1541.26573,0.04268
1539.20522,0.04246
1537.14470,0.04244
1535.08419,0.04237
1533.02367,0.04223
1530.96315,0.04218
1528.90264,0.04199
1526.84212,0.04149
1524.78161,0.04101
1522.72109,0.04100
1520.66058,0.04145
1518.60006,0.04168
1516.53954,0.04154
1514.47903,0.04144
1512.41851,0.04150
1510.35800,0.04151
1508.29748,0.04149
1506.23697,0.04169
1504.17645,0.04207
1502.11593,0.04251
1500.05542,0.04304
1497.99490,0.04368
1495.93439,0.04473
1493.87387,0.04641
1491.81336,0.04902
1489.75284,0.05388
1487.69232,0.06258
1485.63181,0.07565
1483.57129,0.09075
1481.51078,0.10093
1479.45026,0.10031
1477.38975,0.09313
1475.32923,0.08766
1473.26871,0.08896
1471.20820,0.09629
1469.14768,0.10389
1467.08717,0.10958
1465.02665,0.11243
1462.96614,0.11121
1460.90562,0.10762
1458.84511,0.10270
1456.78459,0.09647
1454.72407,0.09196
1452.66356,0.08926
1450.60304,0.08645
1448.54253,0.08312
1446.48201,0.07966
1444.42150,0.07656
1442.36098,0.07357
1440.30046,0.07050
1438.23995,0.06719
1436.17943,0.06327
1434.11892,0.05992
1432.05840,0.05751
1429.99789,0.05545
1427.93737,0.05386
1425.87685,0.05256
1423.81634,0.05124
1421.75582,0.05013
1419.69531,0.04930
1417.63479,0.04885
1415.57428,0.04858
1413.51376,0.04843
1411.45324,0.04904
1409.39273,0.05076
1407.33221,0.05357
1405.27170,0.05726
1403.21118,0.06029
1401.15067,0.06078
1399.09015,0.05857
1397.02963,0.05504
1394.96912,0.05166
1392.90860,0.04921
1390.84809,0.04789
1388.78757,0.04706
1386.72706,0.04638
1384.66654,0.04600
1382.60602,0.04596
1380.54551,0.04608
1378.48499,0.04627
1376.42448,0.04647
1374.36396,0.04663
1372.30345,0.04690
1370.24293,0.04756
1368.18241,0.04847
1366.12190,0.04956
1364.06138,0.05099
1362.00087,0.05275
1359.94035,0.05487
1357.87984,0.05748
1355.81932,0.06034
1353.75881,0.06303
1351.69829,0.06511
1349.63777,0.06568
1347.57726,0.06371
1345.51674,0.05928
1343.45623,0.05410
1341.39571,0.05024
1339.33520,0.04836
1337.27468,0.04769
1335.21416,0.04744
1333.15365,0.04736
1331.09313,0.04721
1329.03262,0.04682
1326.97210,0.04634
1324.91159,0.04589
1322.85107,0.04553
1320.79055,0.04533
1318.73004,0.04541
1316.66952,0.04594
1314.60901,0.04683
1312.54849,0.04798
1310.48798,0.04935
1308.42746,0.05079
1306.36694,0.05222
1304.30643,0.05349
1302.24591,0.05420
1300.18540,0.05434
1298.12488,0.05424
1296.06437,0.05401
1294.00385,0.05378
1291.94333,0.05367
1289.88282,0.05364
1287.82230,0.05343
1285.76179,0.05284
1283.70127,0.05208
1281.64076,0.05146
1279.58024,0.05087
1277.51972,0.05005
1275.45921,0.04923
1273.39869,0.04876
1271.33818,0.04870
1269.27766,0.04899
1267.21715,0.04949
1265.15663,0.05020
1263.09612,0.05130
1261.03560,0.05284
1258.97508,0.05479
1256.91457,0.05700
1254.85405,0.05925
1252.79354,0.06154
1250.73302,0.06406
1248.67251,0.06702
1246.61199,0.07091
1244.55147,0.07627
1242.49096,0.08252
1240.43044,0.08778
1238.36993,0.08996
1236.30941,0.08787
1234.24890,0.08203
1232.18838,0.07431
1230.12786,0.06674
1228.06735,0.06068
1226.00683,0.05642
1223.94632,0.05338
1221.88580,0.05092
1219.82529,0.04889
1217.76477,0.04750
1215.70425,0.04654
1213.64374,0.04559
1211.58322,0.04477
1209.52271,0.04421
1207.46219,0.04376
1205.40168,0.04349
1203.34116,0.04344
1201.28064,0.04333
1199.22013,0.04312
1197.15961,0.04303
1195.09910,0.04307
1193.03858,0.04306
1190.97807,0.04300
1188.91755,0.04311
1186.85703,0.04326
1184.79652,0.04328
1182.73600,0.04338
1180.67549,0.04360
1178.61497,0.04386
1176.55446,0.04432
1174.49394,0.04495
1172.43342,0.04571
1170.37291,0.04663
1168.31239,0.04755
1166.25188,0.04850
1164.19136,0.04995
1162.13085,0.05221
1160.07033,0.05512
1158.00982,0.05850
1155.94930,0.06243
1153.88878,0.06694
1151.82827,0.07213
1149.76775,0.07773
1147.70724,0.08297
1145.64672,0.08765
1143.58621,0.09203
1141.52569,0.09597
1139.46517,0.09943
1137.40466,0.10254
1135.34414,0.10512
1133.28363,0.10705
1131.22311,0.10902
1129.16260,0.11170
1127.10208,0.11510
1125.04156,0.11894
1122.98105,0.12279
1120.92053,0.12642
1118.86002,0.12966
1116.79950,0.13251
1114.73899,0.13522
1112.67847,0.13788
1110.61795,0.14050
1108.55744,0.14312
1106.49692,0.14612
1104.43641,0.14930
1102.37589,0.15178
1100.31538,0.15380
1098.25486,0.15594
1096.19434,0.15750
1094.13383,0.15791
1092.07331,0.15780
1090.01280,0.15740
1087.95228,0.15629
1085.89177,0.15460
1083.83125,0.15258
1081.77073,0.15009
1079.71022,0.14742
1077.64970,0.14516
1075.58919,0.14306
1073.52867,0.14059
1071.46816,0.13754
1069.40764,0.13364
1067.34712,0.12899
1065.28661,0.12402
1063.22609,0.11855
1061.16558,0.11243
1059.10506,0.10614
1057.04455,0.10017
1054.98403,0.09467
1052.92352,0.08984
1050.86300,0.08585
1048.80248,0.08274
1046.74197,0.08059
1044.68145,0.07919
1042.62094,0.07825
1040.56042,0.07770
1038.49991,0.07749
1036.43939,0.07728
1034.37887,0.07671
1032.31836,0.07562
1030.25784,0.07426
1028.19733,0.07292
1026.13681,0.07137
1024.07630,0.06939
1022.01578,0.06748
1019.95526,0.06592
1017.89475,0.06420
1015.83423,0.06242
1013.77372,0.06121
1011.71320,0.06071
1009.65269,0.06041
1007.59217,0.05992
1005.53165,0.05957
1003.47114,0.05964
1001.41062,0.05988
999.35011,0.06004
997.28959,0.06030
995.22908,0.06073
993.16856,0.06111
991.10804,0.06156
989.04753,0.06215
986.98701,0.06247
984.92650,0.06252
982.86598,0.06279
980.80547,0.06342
978.74495,0.06430
976.68443,0.06528
974.62392,0.06609
972.56340,0.06700
970.50289,0.06886
968.44237,0.07181
966.38186,0.07561
964.32134,0.08081
962.26082,0.08846
960.20031,0.09907
958.13979,0.11299
956.07928,0.13048
954.01876,0.15080
951.95825,0.17150
949.89773,0.18901
947.83722,0.19933
945.77670,0.19904
943.71618,0.18809
941.65567,0.17080
939.59515,0.15321
937.53464,0.13921
935.47412,0.12907
933.41361,0.12150
931.35309,0.11586
929.29257,0.11177
927.23206,0.10869
925.17154,0.10646
923.11103,0.10503
921.05051,0.10421
918.99000,0.10385
916.92948,0.10373
914.86896,0.10371
912.80845,0.10379
910.74793,0.10382
908.68742,0.10385
906.62690,0.10424
904.56639,0.10500
902.50587,0.10592
900.44535,0.10695
898.38484,0.10839
896.32432,0.11052
894.26381,0.11305
892.20329,0.11547
890.14278,0.11748
888.08226,0.11916
886.02174,0.12122
883.96123,0.12375
881.90071,0.12595
879.84020,0.12736
877.77968,0.12852
875.71917,0.13018
873.65865,0.13213
871.59813,0.13385
869.53762,0.13539
867.47710,0.13688
865.41659,0.13884
863.35607,0.14170
861.29556,0.14456
859.23504,0.14697
857.17453,0.14947
855.11401,0.15209
853.05349,0.15492
850.99298,0.15805
848.93246,0.16142
846.87195,0.16466
844.81143,0.16741
842.75092,0.16988
840.69040,0.17234
838.62988,0.17471
836.56937,0.17685
834.50885,0.17922
832.44834,0.18211
830.38782,0.18488
828.32731,0.18689
826.26679,0.18816
824.20627,0.18931
822.14576,0.19100
820.08524,0.19347
818.02473,0.19574
815.96421,0.19689
813.90370,0.19816
811.84318,0.20058
809.78266,0.20309
807.72215,0.20531
805.66163,0.20794
803.60112,0.21055
801.54060,0.21264
799.48009,0.21496
797.41957,0.21790
795.35905,0.22043
793.29854,0.22223
791.23802,0.22447
789.17751,0.22711
787.11699,0.22949
785.05648,0.23205
782.99596,0.23487
780.93544,0.23761
778.87493,0.24064
776.81441,0.24401
774.75390,0.24751
772.69338,0.25152
770.63287,0.25651
768.57235,0.26235
766.51183,0.26906
764.45132,0.27670
762.39080,0.28542
760.33029,0.29517
758.26977,0.30367
756.20926,0.30817
754.14874,0.30810
752.08823,0.30469
750.02771,0.30069
747.96719,0.29803
745.90668,0.29671
743.84616,0.29663
741.78565,0.29750
739.72513,0.29863
737.66462,0.29971
735.60410,0.30129
733.54358,0.30372
731.48307,0.30621
729.42255,0.30827
727.36204,0.31009
725.30152,0.31183
723.24101,0.31373
721.18049,0.31582
719.11997,0.31786
717.05946,0.32010
714.99894,0.32256
712.93843,0.32524
710.87791,0.32834
708.81740,0.33089
706.75688,0.33227
704.69636,0.33379
702.63585,0.33629
700.57533,0.33870
698.51482,0.34018
696.45430,0.34155
694.39379,0.34397
692.33327,0.34697
690.27275,0.34918
688.21224,0.35085
686.15172,0.35286
684.09121,0.35490
682.03069,0.35681
679.97018,0.35856
677.90966,0.36011
675.84914,0.36150
673.78863,0.36283
671.72811,0.36485
669.66760,0.36774
667.60708,0.37033
665.54657,0.37092
663.48605,0.37094
661.42553,0.37170
659.36502,0.37338
657.30450,0.37534
655.24399,0.37671
653.18347,0.37786
651.12296,0.37910
649.06244,0.37931
647.00193,0.37923
644.94141,0.38079
642.88089,0.38264
640.82038,0.38357
638.75986,0.38527
636.69935,0.38768
634.63883,0.38943
632.57832,0.39002
630.51780,0.39009
628.45728,0.39057
626.39677,0.39073
624.33625,0.39053
622.27574,0.39142
620.21522,0.39326
618.15471,0.39484
616.09419,0.39573
614.03367,0.39554
611.97316,0.39491
609.91264,0.39545
607.85213,0.39690
605.79161,0.39757
603.73110,0.39807
601.67058,0.40026
599.61006,0.40255
597.54955,0.40252
595.48903,0.40105
593.42852,0.40028
591.36800,0.40148
589.30749,0.40366
587.24697,0.40554
585.18645,0.40682
583.12594,0.40623
581.06542,0.40416
579.00491,0.40383
576.94439,0.40625
574.88388,0.40948
572.82336,0.41145
570.76284,0.41057
568.70233,0.40835
566.64181,0.40828
564.58130,0.40910
562.52078,0.40996
560.46027,0.41169
558.39975,0.41145
556.33924,0.40988
554.27872,0.40933
552.21820,0.40841
550.15769,0.40757
548.09717,0.40847
546.03666,0.40911
543.97614,0.40838
541.91563,0.40862
539.85511,0.40974
537.79459,0.41067
535.73408,0.41127
533.67356,0.41168
531.61305,0.41303
529.55253,0.41515
527.49202,0.41749
525.43150,0.41921
523.37098,0.42084
521.31047,0.42466
519.24995,0.43137
517.18944,0.44086
515.12892,0.44972
513.06841,0.45603
511.00789,0.46294
508.94737,0.47160
506.88686,0.48021
504.82634,0.48825
502.76583,0.49569
500.70531,0.50028
498.64480,0.50157
496.58428,0.50168
494.52376,0.50046
492.46325,0.49436
490.40273,0.48473
488.34222,0.47669
486.28170,0.46889
484.22119,0.45836
482.16067,0.44715
480.10015,0.44005
478.03964,0.43739
475.97912,0.43692
473.91861,0.43947
471.85809,0.44890
469.79758,0.46916
467.73706,0.49820
465.67654,0.52568
463.61603,0.54196
461.55551,0.54393
459.49500,0.53117
457.43448,0.50888
455.37397,0.48704
453.31345,0.47136
451.25294,0.46397
449.19242,0.46224
447.13190,0.45791
445.07139,0.44873
443.01087,0.43928
440.95036,0.43194
438.88984,0.42846
436.82933,0.42986
434.76881,0.43025
432.70829,0.42448
430.64778,0.41378
428.58726,0.40264
426.52675,0.39465
424.46623,0.38934
422.40572,0.38970
420.34520,0.39359
418.28468,0.39474
416.22417,0.39472
414.16365,0.38983
412.10314,0.38020
410.04262,0.37464
407.98211,0.37301
405.92159,0.36993
403.86107,0.36636
401.80056,0.36484
399.74004,0.36658
