3997.40043,0.00310
3995.33991,0.00355
3993.27940,0.00362
3991.21888,0.00326
3989.15837,0.00271
3987.09785,0.00260
3985.03734,0.00306
3982.97682,0.00328
3980.91630,0.00298
3978.85579,0.00264
3976.79527,0.00234
3974.73476,0.00203
3972.67424,0.00192
3970.61373,0.00205
3968.55321,0.00218
3966.49269,0.00221
3964.43218,0.00233
3962.37166,0.00261
3960.31115,0.00273
3958.25063,0.00277
3956.19012,0.00303
3954.12960,0.00319
3952.06908,0.00299
3950.00857,0.00272
3947.94805,0.00268
3945.88754,0.00275
3943.82702,0.00274
3941.76651,0.00267
3939.70599,0.00287
3937.64547,0.00319
3935.58496,0.00294
3933.52444,0.00246
3931.46393,0.00241
3929.40341,0.00242
3927.34290,0.00224
3925.28238,0.00212
3923.22186,0.00226
3921.16135,0.00250
3919.10083,0.00246
3917.04032,0.00226
3914.97980,0.00241
3912.91929,0.00287
3910.85877,0.00316
3908.79825,0.00309
3906.73774,0.00288
3904.67722,0.00268
3902.61671,0.00232
3900.55619,0.00186
3898.49568,0.00195
3896.43516,0.00258
3894.37465,0.00308
3892.31413,0.00301
3890.25361,0.00250
3888.19310,0.00214
3886.13258,0.00222
3884.07207,0.00270
3882.01155,0.00295
3879.95104,0.00289
3877.89052,0.00293
3875.83000,0.00278
3873.76949,0.00251
3871.70897,0.00263
3869.64846,0.00296
3867.58794,0.00305
3865.52743,0.00301
3863.46691,0.00315
3861.40639,0.00332
3859.34588,0.00326
3857.28536,0.00302
3855.22485,0.00254
3853.16433,0.00232
3851.10382,0.00277
3849.04330,0.00292
3846.98278,0.00269
3844.92227,0.00264
3842.86175,0.00298
3840.80124,0.00341
3838.74072,0.00345
3836.68021,0.00291
3834.61969,0.00262
3832.55917,0.00292
3830.49866,0.00320
3828.43814,0.00331
3826.37763,0.00339
3824.31711,0.00332
3822.25660,0.00300
3820.19608,0.00271
3818.13556,0.00272
3816.07505,0.00272
3814.01453,0.00274
3811.95402,0.00290
3809.89350,0.00292
3807.83299,0.00269
3805.77247,0.00256
3803.71195,0.00251
3801.65144,0.00265
3799.59092,0.00337
3797.53041,0.00395
3795.46989,0.00366
3793.40938,0.00306
3791.34886,0.00309
3789.28835,0.00355
3787.22783,0.00393
3785.16731,0.00416
3783.10680,0.00415
3781.04628,0.00403
3778.98577,0.00406
3776.92525,0.00422
3774.86474,0.00442
3772.80422,0.00442
3770.74370,0.00392
3768.68319,0.00356
3766.62267,0.00367
3764.56216,0.00374
3762.50164,0.00389
3760.44113,0.00427
3758.38061,0.00482
3756.32009,0.00547
3754.25958,0.00577
3752.19906,0.00518
3750.13855,0.00438
3748.07803,0.00414
3746.01752,0.00431
3743.95700,0.00507
3741.89648,0.00558
3739.83597,0.00569
3737.77545,0.00596
3735.71494,0.00579
3733.65442,0.00528
3731.59391,0.00535
3729.53339,0.00543
3727.47287,0.00545
3725.41236,0.00553
3723.35184,0.00556
3721.29133,0.00576
3719.23081,0.00637
3717.17030,0.00713
3715.10978,0.00736
3713.04926,0.00709
3710.98875,0.00726
3708.92823,0.00824
3706.86772,0.00921
3704.80720,0.00973
3702.74669,0.00987
3700.68617,0.01009
3698.62565,0.01063
3696.56514,0.01118
3694.50462,0.01163
3692.44411,0.01218
3690.38359,0.01310
3688.32308,0.01463
3686.26256,0.01615
3684.20205,0.01704
3682.14153,0.01785
3680.08101,0.01885
3678.02050,0.01997
3675.95998,0.02147
3673.89947,0.02316
3671.83895,0.02453
3669.77844,0.02600
3667.71792,0.02753
3665.65740,0.02882
3663.59689,0.03030
3661.53637,0.03193
3659.47586,0.03337
3657.41534,0.03506
3655.35483,0.03690
3653.29431,0.03824
3651.23379,0.03984
3649.17328,0.04230
3647.11276,0.04448
3645.05225,0.04589
3642.99173,0.04736
3640.93122,0.04909
3638.87070,0.05037
3636.81018,0.05160
3634.74967,0.05374
3632.68915,0.05607
3630.62864,0.05782
3628.56812,0.05948
3626.50761,0.06100
3624.44709,0.06239
3622.38657,0.06396
3620.32606,0.06555
3618.26554,0.06729
3616.20503,0.06935
3614.14451,0.07123
3612.08400,0.07272
3610.02348,0.07405
3607.96296,0.07550
3605.90245,0.07726
3603.84193,0.07912
3601.78142,0.08088
3599.72090,0.08225
3597.66039,0.08355
3595.59987,0.08538
3593.53936,0.08745
3591.47884,0.08943
3589.41832,0.09111
3587.35781,0.09242
3585.29729,0.09373
3583.23678,0.09524
3581.17626,0.09689
3579.11575,0.09890
3577.05523,0.10119
3574.99471,0.10335
3572.93420,0.10535
3570.87368,0.10707
3568.81317,0.10878
3566.75265,0.11095
3564.69214,0.11299
3562.63162,0.11485
3560.57110,0.11678
3558.51059,0.11886
3556.45007,0.12107
3554.38956,0.12284
3552.32904,0.12458
3550.26853,0.12707
3548.20801,0.12960
3546.14749,0.13154
3544.08698,0.13326
3542.02646,0.13507
3539.96595,0.13690
3537.90543,0.13909
3535.84492,0.14192
3533.78440,0.14485
3531.72388,0.14755
3529.66337,0.14988
3527.60285,0.15204
3525.54234,0.15447
3523.48182,0.15673
3521.42131,0.15874
3519.36079,0.16092
3517.30027,0.16330
3515.23976,0.16573
3513.17924,0.16788
3511.11873,0.16997
3509.05821,0.17241
3506.99770,0.17468
3504.93718,0.17635
3502.87666,0.17789
3500.81615,0.18015
3498.75563,0.18290
3496.69512,0.18550
3494.63460,0.18809
3492.57409,0.19068
3490.51357,0.19313
3488.45306,0.19537
3486.39254,0.19716
3484.33202,0.19903
3482.27151,0.20163
3480.21099,0.20443
3478.15048,0.20702
3476.08996,0.20962
3474.02945,0.21188
3471.96893,0.21369
3469.90841,0.21582
3467.84790,0.21831
3465.78738,0.22079
3463.72687,0.22346
3461.66635,0.22640
3459.60584,0.22900
3457.54532,0.23105
3455.48480,0.23344
3453.42429,0.23595
3451.36377,0.23815
3449.30326,0.24061
3447.24274,0.24330
3445.18223,0.24616
3443.12171,0.24892
3441.06119,0.25148
3439.00068,0.25410
3436.94016,0.25642
3434.87965,0.25830
3432.81913,0.26025
3430.75862,0.26260
3428.69810,0.26531
3426.63758,0.26777
3424.57707,0.26982
3422.51655,0.27192
3420.45604,0.27441
3418.39552,0.27751
3416.33501,0.28038
3414.27449,0.28201
3412.21397,0.28318
3410.15346,0.28505
3408.09294,0.28750
3406.03243,0.28984
3403.97191,0.29177
3401.91140,0.29353
3399.85088,0.29574
3397.79036,0.29830
3395.72985,0.29999
3393.66933,0.30096
3391.60882,0.30274
3389.54830,0.30501
3387.48779,0.30697
3385.42727,0.30871
3383.36676,0.31009
3381.30624,0.31090
3379.24572,0.31200
3377.18521,0.31388
3375.12469,0.31558
3373.06418,0.31642
3371.00366,0.31684
3368.94315,0.31789
3366.88263,0.31957
3364.82211,0.32081
3362.76160,0.32133
3360.70108,0.32190
3358.64057,0.32307
3356.58005,0.32428
3354.51954,0.32470
3352.45902,0.32434
3350.39850,0.32438
3348.33799,0.32570
3346.27747,0.32749
3344.21696,0.32851
3342.15644,0.32875
3340.09593,0.32895
3338.03541,0.32935
3335.97489,0.32967
3333.91438,0.32991
3331.85386,0.33036
3329.79335,0.33101
3327.73283,0.33130
3325.67232,0.33092
3323.61180,0.33055
3321.55128,0.33073
3319.49077,0.33119
3317.43025,0.33151
3315.36974,0.33160
3313.30922,0.33170
3311.24871,0.33151
3309.18819,0.33086
3307.12767,0.33080
3305.06716,0.33179
3303.00664,0.33296
3300.94613,0.33354
3298.88561,0.33335
3296.82510,0.33262
3294.76458,0.33211
3292.70406,0.33252
3290.64355,0.33328
3288.58303,0.33325
3286.52252,0.33276
3284.46200,0.33296
3282.40149,0.33383
3280.34097,0.33461
3278.28046,0.33504
3276.21994,0.33516
3274.15942,0.33473
3272.09891,0.33424
3270.03839,0.33472
3267.97788,0.33581
3265.91736,0.33609
3263.85685,0.33532
3261.79633,0.33449
3259.73581,0.33452
3257.67530,0.33528
3255.61478,0.33540
3253.55427,0.33474
3251.49375,0.33463
3249.43324,0.33490
3247.37272,0.33473
3245.31220,0.33440
3243.25169,0.33430
3241.19117,0.33387
3239.13066,0.33306
3237.07014,0.33264
3235.00963,0.33228
3232.94911,0.33143
3230.88859,0.33077
3228.82808,0.33052
3226.76756,0.32982
3224.70705,0.32874
3222.64653,0.32785
3220.58602,0.32673
3218.52550,0.32515
3216.46498,0.32359
3214.40447,0.32230
3212.34395,0.32130
3210.28344,0.31997
3208.22292,0.31826
3206.16241,0.31718
3204.10189,0.31609
3202.04137,0.31398
3199.98086,0.31197
3197.92034,0.31061
3195.85983,0.30889
3193.79931,0.30643
3191.73880,0.30374
3189.67828,0.30156
3187.61777,0.29978
3185.55725,0.29767
3183.49673,0.29573
3181.43622,0.29412
3179.37570,0.29196
3177.31519,0.28965
3175.25467,0.28735
3173.19416,0.28447
3171.13364,0.28185
3169.07312,0.27986
3167.01261,0.27752
3164.95209,0.27488
3162.89158,0.27250
3160.83106,0.26980
3158.77055,0.26648
3156.71003,0.26349
3154.64951,0.26116
3152.58900,0.25910
3150.52848,0.25723
3148.46797,0.25519
3146.40745,0.25245
3144.34694,0.24920
3142.28642,0.24577
3140.22590,0.24237
3138.16539,0.23939
3136.10487,0.23697
3134.04436,0.23488
3131.98384,0.23274
3129.92333,0.23038
3127.86281,0.22785
3125.80229,0.22544
3123.74178,0.22303
3121.68126,0.21990
3119.62075,0.21653
3117.56023,0.21394
3115.49972,0.21214
3113.43920,0.21035
3111.37868,0.20794
3109.31817,0.20502
3107.25765,0.20211
3105.19714,0.19947
3103.13662,0.19690
3101.07611,0.19438
3099.01559,0.19199
3096.95507,0.18966
3094.89456,0.18698
3092.83404,0.18430
3090.77353,0.18240
3088.71301,0.18043
3086.65250,0.17787
3084.59198,0.17572
3082.53147,0.17398
3080.47095,0.17191
3078.41043,0.16987
3076.34992,0.16814
3074.28940,0.16610
3072.22889,0.16345
3070.16837,0.16075
3068.10786,0.15858
3066.04734,0.15658
3063.98682,0.15445
3061.92631,0.15244
3059.86579,0.15054
3057.80528,0.14862
3055.74476,0.14663
3053.68425,0.14481
3051.62373,0.14326
3049.56321,0.14139
3047.50270,0.13931
3045.44218,0.13780
3043.38167,0.13649
3041.32115,0.13493
3039.26064,0.13332
3037.20012,0.13164
3035.13960,0.13007
3033.07909,0.12872
3031.01857,0.12727
3028.95806,0.12573
3026.89754,0.12406
3024.83703,0.12211
3022.77651,0.12021
3020.71599,0.11869
3018.65548,0.11728
3016.59496,0.11570
3014.53445,0.11420
3012.47393,0.11288
3010.41342,0.11142
3008.35290,0.10962
3006.29238,0.10766
3004.23187,0.10598
3002.17135,0.10462
3000.11084,0.10327
2998.05032,0.10184
2995.98981,0.10047
2993.92929,0.09925
2991.86877,0.09803
2989.80826,0.09671
2987.74774,0.09526
2985.68723,0.09368
2983.62671,0.09211
2981.56620,0.09071
2979.50568,0.08979
2977.44517,0.08913
2975.38465,0.08819
2973.32413,0.08700
2971.26362,0.08587
2969.20310,0.08502
2967.14259,0.08455
2965.08207,0.08417
2963.02156,0.08324
2960.96104,0.08163
2958.90052,0.07986
2956.84001,0.07832
2954.77949,0.07706
2952.71898,0.07603
2950.65846,0.07509
2948.59795,0.07391
2946.53743,0.07268
2944.47691,0.07153
2942.41640,0.07026
2940.35588,0.06905
2938.29537,0.06804
2936.23485,0.06713
2934.17434,0.06623
2932.11382,0.06531
2930.05330,0.06425
2927.99279,0.06315
2925.93227,0.06232
2923.87176,0.06164
2921.81124,0.06096
2919.75073,0.06025
2917.69021,0.05936
2915.62969,0.05845
2913.56918,0.05766
2911.50866,0.05695
2909.44815,0.05619
2907.38763,0.05529
2905.32712,0.05450
2903.26660,0.05376
2901.20608,0.05287
2899.14557,0.05200
2897.08505,0.05105
2895.02454,0.04990
2892.96402,0.04908
2890.90351,0.04879
2888.84299,0.04840
2886.78247,0.04757
2884.72196,0.04687
2882.66144,0.04648
2880.60093,0.04598
2878.54041,0.04517
2876.47990,0.04429
2874.41938,0.04370
2872.35887,0.04324
2870.29835,0.04256
2868.23783,0.04176
2866.17732,0.04119
2864.11680,0.04071
2862.05629,0.03996
2859.99577,0.03917
2857.93526,0.03856
2855.87474,0.03799
2853.81422,0.03737
2851.75371,0.03678
2849.69319,0.03634
2847.63268,0.03610
2845.57216,0.03575
2843.51165,0.03499
2841.45113,0.03413
2839.39061,0.03366
2837.33010,0.03344
2835.26958,0.03305
2833.20907,0.03242
2831.14855,0.03179
2829.08804,0.03134
2827.02752,0.03106
2824.96700,0.03080
2822.90649,0.03050
2820.84597,0.03019
2818.78546,0.02960
2816.72494,0.02898
2814.66443,0.02870
2812.60391,0.02832
2810.54339,0.02783
2808.48288,0.02752
2806.42236,0.02722
2804.36185,0.02686
2802.30133,0.02639
2800.24082,0.02602
2798.18030,0.02591
2796.11978,0.02572
2794.05927,0.02540
2791.99875,0.02517
2789.93824,0.02471
2787.87772,0.02387
2785.81721,0.02314
2783.75669,0.02282
2781.69618,0.02277
2779.63566,0.02279
2777.57514,0.02277
2775.51463,0.02265
2773.45411,0.02240
2771.39360,0.02200
2769.33308,0.02142
2767.27257,0.02075
2765.21205,0.02038
2763.15153,0.02030
2761.09102,0.02018
2759.03050,0.02005
2756.96999,0.01985
2754.90947,0.01938
2752.84896,0.01894
2750.78844,0.01881
2748.72792,0.01878
2746.66741,0.01861
2744.60689,0.01834
2742.54638,0.01811
2740.48586,0.01796
2738.42535,0.01793
2736.36483,0.01796
2734.30431,0.01775
2732.24380,0.01732
2730.18328,0.01695
2728.12277,0.01674
2726.06225,0.01663
2724.00174,0.01653
2721.94122,0.01641
2719.88070,0.01621
2717.82019,0.01587
2715.75967,0.01554
2713.69916,0.01543
2711.63864,0.01547
2709.57813,0.01550
2707.51761,0.01547
2705.45709,0.01531
2703.39658,0.01504
2701.33606,0.01471
2699.27555,0.01442
2697.21503,0.01431
2695.15452,0.01424
2693.09400,0.01402
2691.03348,0.01377
2688.97297,0.01365
2686.91245,0.01352
2684.85194,0.01327
2682.79142,0.01311
2680.73091,0.01315
2678.67039,0.01325
2676.60988,0.01314
2674.54936,0.01283
2672.48884,0.01262
2670.42833,0.01264
2668.36781,0.01270
2666.30730,0.01274
2664.24678,0.01263
2662.18627,0.01215
2660.12575,0.01175
2658.06523,0.01176
2656.00472,0.01171
2653.94420,0.01154
2651.88369,0.01156
2649.82317,0.01151
2647.76266,0.01119
2645.70214,0.01093
2643.64162,0.01086
2641.58111,0.01078
2639.52059,0.01058
2637.46008,0.01039
2635.39956,0.01035
2633.33905,0.01037
2631.27853,0.01045
2629.21801,0.01065
2627.15750,0.01054
2625.09698,0.01029
2623.03647,0.01023
2620.97595,0.01013
2618.91544,0.01013
2616.85492,0.01014
2614.79440,0.00995
2612.73389,0.00965
2610.67337,0.00940
2608.61286,0.00945
2606.55234,0.00970
2604.49183,0.00988
2602.43131,0.00991
2600.37079,0.00978
2598.31028,0.00967
2596.24976,0.00974
2594.18925,0.00972
2592.12873,0.00956
2590.06822,0.00941
2588.00770,0.00922
2585.94718,0.00908
2583.88667,0.00900
2581.82615,0.00880
2579.76564,0.00877
2577.70512,0.00914
2575.64461,0.00937
2573.58409,0.00940
2571.52358,0.00955
2569.46306,0.00955
2567.40254,0.00932
2565.34203,0.00921
2563.28151,0.00934
2561.22100,0.00943
2559.16048,0.00927
2557.09997,0.00902
2555.03945,0.00896
2552.97893,0.00896
2550.91842,0.00882
2548.85790,0.00882
2546.79739,0.00913
2544.73687,0.00934
2542.67636,0.00946
2540.61584,0.00975
2538.55532,0.00986
2536.49481,0.00954
2534.43429,0.00923
2532.37378,0.00937
2530.31326,0.00958
2528.25275,0.00939
2526.19223,0.00899
2524.13171,0.00884
2522.07120,0.00903
2520.01068,0.00930
2517.95017,0.00958
2515.88965,0.00967
2513.82914,0.00925
2511.76862,0.00872
2509.70810,0.00870
2507.64759,0.00913
2505.58707,0.00976
2503.52656,0.01015
2501.46604,0.01005
2499.40553,0.00988
2497.34501,0.00989
2495.28449,0.00996
2493.22398,0.01003
2491.16346,0.00973
2489.10295,0.00936
2487.04243,0.00967
2484.98192,0.01032
2482.92140,0.01072
2480.86088,0.01061
2478.80037,0.00984
2476.73985,0.00909
2474.67934,0.00905
2472.61882,0.00925
2470.55831,0.00924
2468.49779,0.00940
2466.43728,0.00975
2464.37676,0.00989
2462.31624,0.00997
2460.25573,0.01011
2458.19521,0.01005
2456.13470,0.01001
2454.07418,0.01065
2452.01367,0.01143
2449.95315,0.01148
2447.89263,0.01112
2445.83212,0.01065
2443.77160,0.01011
2441.71109,0.01011
2439.65057,0.01076
2437.59006,0.01120
2435.52954,0.01112
2433.46902,0.01107
2431.40851,0.01096
2429.34799,0.01059
2427.28748,0.01054
2425.22696,0.01108
2423.16645,0.01173
2421.10593,0.01194
2419.04541,0.01159
2416.98490,0.01115
2414.92438,0.01108
2412.86387,0.01118
2410.80335,0.01130
2408.74284,0.01159
2406.68232,0.01188
2404.62180,0.01188
2402.56129,0.01195
2400.50077,0.01230
2398.44026,0.01251
2396.37974,0.01250
2394.31923,0.01249
2392.25871,0.01261
2390.19819,0.01278
2388.13768,0.01283
2386.07716,0.01261
2384.01665,0.01223
2381.95613,0.01222
2379.89562,0.01275
2377.83510,0.01316
2375.77459,0.01333
2373.71407,0.01360
2371.65355,0.01341
2369.59304,0.01307
2367.53252,0.01320
2365.47201,0.01309
2363.41149,0.01293
2361.35098,0.01310
2359.29046,0.01331
2357.22994,0.01339
2355.16943,0.01301
2353.10891,0.01288
2351.04840,0.01331
2348.98788,0.01363
2346.92737,0.01378
2344.86685,0.01393
2342.80633,0.01428
2340.74582,0.01491
2338.68530,0.01543
2336.62479,0.01577
2334.56427,0.01612
2332.50376,0.01599
2330.44324,0.01544
2328.38272,0.01543
2326.32221,0.01592
2324.26169,0.01600
2322.20118,0.01550
2320.14066,0.01517
2318.08015,0.01505
2316.01963,0.01492
2313.95911,0.01518
2311.89860,0.01596
2309.83808,0.01667
2307.77757,0.01641
2305.71705,0.01567
2303.65654,0.01568
2301.59602,0.01627
2299.53550,0.01651
2297.47499,0.01618
2295.41447,0.01575
2293.35396,0.01577
2291.29344,0.01623
2289.23293,0.01679
2287.17241,0.01752
2285.11189,0.01840
2283.05138,0.01858
2280.99086,0.01783
2278.93035,0.01722
2276.86983,0.01721
2274.80932,0.01682
2272.74880,0.01619
2270.68829,0.01646
2268.62777,0.01704
2266.56725,0.01737
2264.50674,0.01799
2262.44622,0.01864
2260.38571,0.01870
2258.32519,0.01833
2256.26468,0.01848
2254.20416,0.01865
2252.14364,0.01834
2250.08313,0.01883
2248.02261,0.01980
2245.96210,0.01984
2243.90158,0.01969
2241.84107,0.01980
2239.78055,0.01936
2237.72003,0.01876
2235.65952,0.01870
2233.59900,0.01875
2231.53849,0.01860
2229.47797,0.01863
2227.41746,0.01883
2225.35694,0.01948
2223.29642,0.02052
2221.23591,0.02098
2219.17539,0.02044
2217.11488,0.01958
2215.05436,0.01974
2212.99385,0.02046
2210.93333,0.02110
2208.87281,0.02154
2206.81230,0.02123
2204.75178,0.02137
2202.69127,0.02188
2200.63075,0.02140
2198.57024,0.02066
2196.50972,0.02031
2194.44920,0.02025
2192.38869,0.02040
2190.32817,0.02071
2188.26766,0.02168
2186.20714,0.02284
2184.14663,0.02304
2182.08611,0.02246
2180.02559,0.02224
2177.96508,0.02216
2175.90456,0.02189
2173.84405,0.02235
2171.78353,0.02242
2169.72302,0.02198
2167.66250,0.02240
2165.60199,0.02231
2163.54147,0.02065
2161.48095,0.01888
2159.42044,0.01834
2157.35992,0.01836
2155.29941,0.01854
2153.23889,0.01934
2151.17838,0.02044
2149.11786,0.02178
2147.05734,0.02273
2144.99683,0.02247
2142.93631,0.02168
2140.87580,0.02142
2138.81528,0.02184
2136.75477,0.02213
2134.69425,0.02233
2132.63373,0.02284
2130.57322,0.02336
2128.51270,0.02396
2126.45219,0.02434
2124.39167,0.02386
2122.33116,0.02284
2120.27064,0.02221
2118.21012,0.02210
2116.14961,0.02204
2114.08909,0.02212
2112.02858,0.02266
2109.96806,0.02328
2107.90755,0.02338
2105.84703,0.02321
2103.78651,0.02302
2101.72600,0.02272
2099.66548,0.02287
2097.60497,0.02319
2095.54445,0.02244
2093.48394,0.02123
2091.42342,0.02096
2089.36290,0.02103
2087.30239,0.02064
2085.24187,0.02033
2083.18136,0.02051
2081.12084,0.02055
2079.06033,0.02043
2076.99981,0.02065
2074.93930,0.02073
2072.87878,0.02064
2070.81826,0.02073
2068.75775,0.02030
2066.69723,0.01915
2064.63672,0.01872
2062.57620,0.01968
2060.51569,0.02022
2058.45517,0.01964
2056.39465,0.01920
2054.33414,0.01928
2052.27362,0.01915
2050.21311,0.01867
2048.15259,0.01840
2046.09208,0.01852
2044.03156,0.01871
2041.97104,0.01895
2039.91053,0.01930
2037.85001,0.01872
2035.78950,0.01731
2033.72898,0.01594
2031.66847,0.01407
2029.60795,0.01315
2027.54743,0.01417
2025.48692,0.01539
2023.42640,0.01652
2021.36589,0.01670
2019.30537,0.01481
2017.24486,0.01273
2015.18434,0.01247
2013.12382,0.01418
2011.06331,0.01559
2009.00279,0.01522
2006.94228,0.01493
2004.88176,0.01561
2002.82125,0.01600
2000.76073,0.01581
1998.70021,0.01567
1996.63970,0.01510
1994.57918,0.01445
1992.51867,0.01457
1990.45815,0.01494
1988.39764,0.01531
1986.33712,0.01529
1984.27660,0.01489
1982.21609,0.01486
1980.15557,0.01412
1978.09506,0.01219
1976.03454,0.01207
1973.97403,0.01408
1971.91351,0.01482
1969.85300,0.01334
1967.79248,0.01184
1965.73196,0.01132
1963.67145,0.01090
1961.61093,0.01171
1959.55042,0.01407
1957.48990,0.01498
1955.42939,0.01354
1953.36887,0.01253
1951.30835,0.01314
1949.24784,0.01402
1947.18732,0.01467
1945.12681,0.01528
1943.06629,0.01542
1941.00578,0.01481
1938.94526,0.01401
1936.88474,0.01345
1934.82423,0.01321
1932.76371,0.01302
1930.70320,0.01300
1928.64268,0.01357
1926.58217,0.01396
1924.52165,0.01366
1922.46113,0.01351
1920.40062,0.01376
1918.34010,0.01400
1916.27959,0.01371
1914.21907,0.01296
1912.15856,0.01282
1910.09804,0.01344
1908.03752,0.01360
1905.97701,0.01312
1903.91649,0.01299
1901.85598,0.01322
1899.79546,0.01336
1897.73495,0.01361
1895.67443,0.01378
1893.61391,0.01351
1891.55340,0.01330
1889.49288,0.01362
1887.43237,0.01392
1885.37185,0.01399
1883.31134,0.01428
1881.25082,0.01432
1879.19030,0.01372
1877.12979,0.01306
1875.06927,0.01285
1873.00876,0.01303
1870.94824,0.01337
1868.88773,0.01423
1866.82721,0.01507
1864.76670,0.01470
1862.70618,0.01394
1860.64566,0.01366
1858.58515,0.01384
1856.52463,0.01429
1854.46412,0.01447
1852.40360,0.01426
1850.34309,0.01412
1848.28257,0.01415
1846.22205,0.01401
1844.16154,0.01361
1842.10102,0.01365
1840.04051,0.01402
1837.97999,0.01429
1835.91948,0.01494
1833.85896,0.01566
1831.79844,0.01588
1829.73793,0.01593
1827.67741,0.01552
1825.61690,0.01478
1823.55638,0.01494
1821.49587,0.01575
1819.43535,0.01597
1817.37483,0.01567
1815.31432,0.01549
1813.25380,0.01552
1811.19329,0.01566
1809.13277,0.01603
1807.07226,0.01646
1805.01174,0.01679
1802.95122,0.01721
1800.89071,0.01747
1798.83019,0.01738
1796.76968,0.01748
1794.70916,0.01795
1792.64865,0.01842
1790.58813,0.01872
1788.52761,0.01875
1786.46710,0.01870
1784.40658,0.01889
1782.34607,0.01913
1780.28555,0.01930
1778.22504,0.01972
1776.16452,0.02028
1774.10400,0.02069
1772.04349,0.02102
1769.98297,0.02142
1767.92246,0.02196
1765.86194,0.02266
1763.80143,0.02336
1761.74091,0.02369
1759.68040,0.02378
1757.61988,0.02423
1755.55936,0.02509
1753.49885,0.02579
1751.43833,0.02612
1749.37782,0.02671
1747.31730,0.02783
1745.25679,0.02883
1743.19627,0.02957
1741.13575,0.03031
1739.07524,0.03133
1737.01472,0.03238
1734.95421,0.03338
1732.89369,0.03495
1730.83318,0.03645
1728.77266,0.03745
1726.71214,0.03839
1724.65163,0.03979
1722.59111,0.04156
1720.53060,0.04303
1718.47008,0.04440
1716.40957,0.04646
1714.34905,0.04886
1712.28853,0.05101
1710.22802,0.05309
1708.16750,0.05534
1706.10699,0.05788
1704.04647,0.06022
1701.98596,0.06225
1699.92544,0.06510
1697.86492,0.06856
1695.80441,0.07218
1693.74389,0.07584
1691.68338,0.07887
1689.62286,0.08185
1687.56235,0.08485
1685.50183,0.08815
1683.44131,0.09265
1681.38080,0.09688
1679.32028,0.10054
1677.25977,0.10421
1675.19925,0.10808
1673.13874,0.11171
1671.07822,0.11501
1669.01771,0.11895
1666.95719,0.12314
1664.89667,0.12676
1662.83616,0.13025
1660.77564,0.13372
1658.71513,0.13690
1656.65461,0.13963
1654.59410,0.14214
1652.53358,0.14544
1650.47306,0.14842
1648.41255,0.15051
1646.35203,0.15232
1644.29152,0.15370
1642.23100,0.15474
1640.17049,0.15555
1638.10997,0.15584
1636.04945,0.15528
1633.98894,0.15417
1631.92842,0.15294
1629.86791,0.15084
1627.80739,0.14772
1625.74688,0.14455
1623.68636,0.14125
1621.62584,0.13754
1619.56533,0.13408
1617.50481,0.12969
1615.44430,0.12426
1613.38378,0.12031
1611.32327,0.11693
1609.26275,0.11287
1607.20223,0.10856
1605.14172,0.10458
1603.08120,0.10103
1601.02069,0.09806
1598.96017,0.09540
1596.89966,0.09247
1594.83914,0.08930
1592.77862,0.08639
1590.71811,0.08398
1588.65759,0.08175
1586.59708,0.07954
1584.53656,0.07749
1582.47605,0.07583
1580.41553,0.07444
1578.35501,0.07304
1576.29450,0.07138
1574.23398,0.06980
1572.17347,0.06854
1570.11295,0.06713
1568.05244,0.06589
1565.99192,0.06511
1563.93141,0.06425
1561.87089,0.06307
1559.81037,0.06142
1557.74986,0.06020
1555.68934,0.06022
1553.62883,0.06003
1551.56831,0.05929
1549.50780,0.05837
1547.44728,0.05763
1545.38676,0.05698
1543.32625,0.05628
1541.26573,0.05554
1539.20522,0.05486
1537.14470,0.05446
1535.08419,0.05404
1533.02367,0.05358
1530.96315,0.05341
1528.90264,0.05331
1526.84212,0.05286
1524.78161,0.05219
1522.72109,0.05176
1520.66058,0.05179
1518.60006,0.05206
1516.53954,0.05195
1514.47903,0.05141
1512.41851,0.05094
1510.35800,0.05060
1508.29748,0.05016
1506.23697,0.04971
1504.17645,0.04979
1502.11593,0.05013
1500.05542,0.05033
1497.99490,0.05022
1495.93439,0.05015
1493.87387,0.05047
1491.81336,0.05107
1489.75284,0.05254
1487.69232,0.05616
1485.63181,0.06254
1483.57129,0.07040
1481.51078,0.07501
1479.45026,0.07262
1477.38975,0.06670
1475.32923,0.06261
1473.26871,0.06243
1471.20820,0.06566
1469.14768,0.06948
1467.08717,0.07217
1465.02665,0.07293
1462.96614,0.07171
1460.90562,0.06972
1458.84511,0.06711
1456.78459,0.06392
1454.72407,0.06199
1452.66356,0.06101
1450.60304,0.05985
1448.54253,0.05846
1446.48201,0.05732
1444.42150,0.05647
1442.36098,0.05558
1440.30046,0.05476
1438.23995,0.05388
1436.17943,0.05271
1434.11892,0.05178
1432.05840,0.05109
1429.99789,0.05040
1427.93737,0.04992
1425.87685,0.04951
1423.81634,0.04895
1421.75582,0.04839
1419.69531,0.04791
1417.63479,0.04785
1415.57428,0.04793
1413.51376,0.04786
1411.45324,0.04826
1409.39273,0.04943
1407.33221,0.05119
1405.27170,0.05304
1403.21118,0.05370
1401.15067,0.05257
1399.09015,0.05052
1397.02963,0.04878
1394.96912,0.04770
1392.90860,0.04709
1390.84809,0.04679
1388.78757,0.04647
1386.72706,0.04606
1384.66654,0.04576
1382.60602,0.04566
1380.54551,0.04570
1378.48499,0.04568
1376.42448,0.04559
1374.36396,0.04552
1372.30345,0.04545
1370.24293,0.04536
1368.18241,0.04537
1366.12190,0.04545
1364.06138,0.04535
1362.00087,0.04507
1359.94035,0.04492
1357.87984,0.04502
1355.81932,0.04518
1353.75881,0.04510
1351.69829,0.04486
1349.63777,0.04481
1347.57726,0.04488
1345.51674,0.04493
1343.45623,0.04491
1341.39571,0.04480
1339.33520,0.04472
1337.27468,0.04476
1335.21416,0.04476
1333.15365,0.04463
1331.09313,0.04447
1329.03262,0.04444
1326.97210,0.04454
1324.91159,0.04465
1322.85107,0.04463
1320.79055,0.04448
1318.73004,0.04444
1316.66952,0.04450
1314.60901,0.04458
1312.54849,0.04472
1310.48798,0.04476
1308.42746,0.04465
1306.36694,0.04466
1304.30643,0.04488
1302.24591,0.04502
1300.18540,0.04493
1298.12488,0.04467
1296.06437,0.04432
1294.00385,0.04419
1291.94333,0.04448
1289.88282,0.04477
1287.82230,0.04474
1285.76179,0.04454
1283.70127,0.04441
1281.64076,0.04442
1279.58024,0.04441
1277.51972,0.04433
1275.45921,0.04439
1273.39869,0.04450
1271.33818,0.04450
1269.27766,0.04460
1267.21715,0.04467
1265.15663,0.04448
1263.09612,0.04427
1261.03560,0.04424
1258.97508,0.04456
1256.91457,0.04524
1254.85405,0.04597
1252.79354,0.04674
1250.73302,0.04788
1248.67251,0.04967
1246.61199,0.05222
1244.55147,0.05547
1242.49096,0.05880
1240.43044,0.06097
1238.36993,0.06123
1236.30941,0.05976
1234.24890,0.05701
1232.18838,0.05385
1230.12786,0.05132
1228.06735,0.04972
1226.00683,0.04861
1223.94632,0.04767
1221.88580,0.04685
1219.82529,0.04628
1217.76477,0.04603
1215.70425,0.04592
1213.64374,0.04570
1211.58322,0.04543
1209.52271,0.04539
1207.46219,0.04550
1205.40168,0.04542
1203.34116,0.04523
1201.28064,0.04511
1199.22013,0.04495
1197.15961,0.04478
1195.09910,0.04475
1193.03858,0.04482
1190.97807,0.04487
1188.91755,0.04486
1186.85703,0.04483
1184.79652,0.04475
1182.73600,0.04470
1180.67549,0.04466
1178.61497,0.04462
1176.55446,0.04472
1174.49394,0.04492
1172.43342,0.04503
1170.37291,0.04498
1168.31239,0.04474
1166.25188,0.04453
1164.19136,0.04459
1162.13085,0.04479
1160.07033,0.04479
1158.00982,0.04465
1155.94930,0.04449
1153.88878,0.04427
1151.82827,0.04421
1149.76775,0.04439
1147.70724,0.04452
1145.64672,0.04459
1143.58621,0.04463
1141.52569,0.04461
1139.46517,0.04472
1137.40466,0.04493
1135.34414,0.04501
1133.28363,0.04484
1131.22311,0.04467
1129.16260,0.04484
1127.10208,0.04535
1125.04156,0.04598
1122.98105,0.04634
1120.92053,0.04641
1118.86002,0.04630
1116.79950,0.04607
1114.73899,0.04580
1112.67847,0.04567
1110.61795,0.04571
1108.55744,0.04578
1106.49692,0.04602
1104.43641,0.04632
1102.37589,0.04628
1100.31538,0.04614
1098.25486,0.04631
1096.19434,0.04661
1094.13383,0.04670
1092.07331,0.04670
1090.01280,0.04678
1087.95228,0.04708
1085.89177,0.04757
1083.83125,0.04785
1081.77073,0.04772
1079.71022,0.04764
1077.64970,0.04798
1075.58919,0.04837
1073.52867,0.04839
1071.46816,0.04827
1069.40764,0.04814
1067.34712,0.04801
1065.28661,0.04800
1063.22609,0.04791
1061.16558,0.04765
1059.10506,0.04751
1057.04455,0.04763
1054.98403,0.04795
1052.92352,0.04819
1050.86300,0.04807
1048.80248,0.04792
1046.74197,0.04814
1044.68145,0.04848
1042.62094,0.04861
1040.56042,0.04869
1038.49991,0.04892
1036.43939,0.04917
1034.37887,0.04940
1032.31836,0.04957
1030.25784,0.04966
1028.19733,0.04974
1026.13681,0.04993
1024.07630,0.05010
1022.01578,0.05020
1019.95526,0.05037
1017.89475,0.05047
1015.83423,0.05048
1013.77372,0.05083
1011.71320,0.05162
1009.65269,0.05238
1007.59217,0.05277
1005.53165,0.05291
1003.47114,0.05320
1001.41062,0.05365
999.35011,0.05402
997.28959,0.05452
995.22908,0.05537
993.16856,0.05618
991.10804,0.05652
989.04753,0.05680
986.98701,0.05756
984.92650,0.05852
982.86598,0.05901
980.80547,0.05932
978.74495,0.06013
976.68443,0.06112
974.62392,0.06180
972.56340,0.06254
970.50289,0.06377
968.44237,0.06517
966.38186,0.06672
964.32134,0.06897
962.26082,0.07235
960.20031,0.07715
958.13979,0.08338
956.07928,0.09084
954.01876,0.09890
951.95825,0.10573
949.89773,0.10922
947.83722,0.10872
945.77670,0.10469
943.71618,0.09852
941.65567,0.09254
939.59515,0.08823
937.53464,0.08573
935.47412,0.08442
933.41361,0.08372
931.35309,0.08355
929.29257,0.08379
927.23206,0.08433
925.17154,0.08519
923.11103,0.08621
921.05051,0.08718
918.99000,0.08818
916.92948,0.08947
914.86896,0.09103
912.80845,0.09257
910.74793,0.09387
908.68742,0.09513
906.62690,0.09667
904.56639,0.09840
902.50587,0.10006
900.44535,0.10168
898.38484,0.10343
896.32432,0.10543
894.26381,0.10761
892.20329,0.10985
890.14278,0.11194
888.08226,0.11382
886.02174,0.11591
883.96123,0.11811
881.90071,0.11968
879.84020,0.12098
877.77968,0.12292
875.71917,0.12549
873.65865,0.12804
871.59813,0.13029
869.53762,0.13239
867.47710,0.13440
865.41659,0.13666
863.35607,0.13917
861.29556,0.14123
859.23504,0.14292
857.17453,0.14507
855.11401,0.14773
853.05349,0.15034
850.99298,0.15335
848.93246,0.15657
846.87195,0.15865
844.81143,0.16018
842.75092,0.16259
840.69040,0.16560
838.62988,0.16826
836.56937,0.17065
834.50885,0.17310
832.44834,0.17566
830.38782,0.17845
828.32731,0.18116
826.26679,0.18355
824.20627,0.18590
822.14576,0.18863
820.08524,0.19188
818.02473,0.19512
815.96421,0.19807
813.90370,0.20073
811.84318,0.20315
809.78266,0.20517
807.72215,0.20710
805.66163,0.20970
803.60112,0.21285
801.54060,0.21564
799.48009,0.21768
797.41957,0.22052
795.35905,0.22445
793.29854,0.22766
791.23802,0.23000
789.17751,0.23233
787.11699,0.23467
785.05648,0.23716
782.99596,0.24027
780.93544,0.24400
778.87493,0.24782
776.81441,0.25099
774.75390,0.25355
772.69338,0.25645
770.63287,0.26028
768.57235,0.26447
766.51183,0.26826
764.45132,0.27189
762.39080,0.27634
760.33029,0.28212
758.26977,0.28780
756.20926,0.29182
754.14874,0.29406
752.08823,0.29545
750.02771,0.29721
747.96719,0.29904
745.90668,0.29995
743.84616,0.30084
741.78565,0.30288
739.72513,0.30534
737.66462,0.30712
735.60410,0.30886
733.54358,0.31148
731.48307,0.31424
729.42255,0.31630
727.36204,0.31854
725.30152,0.32153
723.24101,0.32418
721.18049,0.32657
719.11997,0.32981
717.05946,0.33351
714.99894,0.33704
712.93843,0.33995
710.87791,0.34200
708.81740,0.34406
706.75688,0.34668
704.69636,0.34952
702.63585,0.35231
700.57533,0.35493
698.51482,0.35746
696.45430,0.35947
694.39379,0.36140
692.33327,0.36465
690.27275,0.36882
688.21224,0.37240
686.15172,0.37520
684.09121,0.37824
682.03069,0.38142
679.97018,0.38322
677.90966,0.38348
675.84914,0.38361
673.78863,0.38519
671.72811,0.38880
669.66760,0.39330
667.60708,0.39651
665.54657,0.39732
663.48605,0.39792
661.42553,0.39941
659.36502,0.40158
657.30450,0.40384
655.24399,0.40708
653.18347,0.41101
651.12296,0.41337
649.06244,0.41394
647.00193,0.41465
644.94141,0.41734
642.88089,0.42114
640.82038,0.42372
638.75986,0.42579
636.69935,0.42816
634.63883,0.42923
632.57832,0.42893
630.51780,0.42982
628.45728,0.43316
626.39677,0.43647
624.33625,0.43822
622.27574,0.44002
620.21522,0.44276
618.15471,0.44532
616.09419,0.44662
614.03367,0.44761
611.97316,0.44866
609.91264,0.44984
607.85213,0.45233
605.79161,0.45541
603.73110,0.45682
601.67058,0.45697
599.61006,0.45785
597.54955,0.45910
595.48903,0.45966
593.42852,0.46054
591.36800,0.46274
589.30749,0.46558
587.24697,0.46843
585.18645,0.47100
583.12594,0.47156
581.06542,0.46951
579.00491,0.46808
576.94439,0.46922
574.88388,0.47150
572.82336,0.47454
570.76284,0.47840
568.70233,0.48085
566.64181,0.48048
564.58130,0.47827
562.52078,0.47680
560.46027,0.47855
558.39975,0.48131
556.33924,0.48277
554.27872,0.48377
552.21820,0.48468
550.15769,0.48634
548.09717,0.48853
546.03666,0.48925
543.97614,0.48939
541.91563,0.49116
539.85511,0.49267
537.79459,0.49381
535.73408,0.49509
533.67356,0.49467
531.61305,0.49491
529.55253,0.49702
527.49202,0.49828
525.43150,0.49956
523.37098,0.50308
521.31047,0.50670
519.24995,0.50826
517.18944,0.51095
515.12892,0.51517
513.06841,0.51532
511.00789,0.51326
508.94737,0.51569
506.88686,0.52220
504.82634,0.52861
502.76583,0.53366
500.70531,0.53897
498.64480,0.54464
496.58428,0.54735
494.52376,0.54576
492.46325,0.54227
490.40273,0.53908
488.34222,0.53704
486.28170,0.53396
484.22119,0.53017
482.16067,0.52669
480.10015,0.52084
478.03964,0.51845
475.97912,0.52354
473.91861,0.52708
471.85809,0.52783
469.79758,0.53734
467.73706,0.55397
465.67654,0.56625
463.61603,0.57346
461.55551,0.57408
459.49500,0.56424
457.43448,0.55319
455.37397,0.54758
453.31345,0.54366
451.25294,0.54299
449.19242,0.54546
447.13190,0.54422
445.07139,0.53802
443.01087,0.53298
440.95036,0.53346
438.88984,0.53455
436.82933,0.53034
434.76881,0.52835
432.70829,0.53702
430.64778,0.54577
428.58726,0.54087
426.52675,0.52942
424.46623,0.52284
422.40572,0.52167
420.34520,0.52569
418.28468,0.53074
416.22417,0.53040
414.16365,0.53279
412.10314,0.53487
410.04262,0.53019
407.98211,0.53265
405.92159,0.54443
403.86107,0.54669
401.80056,0.53430
399.74004,0.51859
