3997.40043,0.00327
3995.33991,0.00303
3993.27940,0.00286
3991.21888,0.00297
3989.15837,0.00306
3987.09785,0.00285
3985.03734,0.00271
3982.97682,0.00304
3980.91630,0.00331
3978.85579,0.00303
3976.79527,0.00263
3974.73476,0.00245
3972.67424,0.00230
3970.61373,0.00223
3968.55321,0.00218
3966.49269,0.00204
3964.43218,0.00214
3962.37166,0.00254
3960.31115,0.00270
3958.25063,0.00269
3956.19012,0.00290
3954.12960,0.00317
3952.06908,0.00320
3950.00857,0.00304
3947.94805,0.00289
3945.88754,0.00287
3943.82702,0.00290
3941.76651,0.00282
3939.70599,0.00302
3937.64547,0.00342
3935.58496,0.00326
3933.52444,0.00297
3931.46393,0.00313
3929.40341,0.00313
3927.34290,0.00276
3925.28238,0.00226
3923.22186,0.00179
3921.16135,0.00161
3919.10083,0.00188
3917.04032,0.00242
3914.97980,0.00274
3912.91929,0.00290
3910.85877,0.00316
3908.79825,0.00326
3906.73774,0.00324
3904.67722,0.00333
3902.61671,0.00317
3900.55619,0.00259
3898.49568,0.00238
3896.43516,0.00295
3894.37465,0.00354
3892.31413,0.00352
3890.25361,0.00311
3888.19310,0.00281
3886.13258,0.00261
3884.07207,0.00265
3882.01155,0.00280
3879.95104,0.00293
3877.89052,0.00308
3875.83000,0.00291
3873.76949,0.00248
3871.70897,0.00242
3869.64846,0.00292
3867.58794,0.00333
3865.52743,0.00333
3863.46691,0.00325
3861.40639,0.00330
3859.34588,0.00329
3857.28536,0.00309
3855.22485,0.00283
3853.16433,0.00280
3851.10382,0.00278
3849.04330,0.00256
3846.98278,0.00245
3844.92227,0.00256
3842.86175,0.00292
3840.80124,0.00340
3838.74072,0.00351
3836.68021,0.00304
3834.61969,0.00276
3832.55917,0.00289
3830.49866,0.00308
3828.43814,0.00331
3826.37763,0.00383
3824.31711,0.00425
3822.25660,0.00394
3820.19608,0.00311
3818.13556,0.00252
3816.07505,0.00254
3814.01453,0.00306
3811.95402,0.00352
3809.89350,0.00370
3807.83299,0.00365
3805.77247,0.00354
3803.71195,0.00344
3801.65144,0.00345
3799.59092,0.00365
3797.53041,0.00366
3795.46989,0.00344
3793.40938,0.00338
3791.34886,0.00350
3789.28835,0.00350
3787.22783,0.00352
3785.16731,0.00393
3783.10680,0.00418
3781.04628,0.00384
3778.98577,0.00359
3776.92525,0.00408
3774.86474,0.00472
3772.80422,0.00461
3770.74370,0.00413
3768.68319,0.00426
3766.62267,0.00449
3764.56216,0.00420
3762.50164,0.00417
3760.44113,0.00476
3758.38061,0.00522
3756.32009,0.00517
3754.25958,0.00498
3752.19906,0.00504
3750.13855,0.00521
3748.07803,0.00502
3746.01752,0.00498
3743.95700,0.00533
3741.89648,0.00562
3739.83597,0.00596
3737.77545,0.00637
3735.71494,0.00632
3733.65442,0.00606
3731.59391,0.00607
3729.53339,0.00594
3727.47287,0.00574
3725.41236,0.00581
3723.35184,0.00637
3721.29133,0.00704
3719.23081,0.00723
3717.17030,0.00745
3715.10978,0.00791
3713.04926,0.00799
3710.98875,0.00816
3708.92823,0.00909
3706.86772,0.01020
3704.80720,0.01105
3702.74669,0.01133
3700.68617,0.01149
3698.62565,0.01203
3696.56514,0.01237
3694.50462,0.01235
3692.44411,0.01281
3690.38359,0.01431
3688.32308,0.01625
3686.26256,0.01772
3684.20205,0.01876
3682.14153,0.01959
3680.08101,0.02027
3678.02050,0.02116
3675.95998,0.02272
3673.89947,0.02460
3671.83895,0.02613
3669.77844,0.02769
3667.71792,0.02926
3665.65740,0.03081
3663.59689,0.03258
3661.53637,0.03430
3659.47586,0.03596
3657.41534,0.03782
3655.35483,0.03961
3653.29431,0.04123
3651.23379,0.04343
3649.17328,0.04609
3647.11276,0.04801
3645.05225,0.04951
3642.99173,0.05120
3640.93122,0.05263
3638.87070,0.05365
3636.81018,0.05535
3634.74967,0.05797
3632.68915,0.06026
3630.62864,0.06180
3628.56812,0.06302
3626.50761,0.06437
3624.44709,0.06591
3622.38657,0.06751
3620.32606,0.06940
3618.26554,0.07169
3616.20503,0.07387
3614.14451,0.07573
3612.08400,0.07712
3610.02348,0.07805
3607.96296,0.07913
3605.90245,0.08096
3603.84193,0.08324
3601.78142,0.08569
3599.72090,0.08758
3597.66039,0.08865
3595.59987,0.09014
3593.53936,0.09221
3591.47884,0.09403
3589.41832,0.09565
3587.35781,0.09725
3585.29729,0.09879
3583.23678,0.10043
3581.17626,0.10212
3579.11575,0.10370
3577.05523,0.10541
3574.99471,0.10734
3572.93420,0.10936
3570.87368,0.11148
3568.81317,0.11382
3566.75265,0.11655
3564.69214,0.11900
3562.63162,0.12043
3560.57110,0.12150
3558.51059,0.12344
3556.45007,0.12608
3554.38956,0.12840
3552.32904,0.13045
3550.26853,0.13268
3548.20801,0.13481
3546.14749,0.13682
3544.08698,0.13922
3542.02646,0.14192
3539.96595,0.14416
3537.90543,0.14591
3535.84492,0.14791
3533.78440,0.15040
3531.72388,0.15298
3529.66337,0.15525
3527.60285,0.15765
3525.54234,0.16009
3523.48182,0.16177
3521.42131,0.16354
3519.36079,0.16595
3517.30027,0.16844
3515.23976,0.17104
3513.17924,0.17374
3511.11873,0.17629
3509.05821,0.17878
3506.99770,0.18120
3504.93718,0.18316
3502.87666,0.18461
3500.81615,0.18630
3498.75563,0.18859
3496.69512,0.19117
3494.63460,0.19374
3492.57409,0.19629
3490.51357,0.19902
3488.45306,0.20142
3486.39254,0.20332
3484.33202,0.20553
3482.27151,0.20826
3480.21099,0.21066
3478.15048,0.21297
3476.08996,0.21578
3474.02945,0.21831
3471.96893,0.22058
3469.90841,0.22317
3467.84790,0.22560
3465.78738,0.22805
3463.72687,0.23104
3461.66635,0.23376
3459.60584,0.23566
3457.54532,0.23759
3455.48480,0.24036
3453.42429,0.24337
3451.36377,0.24594
3449.30326,0.24818
3447.24274,0.25031
3445.18223,0.25285
3443.12171,0.25547
3441.06119,0.25814
3439.00068,0.26130
3436.94016,0.26391
3434.87965,0.26549
3432.81913,0.26747
3430.75862,0.27052
3428.69810,0.27372
3426.63758,0.27632
3424.57707,0.27847
3422.51655,0.28047
3420.45604,0.28271
3418.39552,0.28564
3416.33501,0.28846
3414.27449,0.29067
3412.21397,0.29283
3410.15346,0.29507
3408.09294,0.29717
3406.03243,0.29923
3403.97191,0.30136
3401.91140,0.30346
3399.85088,0.30554
3397.79036,0.30757
3395.72985,0.30898
3393.66933,0.30984
3391.60882,0.31127
3389.54830,0.31354
3387.48779,0.31595
3385.42727,0.31809
3383.36676,0.32001
3381.30624,0.32170
3379.24572,0.32299
3377.18521,0.32387
3375.12469,0.32461
3373.06418,0.32519
3371.00366,0.32561
3368.94315,0.32676
3366.88263,0.32862
3364.82211,0.33009
3362.76160,0.33090
3360.70108,0.33149
3358.64057,0.33241
3356.58005,0.33360
3354.51954,0.33445
3352.45902,0.33456
3350.39850,0.33427
3348.33799,0.33474
3346.27747,0.33598
3344.21696,0.33686
3342.15644,0.33744
3340.09593,0.33793
3338.03541,0.33805
3335.97489,0.33857
3333.91438,0.33970
3331.85386,0.34049
3329.79335,0.34086
3327.73283,0.34119
3325.67232,0.34111
3323.61180,0.34094
3321.55128,0.34142
3319.49077,0.34178
3317.43025,0.34124
3315.36974,0.34071
3313.30922,0.34081
3311.24871,0.34068
3309.18819,0.34024
3307.12767,0.34043
3305.06716,0.34114
3303.00664,0.34143
3300.94613,0.34139
3298.88561,0.34175
3296.82510,0.34246
3294.76458,0.34270
3292.70406,0.34212
3290.64355,0.34157
3288.58303,0.34153
3286.52252,0.34179
3284.46200,0.34234
3282.40149,0.34294
3280.34097,0.34323
3278.28046,0.34336
3276.21994,0.34373
3274.15942,0.34406
3272.09891,0.34372
3270.03839,0.34301
3267.97788,0.34314
3265.91736,0.34366
3263.85685,0.34327
3261.79633,0.34291
3259.73581,0.34334
3257.67530,0.34376
3255.61478,0.34383
3253.55427,0.34368
3251.49375,0.34350
3249.43324,0.34286
3247.37272,0.34169
3245.31220,0.34137
3243.25169,0.34192
3241.19117,0.34175
3239.13066,0.34104
3237.07014,0.34035
3235.00963,0.33899
3232.94911,0.33755
3230.88859,0.33707
3228.82808,0.33701
3226.76756,0.33637
3224.70705,0.33521
3222.64653,0.33413
3220.58602,0.33259
3218.52550,0.33057
3216.46498,0.32914
3214.40447,0.32812
3212.34395,0.32704
3210.28344,0.32555
3208.22292,0.32347
3206.16241,0.32148
3204.10189,0.31994
3202.04137,0.31844
3199.98086,0.31662
3197.92034,0.31444
3195.85983,0.31220
3193.79931,0.31017
3191.73880,0.30807
3189.67828,0.30537
3187.61777,0.30263
3185.55725,0.30053
3183.49673,0.29857
3181.43622,0.29641
3179.37570,0.29421
3177.31519,0.29184
3175.25467,0.28903
3173.19416,0.28584
3171.13364,0.28273
3169.07312,0.28022
3167.01261,0.27801
3164.95209,0.27531
3162.89158,0.27225
3160.83106,0.26926
3158.77055,0.26601
3156.71003,0.26275
3154.64951,0.25990
3152.58900,0.25717
3150.52848,0.25468
3148.46797,0.25238
3146.40745,0.24977
3144.34694,0.24673
3142.28642,0.24331
3140.22590,0.23997
3138.16539,0.23715
3136.10487,0.23465
3134.04436,0.23189
3131.98384,0.22867
3129.92333,0.22586
3127.86281,0.22353
3125.80229,0.22109
3123.74178,0.21838
3121.68126,0.21520
3119.62075,0.21178
3117.56023,0.20874
3115.49972,0.20628
3113.43920,0.20375
3111.37868,0.20099
3109.31817,0.19836
3107.25765,0.19558
3105.19714,0.19288
3103.13662,0.19048
3101.07611,0.18782
3099.01559,0.18501
3096.95507,0.18261
3094.89456,0.18026
3092.83404,0.17757
3090.77353,0.17493
3088.71301,0.17260
3086.65250,0.17025
3084.59198,0.16746
3082.53147,0.16459
3080.47095,0.16215
3078.41043,0.16028
3076.34992,0.15885
3074.28940,0.15715
3072.22889,0.15476
3070.16837,0.15221
3068.10786,0.14990
3066.04734,0.14767
3063.98682,0.14537
3061.92631,0.14314
3059.86579,0.14116
3057.80528,0.13904
3055.74476,0.13662
3053.68425,0.13457
3051.62373,0.13283
3049.56321,0.13087
3047.50270,0.12906
3045.44218,0.12764
3043.38167,0.12602
3041.32115,0.12404
3039.26064,0.12201
3037.20012,0.12000
3035.13960,0.11817
3033.07909,0.11662
3031.01857,0.11524
3028.95806,0.11386
3026.89754,0.11236
3024.83703,0.11068
3022.77651,0.10892
3020.71599,0.10728
3018.65548,0.10585
3016.59496,0.10431
3014.53445,0.10251
3012.47393,0.10081
3010.41342,0.09929
3008.35290,0.09766
3006.29238,0.09599
3004.23187,0.09443
3002.17135,0.09282
3000.11084,0.09129
2998.05032,0.09020
2995.98981,0.08925
2993.92929,0.08791
2991.86877,0.08631
2989.80826,0.08478
2987.74774,0.08364
2985.68723,0.08272
2983.62671,0.08149
2981.56620,0.08008
2979.50568,0.07892
2977.44517,0.07817
2975.38465,0.07755
2973.32413,0.07659
2971.26362,0.07527
2969.20310,0.07399
2967.14259,0.07296
2965.08207,0.07225
2963.02156,0.07159
2960.96104,0.07065
2958.90052,0.06938
2956.84001,0.06801
2954.77949,0.06668
2952.71898,0.06546
2950.65846,0.06454
2948.59795,0.06371
2946.53743,0.06277
2944.47691,0.06172
2942.41640,0.06056
2940.35588,0.05951
2938.29537,0.05853
2936.23485,0.05746
2934.17434,0.05668
2932.11382,0.05606
2930.05330,0.05506
2927.99279,0.05388
2925.93227,0.05295
2923.87176,0.05239
2921.81124,0.05192
2919.75073,0.05112
2917.69021,0.05027
2915.62969,0.04955
2913.56918,0.04872
2911.50866,0.04794
2909.44815,0.04750
2907.38763,0.04714
2905.32712,0.04651
2903.26660,0.04569
2901.20608,0.04483
2899.14557,0.04396
2897.08505,0.04301
2895.02454,0.04199
2892.96402,0.04117
2890.90351,0.04068
2888.84299,0.04025
2886.78247,0.03963
2884.72196,0.03908
2882.66144,0.03881
2880.60093,0.03844
2878.54041,0.03775
2876.47990,0.03690
2874.41938,0.03614
2872.35887,0.03554
2870.29835,0.03492
2868.23783,0.03427
2866.17732,0.03388
2864.11680,0.03369
2862.05629,0.03334
2859.99577,0.03298
2857.93526,0.03267
2855.87474,0.03216
2853.81422,0.03153
2851.75371,0.03098
2849.69319,0.03053
2847.63268,0.03012
2845.57216,0.02953
2843.51165,0.02879
2841.45113,0.02816
2839.39061,0.02773
2837.33010,0.02751
2835.26958,0.02725
2833.20907,0.02673
2831.14855,0.02623
2829.08804,0.02587
2827.02752,0.02563
2824.96700,0.02561
2822.90649,0.02558
2820.84597,0.02539
2818.78546,0.02502
2816.72494,0.02444
2814.66443,0.02382
2812.60391,0.02324
2810.54339,0.02284
2808.48288,0.02271
2806.42236,0.02246
2804.36185,0.02194
2802.30133,0.02138
2800.24082,0.02115
2798.18030,0.02112
2796.11978,0.02092
2794.05927,0.02071
2791.99875,0.02065
2789.93824,0.02029
2787.87772,0.01960
2785.81721,0.01916
2783.75669,0.01911
2781.69618,0.01917
2779.63566,0.01921
2777.57514,0.01914
2775.51463,0.01875
2773.45411,0.01816
2771.39360,0.01766
2769.33308,0.01736
2767.27257,0.01719
2765.21205,0.01696
2763.15153,0.01670
2761.09102,0.01645
2759.03050,0.01627
2756.96999,0.01614
2754.90947,0.01589
2752.84896,0.01560
2750.78844,0.01541
2748.72792,0.01537
2746.66741,0.01539
2744.60689,0.01531
2742.54638,0.01515
2740.48586,0.01499
2738.42535,0.01491
2736.36483,0.01480
2734.30431,0.01455
2732.24380,0.01418
2730.18328,0.01379
2728.12277,0.01366
2726.06225,0.01373
2724.00174,0.01359
2721.94122,0.01326
2719.88070,0.01317
2717.82019,0.01330
2715.75967,0.01325
2713.69916,0.01302
2711.63864,0.01286
2709.57813,0.01281
2707.51761,0.01268
2705.45709,0.01254
2703.39658,0.01256
2701.33606,0.01241
2699.27555,0.01211
2697.21503,0.01197
2695.15452,0.01190
2693.09400,0.01181
2691.03348,0.01164
2688.97297,0.01132
2686.91245,0.01110
2684.85194,0.01105
2682.79142,0.01106
2680.73091,0.01115
2678.67039,0.01119
2676.60988,0.01107
2674.54936,0.01085
2672.48884,0.01072
2670.42833,0.01079
2668.36781,0.01081
2666.30730,0.01070
2664.24678,0.01056
2662.18627,0.01033
2660.12575,0.01008
2658.06523,0.00998
2656.00472,0.00995
2653.94420,0.00997
2651.88369,0.01006
2649.82317,0.00987
2647.76266,0.00932
2645.70214,0.00898
2643.64162,0.00914
2641.58111,0.00931
2639.52059,0.00916
2637.46008,0.00901
2635.39956,0.00889
2633.33905,0.00868
2631.27853,0.00878
2629.21801,0.00903
2627.15750,0.00875
2625.09698,0.00841
2623.03647,0.00853
2620.97595,0.00881
2618.91544,0.00904
2616.85492,0.00897
2614.79440,0.00863
2612.73389,0.00850
2610.67337,0.00844
2608.61286,0.00841
2606.55234,0.00881
2604.49183,0.00919
2602.43131,0.00903
2600.37079,0.00874
2598.31028,0.00866
2596.24976,0.00880
2594.18925,0.00893
2592.12873,0.00872
2590.06822,0.00835
2588.00770,0.00814
2585.94718,0.00811
2583.88667,0.00805
2581.82615,0.00797
2579.76564,0.00809
2577.70512,0.00847
2575.64461,0.00869
2573.58409,0.00871
2571.52358,0.00862
2569.46306,0.00821
2567.40254,0.00772
2565.34203,0.00749
2563.28151,0.00750
2561.22100,0.00780
2559.16048,0.00834
2557.09997,0.00885
2555.03945,0.00895
2552.97893,0.00863
2550.91842,0.00827
2548.85790,0.00800
2546.79739,0.00803
2544.73687,0.00840
2542.67636,0.00864
2540.61584,0.00850
2538.55532,0.00811
2536.49481,0.00792
2534.43429,0.00816
2532.37378,0.00851
2530.31326,0.00874
2528.25275,0.00863
2526.19223,0.00803
2524.13171,0.00763
2522.07120,0.00778
2520.01068,0.00789
2517.95017,0.00801
2515.88965,0.00853
2513.82914,0.00900
2511.76862,0.00886
2509.70810,0.00844
2507.64759,0.00844
2505.58707,0.00886
2503.52656,0.00889
2501.46604,0.00838
2499.40553,0.00832
2497.34501,0.00891
2495.28449,0.00934
2493.22398,0.00933
2491.16346,0.00888
2489.10295,0.00853
2487.04243,0.00890
2484.98192,0.00959
2482.92140,0.00984
2480.86088,0.00959
2478.80037,0.00925
2476.73985,0.00915
2474.67934,0.00922
2472.61882,0.00929
2470.55831,0.00929
2468.49779,0.00924
2466.43728,0.00914
2464.37676,0.00911
2462.31624,0.00935
2460.25573,0.00955
2458.19521,0.00920
2456.13470,0.00896
2454.07418,0.00954
2452.01367,0.01020
2449.95315,0.01028
2447.89263,0.01005
2445.83212,0.00970
2443.77160,0.00947
2441.71109,0.00971
2439.65057,0.01021
2437.59006,0.01062
2435.52954,0.01076
2433.46902,0.01050
2431.40851,0.00992
2429.34799,0.00936
2427.28748,0.00956
2425.22696,0.01025
2423.16645,0.01038
2421.10593,0.01017
2419.04541,0.00994
2416.98490,0.00959
2414.92438,0.00955
2412.86387,0.00999
2410.80335,0.01063
2408.74284,0.01122
2406.68232,0.01148
2404.62180,0.01123
2402.56129,0.01099
2400.50077,0.01151
2398.44026,0.01216
2396.37974,0.01217
2394.31923,0.01212
2392.25871,0.01235
2390.19819,0.01245
2388.13768,0.01244
2386.07716,0.01227
2384.01665,0.01194
2381.95613,0.01191
2379.89562,0.01240
2377.83510,0.01281
2375.77459,0.01276
2373.71407,0.01254
2371.65355,0.01221
2369.59304,0.01211
2367.53252,0.01231
2365.47201,0.01226
2363.41149,0.01257
2361.35098,0.01357
2359.29046,0.01404
2357.22994,0.01361
2355.16943,0.01341
2353.10891,0.01391
2351.04840,0.01427
2348.98788,0.01412
2346.92737,0.01377
2344.86685,0.01350
2342.80633,0.01373
2340.74582,0.01434
2338.68530,0.01430
2336.62479,0.01391
2334.56427,0.01399
2332.50376,0.01388
2330.44324,0.01325
2328.38272,0.01300
2326.32221,0.01345
2324.26169,0.01378
2322.20118,0.01380
2320.14066,0.01429
2318.08015,0.01477
2316.01963,0.01450
2313.95911,0.01404
2311.89860,0.01431
2309.83808,0.01509
2307.77757,0.01522
2305.71705,0.01484
2303.65654,0.01482
2301.59602,0.01508
2299.53550,0.01535
2297.47499,0.01567
2295.41447,0.01570
2293.35396,0.01546
2291.29344,0.01580
2289.23293,0.01677
2287.17241,0.01719
2285.11189,0.01691
2283.05138,0.01668
2280.99086,0.01671
2278.93035,0.01681
2276.86983,0.01661
2274.80932,0.01602
2272.74880,0.01590
2270.68829,0.01655
2268.62777,0.01690
2266.56725,0.01694
2264.50674,0.01709
2262.44622,0.01728
2260.38571,0.01782
2258.32519,0.01819
2256.26468,0.01761
2254.20416,0.01667
2252.14364,0.01659
2250.08313,0.01741
2248.02261,0.01801
2245.96210,0.01748
2243.90158,0.01660
2241.84107,0.01646
2239.78055,0.01707
2237.72003,0.01795
2235.65952,0.01856
2233.59900,0.01855
2231.53849,0.01812
2229.47797,0.01806
2227.41746,0.01795
2225.35694,0.01722
2223.29642,0.01712
2221.23591,0.01799
2219.17539,0.01841
2217.11488,0.01847
2215.05436,0.01907
2212.99385,0.01918
2210.93333,0.01860
2208.87281,0.01855
2206.81230,0.01875
2204.75178,0.01872
2202.69127,0.01894
2200.63075,0.02001
2198.57024,0.02104
2196.50972,0.02038
2194.44920,0.01974
2192.38869,0.02112
2190.32817,0.02230
2188.26766,0.02204
2186.20714,0.02179
2184.14663,0.02189
2182.08611,0.02180
2180.02559,0.02227
2177.96508,0.02254
2175.90456,0.02056
2173.84405,0.01863
2171.78353,0.01967
2169.72302,0.02223
2167.66250,0.02315
2165.60199,0.02233
2163.54147,0.02139
2161.48095,0.02031
2159.42044,0.02029
2157.35992,0.02123
2155.29941,0.02124
2153.23889,0.02139
2151.17838,0.02168
2149.11786,0.02110
2147.05734,0.02112
2144.99683,0.02204
2142.93631,0.02224
2140.87580,0.02182
2138.81528,0.02154
2136.75477,0.02162
2134.69425,0.02193
2132.63373,0.02208
2130.57322,0.02236
2128.51270,0.02293
2126.45219,0.02336
2124.39167,0.02355
2122.33116,0.02345
2120.27064,0.02298
2118.21012,0.02246
2116.14961,0.02231
2114.08909,0.02265
2112.02858,0.02322
2109.96806,0.02345
2107.90755,0.02328
2105.84703,0.02309
2103.78651,0.02293
2101.72600,0.02314
2099.66548,0.02370
2097.60497,0.02383
2095.54445,0.02304
2093.48394,0.02176
2091.42342,0.02098
2089.36290,0.02104
2087.30239,0.02161
2085.24187,0.02227
2083.18136,0.02221
2081.12084,0.02136
2079.06033,0.02094
2076.99981,0.02087
2074.93930,0.02053
2072.87878,0.02013
2070.81826,0.02018
2068.75775,0.02065
2066.69723,0.02024
2064.63672,0.01883
2062.57620,0.01815
2060.51569,0.01920
2058.45517,0.02049
2056.39465,0.02013
2054.33414,0.01888
2052.27362,0.01812
2050.21311,0.01818
2048.15259,0.01860
2046.09208,0.01886
2044.03156,0.01862
2041.97104,0.01825
2039.91053,0.01888
2037.85001,0.01945
2035.78950,0.01841
2033.72898,0.01648
2031.66847,0.01464
2029.60795,0.01450
2027.54743,0.01661
2025.48692,0.01861
2023.42640,0.01930
2021.36589,0.01897
2019.30537,0.01699
2017.24486,0.01443
2015.18434,0.01432
2013.12382,0.01611
2011.06331,0.01680
2009.00279,0.01647
2006.94228,0.01588
2004.88176,0.01464
2002.82125,0.01302
2000.76073,0.01196
1998.70021,0.01230
1996.63970,0.01360
1994.57918,0.01529
1992.51867,0.01626
1990.45815,0.01474
1988.39764,0.01300
1986.33712,0.01356
1984.27660,0.01458
1982.21609,0.01466
1980.15557,0.01390
1978.09506,0.01247
1976.03454,0.01232
1973.97403,0.01367
1971.91351,0.01371
1969.85300,0.01225
1967.79248,0.01116
1965.73196,0.01080
1963.67145,0.01049
1961.61093,0.01044
1959.55042,0.01135
1957.48990,0.01236
1955.42939,0.01324
1953.36887,0.01390
1951.30835,0.01330
1949.24784,0.01295
1947.18732,0.01392
1945.12681,0.01448
1943.06629,0.01414
1941.00578,0.01357
1938.94526,0.01291
1936.88474,0.01253
1934.82423,0.01262
1932.76371,0.01242
1930.70320,0.01229
1928.64268,0.01320
1926.58217,0.01415
1924.52165,0.01418
1922.46113,0.01386
1920.40062,0.01367
1918.34010,0.01358
1916.27959,0.01335
1914.21907,0.01272
1912.15856,0.01227
1910.09804,0.01276
1908.03752,0.01355
1905.97701,0.01347
1903.91649,0.01306
1901.85598,0.01346
1899.79546,0.01407
1897.73495,0.01415
1895.67443,0.01428
1893.61391,0.01458
1891.55340,0.01442
1889.49288,0.01390
1887.43237,0.01360
1885.37185,0.01344
1883.31134,0.01352
1881.25082,0.01386
1879.19030,0.01387
1877.12979,0.01335
1875.06927,0.01286
1873.00876,0.01290
1870.94824,0.01328
1868.88773,0.01385
1866.82721,0.01461
1864.76670,0.01484
1862.70618,0.01434
1860.64566,0.01382
1858.58515,0.01383
1856.52463,0.01413
1854.46412,0.01427
1852.40360,0.01422
1850.34309,0.01437
1848.28257,0.01470
1846.22205,0.01463
1844.16154,0.01429
1842.10102,0.01427
1840.04051,0.01450
1837.97999,0.01475
1835.91948,0.01503
1833.85896,0.01544
1831.79844,0.01575
1829.73793,0.01548
1827.67741,0.01471
1825.61690,0.01418
1823.55638,0.01451
1821.49587,0.01538
1819.43535,0.01586
1817.37483,0.01578
1815.31432,0.01567
1813.25380,0.01579
1811.19329,0.01614
1809.13277,0.01633
1807.07226,0.01625
1805.01174,0.01652
1802.95122,0.01710
1800.89071,0.01734
1798.83019,0.01732
1796.76968,0.01752
1794.70916,0.01792
1792.64865,0.01837
1790.58813,0.01872
1788.52761,0.01874
1786.46710,0.01853
1784.40658,0.01857
1782.34607,0.01911
1780.28555,0.01966
1778.22504,0.01994
1776.16452,0.02016
1774.10400,0.02041
1772.04349,0.02073
1769.98297,0.02120
1767.92246,0.02178
1765.86194,0.02237
1763.80143,0.02294
1761.74091,0.02332
1759.68040,0.02351
1757.61988,0.02393
1755.55936,0.02469
1753.49885,0.02539
1751.43833,0.02590
1749.37782,0.02649
1747.31730,0.02740
1745.25679,0.02836
1743.19627,0.02915
1741.13575,0.02996
1739.07524,0.03104
1737.01472,0.03224
1734.95421,0.03336
1732.89369,0.03460
1730.83318,0.03587
1728.77266,0.03706
1726.71214,0.03823
1724.65163,0.03966
1722.59111,0.04122
1720.53060,0.04244
1718.47008,0.04387
1716.40957,0.04621
1714.34905,0.04860
1712.28853,0.05069
1710.22802,0.05293
1708.16750,0.05534
1706.10699,0.05776
1704.04647,0.05987
1701.98596,0.06197
1699.92544,0.06484
1697.86492,0.06799
1695.80441,0.07166
1693.74389,0.07569
1691.68338,0.07884
1689.62286,0.08176
1687.56235,0.08463
1685.50183,0.08797
1683.44131,0.09305
1681.38080,0.09762
1679.32028,0.10102
1677.25977,0.10450
1675.19925,0.10867
1673.13874,0.11268
1671.07822,0.11617
1669.01771,0.12041
1666.95719,0.12485
1664.89667,0.12854
1662.83616,0.13206
1660.77564,0.13571
1658.71513,0.13924
1656.65461,0.14238
1654.59410,0.14553
1652.53358,0.14943
1650.47306,0.15235
1648.41255,0.15458
1646.35203,0.15707
1644.29152,0.15898
1642.23100,0.16013
1640.17049,0.16104
1638.10997,0.16148
1636.04945,0.16118
1633.98894,0.16048
1631.92842,0.15961
1629.86791,0.15798
1627.80739,0.15534
1625.74688,0.15235
1623.68636,0.14893
1621.62584,0.14495
1619.56533,0.14107
1617.50481,0.13625
1615.44430,0.13056
1613.38378,0.12632
1611.32327,0.12251
1609.26275,0.11809
1607.20223,0.11354
1605.14172,0.10931
1603.08120,0.10548
1601.02069,0.10224
1598.96017,0.09942
1596.89966,0.09638
1594.83914,0.09306
1592.77862,0.09009
1590.71811,0.08760
1588.65759,0.08517
1586.59708,0.08269
1584.53656,0.08044
1582.47605,0.07854
1580.41553,0.07686
1578.35501,0.07528
1576.29450,0.07342
1574.23398,0.07176
1572.17347,0.07056
1570.11295,0.06899
1568.05244,0.06735
1565.99192,0.06639
1563.93141,0.06564
1561.87089,0.06483
1559.81037,0.06372
1557.74986,0.06235
1555.68934,0.06161
1553.62883,0.06091
1551.56831,0.06007
1549.50780,0.05939
1547.44728,0.05887
1545.38676,0.05810
1543.32625,0.05718
1541.26573,0.05676
1539.20522,0.05655
1537.14470,0.05607
1535.08419,0.05557
1533.02367,0.05513
1530.96315,0.05471
1528.90264,0.05421
1526.84212,0.05358
1524.78161,0.05300
1522.72109,0.05263
1520.66058,0.05258
1518.60006,0.05261
1516.53954,0.05233
1514.47903,0.05192
1512.41851,0.05157
1510.35800,0.05112
1508.29748,0.05048
1506.23697,0.05008
1504.17645,0.05028
1502.11593,0.05054
1500.05542,0.05060
1497.99490,0.05039
1495.93439,0.05020
1493.87387,0.05042
1491.81336,0.05094
1489.75284,0.05203
1487.69232,0.05432
1485.63181,0.05850
1483.57129,0.06398
1481.51078,0.06723
1479.45026,0.06548
1477.38975,0.06133
1475.32923,0.05838
1473.26871,0.05806
1471.20820,0.06022
1469.14768,0.06272
1467.08717,0.06436
1465.02665,0.06491
1462.96614,0.06422
1460.90562,0.06281
1458.84511,0.06092
1456.78459,0.05863
1454.72407,0.05718
1452.66356,0.05652
1450.60304,0.05583
1448.54253,0.05502
1446.48201,0.05425
1444.42150,0.05357
1442.36098,0.05291
1440.30046,0.05231
1438.23995,0.05158
1436.17943,0.05059
1434.11892,0.04989
1432.05840,0.04946
1429.99789,0.04903
1427.93737,0.04876
1425.87685,0.04848
1423.81634,0.04809
1421.75582,0.04782
1419.69531,0.04762
1417.63479,0.04751
1415.57428,0.04750
1413.51376,0.04740
1411.45324,0.04757
1409.39273,0.04843
1407.33221,0.04984
1405.27170,0.05111
1403.21118,0.05141
1401.15067,0.05061
1399.09015,0.04928
1397.02963,0.04808
1394.96912,0.04729
1392.90860,0.04685
1390.84809,0.04661
1388.78757,0.04627
1386.72706,0.04583
1384.66654,0.04561
1382.60602,0.04571
1380.54551,0.04591
1378.48499,0.04589
1376.42448,0.04563
1374.36396,0.04547
1372.30345,0.04555
1370.24293,0.04570
1368.18241,0.04571
1366.12190,0.04559
1364.06138,0.04548
1362.00087,0.04540
1359.94035,0.04540
1357.87984,0.04552
1355.81932,0.04553
1353.75881,0.04537
1351.69829,0.04538
1349.63777,0.04545
1347.57726,0.04528
1345.51674,0.04509
1343.45623,0.04510
1341.39571,0.04522
1339.33520,0.04537
1337.27468,0.04540
1335.21416,0.04538
1333.15365,0.04536
1331.09313,0.04520
1329.03262,0.04495
1326.97210,0.04487
1324.91159,0.04494
1322.85107,0.04496
1320.79055,0.04487
1318.73004,0.04477
1316.66952,0.04483
1314.60901,0.04492
1312.54849,0.04496
1310.48798,0.04499
1308.42746,0.04497
1306.36694,0.04500
1304.30643,0.04507
1302.24591,0.04511
1300.18540,0.04517
1298.12488,0.04513
1296.06437,0.04489
1294.00385,0.04469
1291.94333,0.04480
1289.88282,0.04504
1287.82230,0.04505
1285.76179,0.04488
1283.70127,0.04475
1281.64076,0.04476
1279.58024,0.04491
1277.51972,0.04496
1275.45921,0.04490
1273.39869,0.04490
1271.33818,0.04499
1269.27766,0.04522
1267.21715,0.04532
1265.15663,0.04509
1263.09612,0.04494
1261.03560,0.04504
1258.97508,0.04528
1256.91457,0.04571
1254.85405,0.04631
1252.79354,0.04688
1250.73302,0.04751
1248.67251,0.04867
1246.61199,0.05045
1244.55147,0.05254
1242.49096,0.05469
1240.43044,0.05622
1238.36993,0.05639
1236.30941,0.05526
1234.24890,0.05342
1232.18838,0.05138
1230.12786,0.04956
1228.06735,0.04814
1226.00683,0.04725
1223.94632,0.04686
1221.88580,0.04663
1219.82529,0.04640
1217.76477,0.04629
1215.70425,0.04616
1213.64374,0.04596
1211.58322,0.04576
1209.52271,0.04559
1207.46219,0.04550
1205.40168,0.04549
1203.34116,0.04559
1201.28064,0.04554
1199.22013,0.04530
1197.15961,0.04514
1195.09910,0.04508
1193.03858,0.04498
1190.97807,0.04496
1188.91755,0.04510
1186.85703,0.04525
1184.79652,0.04531
1182.73600,0.04532
1180.67549,0.04520
1178.61497,0.04507
1176.55446,0.04511
1174.49394,0.04514
1172.43342,0.04508
1170.37291,0.04506
1168.31239,0.04501
1166.25188,0.04482
1164.19136,0.04470
1162.13085,0.04474
1160.07033,0.04486
1158.00982,0.04494
1155.94930,0.04486
1153.88878,0.04472
1151.82827,0.04479
1149.76775,0.04509
1147.70724,0.04530
1145.64672,0.04520
1143.58621,0.04495
1141.52569,0.04484
1139.46517,0.04485
1137.40466,0.04495
1135.34414,0.04517
1133.28363,0.04529
1131.22311,0.04521
1129.16260,0.04519
1127.10208,0.04542
1125.04156,0.04589
1122.98105,0.04632
1120.92053,0.04644
1118.86002,0.04622
1116.79950,0.04591
1114.73899,0.04569
1112.67847,0.04565
1110.61795,0.04579
1108.55744,0.04597
1106.49692,0.04622
1104.43641,0.04633
1102.37589,0.04616
1100.31538,0.04616
1098.25486,0.04652
1096.19434,0.04678
1094.13383,0.04673
1092.07331,0.04674
1090.01280,0.04699
1087.95228,0.04713
1085.89177,0.04712
1083.83125,0.04727
1081.77073,0.04755
1079.71022,0.04786
1077.64970,0.04823
1075.58919,0.04837
1073.52867,0.04829
1071.46816,0.04835
1069.40764,0.04852
1067.34712,0.04874
1065.28661,0.04899
1063.22609,0.04897
1061.16558,0.04858
1059.10506,0.04828
1057.04455,0.04827
1054.98403,0.04834
1052.92352,0.04842
1050.86300,0.04845
1048.80248,0.04844
1046.74197,0.04861
1044.68145,0.04881
1042.62094,0.04870
1040.56042,0.04858
1038.49991,0.04892
1036.43939,0.04938
1034.37887,0.04937
1032.31836,0.04915
1030.25784,0.04916
1028.19733,0.04946
1026.13681,0.04977
1024.07630,0.04975
1022.01578,0.04979
1019.95526,0.05032
1017.89475,0.05092
1015.83423,0.05125
1013.77372,0.05157
1011.71320,0.05203
1009.65269,0.05238
1007.59217,0.05256
1005.53165,0.05290
1003.47114,0.05339
1001.41062,0.05379
999.35011,0.05412
997.28959,0.05455
995.22908,0.05516
993.16856,0.05577
991.10804,0.05640
989.04753,0.05718
986.98701,0.05794
984.92650,0.05839
982.86598,0.05852
980.80547,0.05871
978.74495,0.05930
976.68443,0.06011
974.62392,0.06092
972.56340,0.06191
970.50289,0.06311
968.44237,0.06427
966.38186,0.06545
964.32134,0.06703
962.26082,0.06945
960.20031,0.07305
958.13979,0.07783
956.07928,0.08349
954.01876,0.08932
951.95825,0.09379
949.89773,0.09560
947.83722,0.09489
945.77670,0.09232
943.71618,0.08860
941.65567,0.08479
939.59515,0.08198
937.53464,0.08067
935.47412,0.08049
933.41361,0.08059
931.35309,0.08060
929.29257,0.08081
927.23206,0.08158
925.17154,0.08293
923.11103,0.08454
921.05051,0.08600
918.99000,0.08720
916.92948,0.08837
914.86896,0.08973
912.80845,0.09113
910.74793,0.09232
908.68742,0.09355
906.62690,0.09502
904.56639,0.09661
902.50587,0.09842
900.44535,0.10014
898.38484,0.10166
896.32432,0.10354
894.26381,0.10565
892.20329,0.10761
890.14278,0.10938
888.08226,0.11110
886.02174,0.11300
883.96123,0.11498
881.90071,0.11698
879.84020,0.11908
877.77968,0.12129
875.71917,0.12363
873.65865,0.12562
871.59813,0.12723
869.53762,0.12920
867.47710,0.13148
865.41659,0.13389
863.35607,0.13652
861.29556,0.13894
859.23504,0.14117
857.17453,0.14369
855.11401,0.14629
853.05349,0.14866
850.99298,0.15086
848.93246,0.15306
846.87195,0.15519
844.81143,0.15754
842.75092,0.16032
840.69040,0.16302
838.62988,0.16555
836.56937,0.16784
834.50885,0.16987
832.44834,0.17240
830.38782,0.17540
828.32731,0.17806
826.26679,0.18043
824.20627,0.18270
822.14576,0.18488
820.08524,0.18737
818.02473,0.19012
815.96421,0.19285
813.90370,0.19571
811.84318,0.19865
809.78266,0.20096
807.72215,0.20263
805.66163,0.20482
803.60112,0.20800
801.54060,0.21150
799.48009,0.21458
797.41957,0.21744
795.35905,0.22048
793.29854,0.22352
791.23802,0.22635
789.17751,0.22870
787.11699,0.23050
785.05648,0.23274
782.99596,0.23618
780.93544,0.23991
778.87493,0.24314
776.81441,0.24611
774.75390,0.24880
772.69338,0.25103
770.63287,0.25378
768.57235,0.25774
766.51183,0.26171
764.45132,0.26507
762.39080,0.26907
760.33029,0.27475
758.26977,0.28051
756.20926,0.28399
754.14874,0.28555
752.08823,0.28696
750.02771,0.28880
747.96719,0.29069
745.90668,0.29240
743.84616,0.29450
741.78565,0.29710
739.72513,0.29936
737.66462,0.30109
735.60410,0.30314
733.54358,0.30594
731.48307,0.30931
729.42255,0.31244
727.36204,0.31456
725.30152,0.31655
723.24101,0.31883
721.18049,0.32095
719.11997,0.32375
717.05946,0.32781
714.99894,0.33180
712.93843,0.33472
710.87791,0.33736
708.81740,0.34010
706.75688,0.34235
704.69636,0.34453
702.63585,0.34714
700.57533,0.34997
698.51482,0.35278
696.45430,0.35505
694.39379,0.35665
692.33327,0.35920
690.27275,0.36329
688.21224,0.36723
686.15172,0.37017
684.09121,0.37213
682.03069,0.37365
679.97018,0.37606
677.90966,0.37947
675.84914,0.38260
673.78863,0.38499
671.72811,0.38731
669.66760,0.38945
667.60708,0.39033
665.54657,0.39170
663.48605,0.39485
661.42553,0.39828
659.36502,0.40075
657.30450,0.40317
655.24399,0.40627
653.18347,0.40874
651.12296,0.40980
649.06244,0.41103
647.00193,0.41263
644.94141,0.41389
642.88089,0.41619
640.82038,0.41983
638.75986,0.42389
636.69935,0.42699
634.63883,0.42895
632.57832,0.43103
630.51780,0.43253
628.45728,0.43413
626.39677,0.43698
624.33625,0.43913
622.27574,0.44042
620.21522,0.44227
618.15471,0.44365
616.09419,0.44456
614.03367,0.44693
611.97316,0.44975
609.91264,0.45158
607.85213,0.45323
605.79161,0.45504
603.73110,0.45699
601.67058,0.45936
599.61006,0.46072
597.54955,0.46133
595.48903,0.46333
593.42852,0.46579
591.36800,0.46723
589.30749,0.46830
587.24697,0.47071
585.18645,0.47323
583.12594,0.47383
581.06542,0.47377
579.00491,0.47467
576.94439,0.47628
574.88388,0.47822
572.82336,0.48120
570.76284,0.48300
568.70233,0.48256
566.64181,0.48324
564.58130,0.48592
562.52078,0.48809
560.46027,0.48858
558.39975,0.48824
556.33924,0.48840
554.27872,0.49076
552.21820,0.49435
550.15769,0.49671
548.09717,0.49772
546.03666,0.49662
543.97614,0.49370
541.91563,0.49272
539.85511,0.49431
537.79459,0.49786
535.73408,0.50338
533.67356,0.50784
531.61305,0.50963
529.55253,0.51021
527.49202,0.51137
525.43150,0.51263
523.37098,0.51197
521.31047,0.51140
519.24995,0.51434
517.18944,0.51801
515.12892,0.52021
513.06841,0.52353
511.00789,0.52717
508.94737,0.53024
506.88686,0.53340
504.82634,0.53481
502.76583,0.53394
500.70531,0.53478
498.64480,0.54011
496.58428,0.54560
494.52376,0.54557
492.46325,0.54039
490.40273,0.53420
488.34222,0.53147
486.28170,0.53324
484.22119,0.53645
482.16067,0.53915
480.10015,0.54113
478.03964,0.54136
475.97912,0.54044
473.91861,0.53877
471.85809,0.53812
469.79758,0.54334
467.73706,0.55286
465.67654,0.56247
463.61603,0.57101
461.55551,0.57547
459.49500,0.57281
457.43448,0.56703
455.37397,0.56488
453.31345,0.56168
451.25294,0.55367
449.19242,0.54758
447.13190,0.54791
445.07139,0.55056
443.01087,0.54968
440.95036,0.54823
438.88984,0.55024
436.82933,0.54959
434.76881,0.54311
432.70829,0.53915
430.64778,0.54157
428.58726,0.54756
426.52675,0.55160
424.46623,0.54998
422.40572,0.54836
420.34520,0.54778
418.28468,0.53788
416.22417,0.53011
414.16365,0.53661
412.10314,0.54334
410.04262,0.53749
407.98211,0.52764
405.92159,0.52558
403.86107,0.53201
401.80056,0.54155
399.74004,0.54632
