3997.40043,0.00288
3995.33991,0.00291
3993.27940,0.00291
3991.21888,0.00266
3989.15837,0.00210
3987.09785,0.00182
3985.03734,0.00224
3982.97682,0.00271
3980.91630,0.00278
3978.85579,0.00271
3976.79527,0.00250
3974.73476,0.00215
3972.67424,0.00201
3970.61373,0.00212
3968.55321,0.00204
3966.49269,0.00179
3964.43218,0.00197
3962.37166,0.00241
3960.31115,0.00254
3958.25063,0.00251
3956.19012,0.00261
3954.12960,0.00283
3952.06908,0.00291
3950.00857,0.00264
3947.94805,0.00214
3945.88754,0.00189
3943.82702,0.00216
3941.76651,0.00246
3939.70599,0.00273
3937.64547,0.00300
3935.58496,0.00264
3933.52444,0.00218
3931.46393,0.00229
3929.40341,0.00247
3927.34290,0.00222
3925.28238,0.00162
3923.22186,0.00147
3921.16135,0.00183
3919.10083,0.00192
3917.04032,0.00193
3914.97980,0.00230
3912.91929,0.00288
3910.85877,0.00338
3908.79825,0.00343
3906.73774,0.00311
3904.67722,0.00286
3902.61671,0.00241
3900.55619,0.00168
3898.49568,0.00153
3896.43516,0.00193
3894.37465,0.00229
3892.31413,0.00238
3890.25361,0.00227
3888.19310,0.00223
3886.13258,0.00238
3884.07207,0.00275
3882.01155,0.00289
3879.95104,0.00258
3877.89052,0.00235
3875.83000,0.00214
3873.76949,0.00185
3871.70897,0.00190
3869.64846,0.00219
3867.58794,0.00230
3865.52743,0.00236
3863.46691,0.00269
3861.40639,0.00305
3859.34588,0.00298
3857.28536,0.00260
3855.22485,0.00216
3853.16433,0.00188
3851.10382,0.00205
3849.04330,0.00222
3846.98278,0.00234
3844.92227,0.00264
3842.86175,0.00289
3840.80124,0.00284
3838.74072,0.00267
3836.68021,0.00271
3834.61969,0.00296
3832.55917,0.00329
3830.49866,0.00341
3828.43814,0.00326
3826.37763,0.00325
3824.31711,0.00326
3822.25660,0.00294
3820.19608,0.00266
3818.13556,0.00257
3816.07505,0.00265
3814.01453,0.00301
3811.95402,0.00317
3809.89350,0.00278
3807.83299,0.00214
3805.77247,0.00208
3803.71195,0.00253
3801.65144,0.00305
3799.59092,0.00349
3797.53041,0.00360
3795.46989,0.00358
3793.40938,0.00371
3791.34886,0.00378
3789.28835,0.00340
3787.22783,0.00307
3785.16731,0.00343
3783.10680,0.00389
3781.04628,0.00374
3778.98577,0.00324
3776.92525,0.00338
3774.86474,0.00392
3772.80422,0.00383
3770.74370,0.00326
3768.68319,0.00341
3766.62267,0.00397
3764.56216,0.00373
3762.50164,0.00327
3760.44113,0.00363
3758.38061,0.00462
3756.32009,0.00520
3754.25958,0.00501
3752.19906,0.00477
3750.13855,0.00503
3748.07803,0.00512
3746.01752,0.00474
3743.95700,0.00443
3741.89648,0.00486
3739.83597,0.00546
3737.77545,0.00556
3735.71494,0.00500
3733.65442,0.00460
3731.59391,0.00492
3729.53339,0.00515
3727.47287,0.00516
3725.41236,0.00528
3723.35184,0.00566
3721.29133,0.00600
3719.23081,0.00600
3717.17030,0.00615
3715.10978,0.00652
3713.04926,0.00662
3710.98875,0.00707
3708.92823,0.00849
3706.86772,0.00972
3704.80720,0.01000
3702.74669,0.00977
3700.68617,0.01027
3698.62565,0.01121
3696.56514,0.01131
3694.50462,0.01120
3692.44411,0.01192
3690.38359,0.01308
3688.32308,0.01435
3686.26256,0.01576
3684.20205,0.01675
3682.14153,0.01744
3680.08101,0.01818
3678.02050,0.01923
3675.95998,0.02075
3673.89947,0.02222
3671.83895,0.02347
3669.77844,0.02510
3667.71792,0.02685
3665.65740,0.02852
3663.59689,0.03052
3661.53637,0.03250
3659.47586,0.03396
3657.41534,0.03515
3655.35483,0.03647
3653.29431,0.03796
3651.23379,0.03978
3649.17328,0.04216
3647.11276,0.04466
3645.05225,0.04650
3642.99173,0.04783
3640.93122,0.04902
3638.87070,0.05034
3636.81018,0.05222
3634.74967,0.05425
3632.68915,0.05578
3630.62864,0.05716
3628.56812,0.05856
3626.50761,0.05967
3624.44709,0.06094
3622.38657,0.06291
3620.32606,0.06533
3618.26554,0.06730
3616.20503,0.06849
3614.14451,0.06959
3612.08400,0.07124
3610.02348,0.07301
3607.96296,0.07441
3605.90245,0.07594
3603.84193,0.07786
3601.78142,0.07984
3599.72090,0.08144
3597.66039,0.08275
3595.59987,0.08435
3593.53936,0.08630
3591.47884,0.08815
3589.41832,0.08945
3587.35781,0.09046
3585.29729,0.09206
3583.23678,0.09419
3581.17626,0.09617
3579.11575,0.09787
3577.05523,0.09988
3574.99471,0.10235
3572.93420,0.10454
3570.87368,0.10620
3568.81317,0.10780
3566.75265,0.10971
3564.69214,0.11159
3562.63162,0.11335
3560.57110,0.11547
3558.51059,0.11801
3556.45007,0.12027
3554.38956,0.12212
3552.32904,0.12452
3550.26853,0.12729
3548.20801,0.12927
3546.14749,0.13064
3544.08698,0.13249
3542.02646,0.13485
3539.96595,0.13703
3537.90543,0.13910
3535.84492,0.14161
3533.78440,0.14434
3531.72388,0.14673
3529.66337,0.14866
3527.60285,0.15058
3525.54234,0.15292
3523.48182,0.15538
3521.42131,0.15761
3519.36079,0.15966
3517.30027,0.16177
3515.23976,0.16387
3513.17924,0.16577
3511.11873,0.16799
3509.05821,0.17088
3506.99770,0.17377
3504.93718,0.17591
3502.87666,0.17758
3500.81615,0.17975
3498.75563,0.18219
3496.69512,0.18434
3494.63460,0.18671
3492.57409,0.18912
3490.51357,0.19119
3488.45306,0.19345
3486.39254,0.19581
3484.33202,0.19830
3482.27151,0.20110
3480.21099,0.20355
3478.15048,0.20578
3476.08996,0.20851
3474.02945,0.21125
3471.96893,0.21353
3469.90841,0.21559
3467.84790,0.21765
3465.78738,0.21966
3463.72687,0.22176
3461.66635,0.22436
3459.60584,0.22723
3457.54532,0.22997
3455.48480,0.23253
3453.42429,0.23465
3451.36377,0.23664
3449.30326,0.23892
3447.24274,0.24143
3445.18223,0.24445
3443.12171,0.24756
3441.06119,0.25026
3439.00068,0.25286
3436.94016,0.25518
3434.87965,0.25709
3432.81913,0.25918
3430.75862,0.26141
3428.69810,0.26372
3426.63758,0.26628
3424.57707,0.26864
3422.51655,0.27067
3420.45604,0.27290
3418.39552,0.27560
3416.33501,0.27830
3414.27449,0.28052
3412.21397,0.28227
3410.15346,0.28417
3408.09294,0.28675
3406.03243,0.28913
3403.97191,0.29039
3401.91140,0.29168
3399.85088,0.29404
3397.79036,0.29682
3395.72985,0.29902
3393.66933,0.30025
3391.60882,0.30127
3389.54830,0.30259
3387.48779,0.30383
3385.42727,0.30521
3383.36676,0.30726
3381.30624,0.30951
3379.24572,0.31135
3377.18521,0.31278
3375.12469,0.31403
3373.06418,0.31516
3371.00366,0.31566
3368.94315,0.31587
3366.88263,0.31677
3364.82211,0.31832
3362.76160,0.31987
3360.70108,0.32110
3358.64057,0.32213
3356.58005,0.32305
3354.51954,0.32363
3352.45902,0.32365
3350.39850,0.32361
3348.33799,0.32435
3346.27747,0.32537
3344.21696,0.32590
3342.15644,0.32641
3340.09593,0.32680
3338.03541,0.32680
3335.97489,0.32701
3333.91438,0.32749
3331.85386,0.32807
3329.79335,0.32855
3327.73283,0.32863
3325.67232,0.32852
3323.61180,0.32868
3321.55128,0.32947
3319.49077,0.33053
3317.43025,0.33089
3315.36974,0.33035
3313.30922,0.32986
3311.24871,0.32980
3309.18819,0.32980
3307.12767,0.33004
3305.06716,0.33048
3303.00664,0.33080
3300.94613,0.33136
3298.88561,0.33206
3296.82510,0.33209
3294.76458,0.33131
3292.70406,0.33073
3290.64355,0.33087
3288.58303,0.33123
3286.52252,0.33166
3284.46200,0.33217
3282.40149,0.33265
3280.34097,0.33323
3278.28046,0.33373
3276.21994,0.33386
3274.15942,0.33368
3272.09891,0.33357
3270.03839,0.33387
3267.97788,0.33426
3265.91736,0.33460
3263.85685,0.33489
3261.79633,0.33471
3259.73581,0.33416
3257.67530,0.33344
3255.61478,0.33261
3253.55427,0.33261
3251.49375,0.33370
3249.43324,0.33423
3247.37272,0.33349
3245.31220,0.33257
3243.25169,0.33229
3241.19117,0.33240
3239.13066,0.33217
3237.07014,0.33143
3235.00963,0.33056
3232.94911,0.32978
3230.88859,0.32947
3228.82808,0.32949
3226.76756,0.32861
3224.70705,0.32681
3222.64653,0.32547
3220.58602,0.32458
3218.52550,0.32344
3216.46498,0.32219
3214.40447,0.32111
3212.34395,0.32049
3210.28344,0.31970
3208.22292,0.31799
3206.16241,0.31622
3204.10189,0.31512
3202.04137,0.31405
3199.98086,0.31184
3197.92034,0.30880
3195.85983,0.30659
3193.79931,0.30520
3191.73880,0.30352
3189.67828,0.30152
3187.61777,0.29976
3185.55725,0.29810
3183.49673,0.29590
3181.43622,0.29299
3179.37570,0.28986
3177.31519,0.28722
3175.25467,0.28530
3173.19416,0.28364
3171.13364,0.28176
3169.07312,0.27976
3167.01261,0.27756
3164.95209,0.27492
3162.89158,0.27228
3160.83106,0.26977
3158.77055,0.26721
3156.71003,0.26461
3154.64951,0.26178
3152.58900,0.25931
3150.52848,0.25742
3148.46797,0.25506
3146.40745,0.25216
3144.34694,0.24951
3142.28642,0.24676
3140.22590,0.24379
3138.16539,0.24112
3136.10487,0.23858
3134.04436,0.23609
3131.98384,0.23381
3129.92333,0.23130
3127.86281,0.22819
3125.80229,0.22527
3123.74178,0.22291
3121.68126,0.22018
3119.62075,0.21707
3117.56023,0.21435
3115.49972,0.21220
3113.43920,0.21015
3111.37868,0.20807
3109.31817,0.20603
3107.25765,0.20349
3105.19714,0.20039
3103.13662,0.19754
3101.07611,0.19517
3099.01559,0.19333
3096.95507,0.19188
3094.89456,0.18965
3092.83404,0.18667
3090.77353,0.18418
3088.71301,0.18206
3086.65250,0.17967
3084.59198,0.17738
3082.53147,0.17532
3080.47095,0.17298
3078.41043,0.17071
3076.34992,0.16898
3074.28940,0.16731
3072.22889,0.16539
3070.16837,0.16340
3068.10786,0.16133
3066.04734,0.15912
3063.98682,0.15691
3061.92631,0.15497
3059.86579,0.15330
3057.80528,0.15150
3055.74476,0.14940
3053.68425,0.14737
3051.62373,0.14548
3049.56321,0.14342
3047.50270,0.14140
3045.44218,0.13979
3043.38167,0.13821
3041.32115,0.13629
3039.26064,0.13419
3037.20012,0.13228
3035.13960,0.13087
3033.07909,0.12977
3031.01857,0.12862
3028.95806,0.12726
3026.89754,0.12566
3024.83703,0.12406
3022.77651,0.12262
3020.71599,0.12115
3018.65548,0.11946
3016.59496,0.11747
3014.53445,0.11558
3012.47393,0.11418
3010.41342,0.11283
3008.35290,0.11124
3006.29238,0.10965
3004.23187,0.10814
3002.17135,0.10669
3000.11084,0.10531
2998.05032,0.10379
2995.98981,0.10214
2993.92929,0.10058
2991.86877,0.09910
2989.80826,0.09756
2987.74774,0.09598
2985.68723,0.09459
2983.62671,0.09350
2981.56620,0.09253
2979.50568,0.09164
2977.44517,0.09078
2975.38465,0.08994
2973.32413,0.08908
2971.26362,0.08807
2969.20310,0.08705
2967.14259,0.08628
2965.08207,0.08554
2963.02156,0.08447
2960.96104,0.08317
2958.90052,0.08181
2956.84001,0.08050
2954.77949,0.07924
2952.71898,0.07791
2950.65846,0.07667
2948.59795,0.07551
2946.53743,0.07421
2944.47691,0.07294
2942.41640,0.07199
2940.35588,0.07112
2938.29537,0.07002
2936.23485,0.06899
2934.17434,0.06808
2932.11382,0.06710
2930.05330,0.06607
2927.99279,0.06504
2925.93227,0.06406
2923.87176,0.06318
2921.81124,0.06246
2919.75073,0.06170
2917.69021,0.06073
2915.62969,0.05972
2913.56918,0.05886
2911.50866,0.05823
2909.44815,0.05756
2907.38763,0.05659
2905.32712,0.05568
2903.26660,0.05495
2901.20608,0.05415
2899.14557,0.05329
2897.08505,0.05235
2895.02454,0.05119
2892.96402,0.05019
2890.90351,0.04962
2888.84299,0.04911
2886.78247,0.04836
2884.72196,0.04772
2882.66144,0.04737
2880.60093,0.04681
2878.54041,0.04583
2876.47990,0.04469
2874.41938,0.04394
2872.35887,0.04370
2870.29835,0.04325
2868.23783,0.04235
2866.17732,0.04156
2864.11680,0.04100
2862.05629,0.04051
2859.99577,0.04010
2857.93526,0.03963
2855.87474,0.03903
2853.81422,0.03853
2851.75371,0.03812
2849.69319,0.03766
2847.63268,0.03721
2845.57216,0.03663
2843.51165,0.03577
2841.45113,0.03490
2839.39061,0.03441
2837.33010,0.03427
2835.26958,0.03395
2833.20907,0.03335
2831.14855,0.03280
2829.08804,0.03238
2827.02752,0.03196
2824.96700,0.03147
2822.90649,0.03109
2820.84597,0.03088
2818.78546,0.03055
2816.72494,0.03000
2814.66443,0.02932
2812.60391,0.02857
2810.54339,0.02809
2808.48288,0.02797
2806.42236,0.02776
2804.36185,0.02742
2802.30133,0.02710
2800.24082,0.02689
2798.18030,0.02675
2796.11978,0.02651
2794.05927,0.02612
2791.99875,0.02568
2789.93824,0.02524
2787.87772,0.02469
2785.81721,0.02415
2783.75669,0.02384
2781.69618,0.02369
2779.63566,0.02362
2777.57514,0.02350
2775.51463,0.02319
2773.45411,0.02276
2771.39360,0.02229
2769.33308,0.02178
2767.27257,0.02139
2765.21205,0.02123
2763.15153,0.02102
2761.09102,0.02056
2759.03050,0.02016
2756.96999,0.01996
2754.90947,0.01972
2752.84896,0.01946
2750.78844,0.01930
2748.72792,0.01921
2746.66741,0.01919
2744.60689,0.01903
2742.54638,0.01874
2740.48586,0.01853
2738.42535,0.01829
2736.36483,0.01795
2734.30431,0.01773
2732.24380,0.01752
2730.18328,0.01729
2728.12277,0.01725
2726.06225,0.01720
2724.00174,0.01690
2721.94122,0.01646
2719.88070,0.01620
2717.82019,0.01616
2715.75967,0.01619
2713.69916,0.01612
2711.63864,0.01595
2709.57813,0.01583
2707.51761,0.01566
2705.45709,0.01549
2703.39658,0.01545
2701.33606,0.01527
2699.27555,0.01491
2697.21503,0.01478
2695.15452,0.01477
2693.09400,0.01445
2691.03348,0.01392
2688.97297,0.01365
2686.91245,0.01359
2684.85194,0.01355
2682.79142,0.01349
2680.73091,0.01340
2678.67039,0.01332
2676.60988,0.01334
2674.54936,0.01334
2672.48884,0.01325
2670.42833,0.01309
2668.36781,0.01279
2666.30730,0.01250
2664.24678,0.01244
2662.18627,0.01228
2660.12575,0.01199
2658.06523,0.01188
2656.00472,0.01185
2653.94420,0.01189
2651.88369,0.01201
2649.82317,0.01193
2647.76266,0.01156
2645.70214,0.01126
2643.64162,0.01133
2641.58111,0.01144
2639.52059,0.01117
2637.46008,0.01090
2635.39956,0.01075
2633.33905,0.01045
2631.27853,0.01039
2629.21801,0.01062
2627.15750,0.01059
2625.09698,0.01031
2623.03647,0.01000
2620.97595,0.00986
2618.91544,0.01003
2616.85492,0.01022
2614.79440,0.01013
2612.73389,0.00991
2610.67337,0.00977
2608.61286,0.00970
2606.55234,0.00981
2604.49183,0.00995
2602.43131,0.00994
2600.37079,0.00992
2598.31028,0.00989
2596.24976,0.00995
2594.18925,0.01002
2592.12873,0.01005
2590.06822,0.01019
2588.00770,0.00987
2585.94718,0.00921
2583.88667,0.00905
2581.82615,0.00924
2579.76564,0.00957
2577.70512,0.00988
2575.64461,0.00975
2573.58409,0.00966
2571.52358,0.01001
2569.46306,0.01016
2567.40254,0.00975
2565.34203,0.00936
2563.28151,0.00924
2561.22100,0.00899
2559.16048,0.00885
2557.09997,0.00928
2555.03945,0.00950
2552.97893,0.00944
2550.91842,0.00971
2548.85790,0.00994
2546.79739,0.00996
2544.73687,0.00990
2542.67636,0.00980
2540.61584,0.00974
2538.55532,0.00965
2536.49481,0.00952
2534.43429,0.00952
2532.37378,0.00972
2530.31326,0.00965
2528.25275,0.00910
2526.19223,0.00869
2524.13171,0.00904
2522.07120,0.00979
2520.01068,0.00993
2517.95017,0.00960
2515.88965,0.00967
2513.82914,0.00993
2511.76862,0.00992
2509.70810,0.00978
2507.64759,0.00988
2505.58707,0.01039
2503.52656,0.01059
2501.46604,0.01015
2499.40553,0.01009
2497.34501,0.01059
2495.28449,0.01073
2493.22398,0.01053
2491.16346,0.01026
2489.10295,0.01005
2487.04243,0.01010
2484.98192,0.01029
2482.92140,0.01047
2480.86088,0.01044
2478.80037,0.01010
2476.73985,0.00986
2474.67934,0.01009
2472.61882,0.01050
2470.55831,0.01036
2468.49779,0.00972
2466.43728,0.00944
2464.37676,0.00969
2462.31624,0.01016
2460.25573,0.01060
2458.19521,0.01051
2456.13470,0.01025
2454.07418,0.01053
2452.01367,0.01087
2449.95315,0.01076
2447.89263,0.01061
2445.83212,0.01049
2443.77160,0.01007
2441.71109,0.00977
2439.65057,0.01012
2437.59006,0.01070
2435.52954,0.01095
2433.46902,0.01108
2431.40851,0.01136
2429.34799,0.01130
2427.28748,0.01106
2425.22696,0.01141
2423.16645,0.01207
2421.10593,0.01210
2419.04541,0.01144
2416.98490,0.01079
2414.92438,0.01067
2412.86387,0.01089
2410.80335,0.01119
2408.74284,0.01173
2406.68232,0.01224
2404.62180,0.01232
2402.56129,0.01244
2400.50077,0.01284
2398.44026,0.01293
2396.37974,0.01258
2394.31923,0.01246
2392.25871,0.01286
2390.19819,0.01325
2388.13768,0.01331
2386.07716,0.01317
2384.01665,0.01271
2381.95613,0.01242
2379.89562,0.01284
2377.83510,0.01331
2375.77459,0.01330
2373.71407,0.01334
2371.65355,0.01334
2369.59304,0.01303
2367.53252,0.01246
2365.47201,0.01210
2363.41149,0.01302
2361.35098,0.01499
2359.29046,0.01656
2357.22994,0.01642
2355.16943,0.01518
2353.10891,0.01478
2351.04840,0.01488
2348.98788,0.01452
2346.92737,0.01417
2344.86685,0.01435
2342.80633,0.01493
2340.74582,0.01545
2338.68530,0.01565
2336.62479,0.01591
2334.56427,0.01636
2332.50376,0.01613
2330.44324,0.01542
2328.38272,0.01537
2326.32221,0.01547
2324.26169,0.01491
2322.20118,0.01451
2320.14066,0.01490
2318.08015,0.01517
2316.01963,0.01510
2313.95911,0.01520
2311.89860,0.01566
2309.83808,0.01620
2307.77757,0.01620
2305.71705,0.01596
2303.65654,0.01608
2301.59602,0.01644
2299.53550,0.01694
2297.47499,0.01745
2295.41447,0.01750
2293.35396,0.01705
2291.29344,0.01680
2289.23293,0.01703
2287.17241,0.01727
2285.11189,0.01769
2283.05138,0.01845
2280.99086,0.01876
2278.93035,0.01828
2276.86983,0.01756
2274.80932,0.01712
2272.74880,0.01717
2270.68829,0.01724
2268.62777,0.01684
2266.56725,0.01674
2264.50674,0.01730
2262.44622,0.01803
2260.38571,0.01876
2258.32519,0.01885
2256.26468,0.01834
2254.20416,0.01786
2252.14364,0.01742
2250.08313,0.01759
2248.02261,0.01868
2245.96210,0.02008
2243.90158,0.02057
2241.84107,0.01969
2239.78055,0.01865
2237.72003,0.01853
2235.65952,0.01890
2233.59900,0.01849
2231.53849,0.01790
2229.47797,0.01852
2227.41746,0.01886
2225.35694,0.01816
2223.29642,0.01850
2221.23591,0.01981
2219.17539,0.02010
2217.11488,0.01972
2215.05436,0.01996
2212.99385,0.01988
2210.93333,0.01954
2208.87281,0.02015
2206.81230,0.02134
2204.75178,0.02228
2202.69127,0.02202
2200.63075,0.02152
2198.57024,0.02167
2196.50972,0.02102
2194.44920,0.01972
2192.38869,0.01990
2190.32817,0.02222
2188.26766,0.02410
2186.20714,0.02333
2184.14663,0.02164
2182.08611,0.02132
2180.02559,0.02235
2177.96508,0.02248
2175.90456,0.02060
2173.84405,0.01933
2171.78353,0.02027
2169.72302,0.02315
2167.66250,0.02595
2165.60199,0.02543
2163.54147,0.02297
2161.48095,0.02184
2159.42044,0.02177
2157.35992,0.02197
2155.29941,0.02249
2153.23889,0.02290
2151.17838,0.02292
2149.11786,0.02318
2147.05734,0.02337
2144.99683,0.02242
2142.93631,0.02180
2140.87580,0.02260
2138.81528,0.02290
2136.75477,0.02222
2134.69425,0.02221
2132.63373,0.02290
2130.57322,0.02328
2128.51270,0.02358
2126.45219,0.02400
2124.39167,0.02375
2122.33116,0.02293
2120.27064,0.02252
2118.21012,0.02271
2116.14961,0.02338
2114.08909,0.02384
2112.02858,0.02364
2109.96806,0.02331
2107.90755,0.02345
2105.84703,0.02401
2103.78651,0.02429
2101.72600,0.02411
2099.66548,0.02353
2097.60497,0.02236
2095.54445,0.02116
2093.48394,0.02117
2091.42342,0.02196
2089.36290,0.02166
2087.30239,0.02085
2085.24187,0.02086
2083.18136,0.02088
2081.12084,0.02050
2079.06033,0.02046
2076.99981,0.02100
2074.93930,0.02118
2072.87878,0.02072
2070.81826,0.02095
2068.75775,0.02144
2066.69723,0.02047
2064.63672,0.01887
2062.57620,0.01838
2060.51569,0.01898
2058.45517,0.01958
2056.39465,0.01942
2054.33414,0.01872
2052.27362,0.01853
2050.21311,0.01925
2048.15259,0.02017
2046.09208,0.02062
2044.03156,0.01983
2041.97104,0.01818
2039.91053,0.01760
2037.85001,0.01759
2035.78950,0.01682
2033.72898,0.01586
2031.66847,0.01457
2029.60795,0.01350
2027.54743,0.01424
2025.48692,0.01628
2023.42640,0.01727
2021.36589,0.01601
2019.30537,0.01426
2017.24486,0.01378
2015.18434,0.01429
2013.12382,0.01539
2011.06331,0.01583
2009.00279,0.01535
2006.94228,0.01522
2004.88176,0.01488
2002.82125,0.01411
2000.76073,0.01339
1998.70021,0.01319
1996.63970,0.01388
1994.57918,0.01494
1992.51867,0.01535
1990.45815,0.01524
1988.39764,0.01554
1986.33712,0.01550
1984.27660,0.01525
1982.21609,0.01555
1980.15557,0.01535
1978.09506,0.01438
1976.03454,0.01455
1973.97403,0.01602
1971.91351,0.01631
1969.85300,0.01474
1967.79248,0.01305
1965.73196,0.01229
1963.67145,0.01144
1961.61093,0.01123
1959.55042,0.01318
1957.48990,0.01500
1955.42939,0.01495
1953.36887,0.01447
1951.30835,0.01417
1949.24784,0.01364
1947.18732,0.01363
1945.12681,0.01458
1943.06629,0.01513
1941.00578,0.01467
1938.94526,0.01384
1936.88474,0.01336
1934.82423,0.01354
1932.76371,0.01370
1930.70320,0.01357
1928.64268,0.01391
1926.58217,0.01445
1924.52165,0.01423
1922.46113,0.01355
1920.40062,0.01309
1918.34010,0.01294
1916.27959,0.01296
1914.21907,0.01275
1912.15856,0.01238
1910.09804,0.01231
1908.03752,0.01277
1905.97701,0.01335
1903.91649,0.01351
1901.85598,0.01347
1899.79546,0.01346
1897.73495,0.01355
1895.67443,0.01380
1893.61391,0.01379
1891.55340,0.01377
1889.49288,0.01406
1887.43237,0.01415
1885.37185,0.01412
1883.31134,0.01438
1881.25082,0.01424
1879.19030,0.01350
1877.12979,0.01305
1875.06927,0.01292
1873.00876,0.01287
1870.94824,0.01287
1868.88773,0.01318
1866.82721,0.01365
1864.76670,0.01369
1862.70618,0.01359
1860.64566,0.01365
1858.58515,0.01405
1856.52463,0.01459
1854.46412,0.01465
1852.40360,0.01436
1850.34309,0.01438
1848.28257,0.01456
1846.22205,0.01427
1844.16154,0.01381
1842.10102,0.01401
1840.04051,0.01455
1837.97999,0.01483
1835.91948,0.01491
1833.85896,0.01502
1831.79844,0.01518
1829.73793,0.01520
1827.67741,0.01479
1825.61690,0.01442
1823.55638,0.01500
1821.49587,0.01595
1819.43535,0.01607
1817.37483,0.01564
1815.31432,0.01553
1813.25380,0.01568
1811.19329,0.01593
1809.13277,0.01631
1807.07226,0.01660
1805.01174,0.01672
1802.95122,0.01682
1800.89071,0.01707
1798.83019,0.01727
1796.76968,0.01752
1794.70916,0.01792
1792.64865,0.01824
1790.58813,0.01847
1788.52761,0.01864
1786.46710,0.01866
1784.40658,0.01874
1782.34607,0.01919
1780.28555,0.01958
1778.22504,0.01970
1776.16452,0.01990
1774.10400,0.02043
1772.04349,0.02120
1769.98297,0.02175
1767.92246,0.02214
1765.86194,0.02262
1763.80143,0.02306
1761.74091,0.02325
1759.68040,0.02359
1757.61988,0.02434
1755.55936,0.02520
1753.49885,0.02578
1751.43833,0.02624
1749.37782,0.02697
1747.31730,0.02784
1745.25679,0.02877
1743.19627,0.02978
1741.13575,0.03070
1739.07524,0.03168
1737.01472,0.03271
1734.95421,0.03354
1732.89369,0.03449
1730.83318,0.03573
1728.77266,0.03713
1726.71214,0.03854
1724.65163,0.04010
1722.59111,0.04180
1720.53060,0.04319
1718.47008,0.04466
1716.40957,0.04663
1714.34905,0.04864
1712.28853,0.05080
1710.22802,0.05328
1708.16750,0.05572
1706.10699,0.05808
1704.04647,0.06028
1701.98596,0.06241
1699.92544,0.06527
1697.86492,0.06845
1695.80441,0.07200
1693.74389,0.07564
1691.68338,0.07855
1689.62286,0.08153
1687.56235,0.08457
1685.50183,0.08793
1683.44131,0.09267
1681.38080,0.09696
1679.32028,0.10036
1677.25977,0.10374
1675.19925,0.10755
1673.13874,0.11137
1671.07822,0.11495
1669.01771,0.11889
1666.95719,0.12266
1664.89667,0.12592
1662.83616,0.12940
1660.77564,0.13309
1658.71513,0.13639
1656.65461,0.13918
1654.59410,0.14197
1652.53358,0.14534
1650.47306,0.14772
1648.41255,0.14946
1646.35203,0.15145
1644.29152,0.15312
1642.23100,0.15399
1640.17049,0.15424
1638.10997,0.15398
1636.04945,0.15320
1633.98894,0.15231
1631.92842,0.15142
1629.86791,0.14964
1627.80739,0.14679
1625.74688,0.14364
1623.68636,0.14015
1621.62584,0.13630
1619.56533,0.13268
1617.50481,0.12821
1615.44430,0.12301
1613.38378,0.11902
1611.32327,0.11525
1609.26275,0.11102
1607.20223,0.10706
1605.14172,0.10370
1603.08120,0.10048
1601.02069,0.09728
1598.96017,0.09430
1596.89966,0.09135
1594.83914,0.08842
1592.77862,0.08585
1590.71811,0.08355
1588.65759,0.08117
1586.59708,0.07894
1584.53656,0.07717
1582.47605,0.07562
1580.41553,0.07403
1578.35501,0.07234
1576.29450,0.07043
1574.23398,0.06900
1572.17347,0.06814
1570.11295,0.06702
1568.05244,0.06579
1565.99192,0.06471
1563.93141,0.06374
1561.87089,0.06295
1559.81037,0.06178
1557.74986,0.06026
1555.68934,0.05960
1553.62883,0.05915
1551.56831,0.05859
1549.50780,0.05809
1547.44728,0.05759
1545.38676,0.05675
1543.32625,0.05574
1541.26573,0.05498
1539.20522,0.05452
1537.14470,0.05434
1535.08419,0.05416
1533.02367,0.05384
1530.96315,0.05356
1528.90264,0.05337
1526.84212,0.05312
1524.78161,0.05272
1522.72109,0.05208
1520.66058,0.05151
1518.60006,0.05136
1516.53954,0.05131
1514.47903,0.05116
1512.41851,0.05095
1510.35800,0.05050
1508.29748,0.04981
1506.23697,0.04956
1504.17645,0.04993
1502.11593,0.05017
1500.05542,0.05016
1497.99490,0.05002
1495.93439,0.05004
1493.87387,0.05042
1491.81336,0.05111
1489.75284,0.05264
1487.69232,0.05623
1485.63181,0.06274
1483.57129,0.07087
1481.51078,0.07571
1479.45026,0.07337
1477.38975,0.06739
1475.32923,0.06325
1473.26871,0.06311
1471.20820,0.06645
1469.14768,0.07035
1467.08717,0.07307
1465.02665,0.07391
1462.96614,0.07266
1460.90562,0.07027
1458.84511,0.06710
1456.78459,0.06381
1454.72407,0.06224
1452.66356,0.06154
1450.60304,0.06055
1448.54253,0.05917
1446.48201,0.05779
1444.42150,0.05675
1442.36098,0.05590
1440.30046,0.05525
1438.23995,0.05445
1436.17943,0.05293
1434.11892,0.05146
1432.05840,0.05057
1429.99789,0.05010
1427.93737,0.04985
1425.87685,0.04950
1423.81634,0.04902
1421.75582,0.04857
1419.69531,0.04813
1417.63479,0.04788
1415.57428,0.04793
1413.51376,0.04812
1411.45324,0.04860
1409.39273,0.04965
1407.33221,0.05137
1405.27170,0.05323
1403.21118,0.05401
1401.15067,0.05310
1399.09015,0.05101
1397.02963,0.04894
1394.96912,0.04768
1392.90860,0.04722
1390.84809,0.04698
1388.78757,0.04644
1386.72706,0.04583
1384.66654,0.04556
1382.60602,0.04547
1380.54551,0.04545
1378.48499,0.04530
1376.42448,0.04506
1374.36396,0.04491
1372.30345,0.04490
1370.24293,0.04504
1368.18241,0.04528
1366.12190,0.04547
1364.06138,0.04546
1362.00087,0.04527
1359.94035,0.04505
1357.87984,0.04496
1355.81932,0.04496
1353.75881,0.04483
1351.69829,0.04470
1349.63777,0.04470
1347.57726,0.04471
1345.51674,0.04473
1343.45623,0.04466
1341.39571,0.04454
1339.33520,0.04461
1337.27468,0.04480
1335.21416,0.04491
1333.15365,0.04487
1331.09313,0.04471
1329.03262,0.04470
1326.97210,0.04483
1324.91159,0.04484
1322.85107,0.04466
1320.79055,0.04436
1318.73004,0.04420
1316.66952,0.04436
1314.60901,0.04459
1312.54849,0.04467
1310.48798,0.04462
1308.42746,0.04451
1306.36694,0.04445
1304.30643,0.04456
1302.24591,0.04468
1300.18540,0.04468
1298.12488,0.04468
1296.06437,0.04468
1294.00385,0.04466
1291.94333,0.04475
1289.88282,0.04479
1287.82230,0.04464
1285.76179,0.04445
1283.70127,0.04429
1281.64076,0.04418
1279.58024,0.04432
1277.51972,0.04452
1275.45921,0.04454
1273.39869,0.04441
1271.33818,0.04429
1269.27766,0.04447
1267.21715,0.04466
1265.15663,0.04450
1263.09612,0.04435
1261.03560,0.04433
1258.97508,0.04445
1256.91457,0.04492
1254.85405,0.04571
1252.79354,0.04676
1250.73302,0.04813
1248.67251,0.04996
1246.61199,0.05252
1244.55147,0.05594
1242.49096,0.05956
1240.43044,0.06200
1238.36993,0.06222
1236.30941,0.06036
1234.24890,0.05737
1232.18838,0.05429
1230.12786,0.05168
1228.06735,0.04975
1226.00683,0.04845
1223.94632,0.04759
1221.88580,0.04699
1219.82529,0.04654
1217.76477,0.04628
1215.70425,0.04611
1213.64374,0.04575
1211.58322,0.04537
1209.52271,0.04527
1207.46219,0.04527
1205.40168,0.04507
1203.34116,0.04489
1201.28064,0.04489
1199.22013,0.04499
1197.15961,0.04506
1195.09910,0.04505
1193.03858,0.04494
1190.97807,0.04492
1188.91755,0.04506
1186.85703,0.04507
1184.79652,0.04492
1182.73600,0.04475
1180.67549,0.04458
1178.61497,0.04439
1176.55446,0.04432
1174.49394,0.04440
1172.43342,0.04451
1170.37291,0.04464
1168.31239,0.04463
1166.25188,0.04444
1164.19136,0.04442
1162.13085,0.04446
1160.07033,0.04440
1158.00982,0.04433
1155.94930,0.04424
1153.88878,0.04419
1151.82827,0.04436
1149.76775,0.04461
1147.70724,0.04461
1145.64672,0.04451
1143.58621,0.04448
1141.52569,0.04433
1139.46517,0.04422
1137.40466,0.04449
1135.34414,0.04490
1133.28363,0.04502
1131.22311,0.04483
1129.16260,0.04465
1127.10208,0.04498
1125.04156,0.04581
1122.98105,0.04628
1120.92053,0.04605
1118.86002,0.04571
1116.79950,0.04566
1114.73899,0.04572
1112.67847,0.04578
1110.61795,0.04576
1108.55744,0.04561
1106.49692,0.04565
1104.43641,0.04576
1102.37589,0.04565
1100.31538,0.04567
1098.25486,0.04603
1096.19434,0.04645
1094.13383,0.04669
1092.07331,0.04689
1090.01280,0.04714
1087.95228,0.04726
1085.89177,0.04729
1083.83125,0.04745
1081.77073,0.04767
1079.71022,0.04775
1077.64970,0.04781
1075.58919,0.04793
1073.52867,0.04800
1071.46816,0.04799
1069.40764,0.04808
1067.34712,0.04809
1065.28661,0.04788
1063.22609,0.04773
1061.16558,0.04774
1059.10506,0.04783
1057.04455,0.04793
1054.98403,0.04791
1052.92352,0.04778
1050.86300,0.04764
1048.80248,0.04768
1046.74197,0.04796
1044.68145,0.04822
1042.62094,0.04825
1040.56042,0.04828
1038.49991,0.04850
1036.43939,0.04872
1034.37887,0.04893
1032.31836,0.04922
1030.25784,0.04956
1028.19733,0.04981
1026.13681,0.04980
1024.07630,0.04964
1022.01578,0.04961
1019.95526,0.04974
1017.89475,0.04993
1015.83423,0.05026
1013.77372,0.05078
1011.71320,0.05140
1009.65269,0.05204
1007.59217,0.05260
1005.53165,0.05308
1003.47114,0.05354
1001.41062,0.05392
999.35011,0.05420
997.28959,0.05460
995.22908,0.05525
993.16856,0.05595
991.10804,0.05670
989.04753,0.05741
986.98701,0.05783
984.92650,0.05806
982.86598,0.05846
980.80547,0.05917
978.74495,0.06000
976.68443,0.06079
974.62392,0.06137
972.56340,0.06202
970.50289,0.06331
968.44237,0.06516
966.38186,0.06711
964.32134,0.06939
962.26082,0.07269
960.20031,0.07757
958.13979,0.08429
956.07928,0.09239
954.01876,0.10060
951.95825,0.10710
949.89773,0.11068
947.83722,0.11059
945.77670,0.10651
943.71618,0.10014
941.65567,0.09396
939.59515,0.08919
937.53464,0.08631
935.47412,0.08482
933.41361,0.08398
931.35309,0.08380
929.29257,0.08411
927.23206,0.08458
925.17154,0.08534
923.11103,0.08644
921.05051,0.08744
918.99000,0.08836
916.92948,0.08975
914.86896,0.09151
912.80845,0.09304
910.74793,0.09419
908.68742,0.09553
906.62690,0.09728
904.56639,0.09911
902.50587,0.10083
900.44535,0.10239
898.38484,0.10416
896.32432,0.10655
894.26381,0.10892
892.20329,0.11072
890.14278,0.11230
888.08226,0.11411
886.02174,0.11632
883.96123,0.11853
881.90071,0.12034
879.84020,0.12196
877.77968,0.12390
875.71917,0.12636
873.65865,0.12875
871.59813,0.13061
869.53762,0.13252
867.47710,0.13497
865.41659,0.13750
863.35607,0.13975
861.29556,0.14192
859.23504,0.14416
857.17453,0.14637
855.11401,0.14841
853.05349,0.15076
850.99298,0.15383
848.93246,0.15703
846.87195,0.15965
844.81143,0.16179
842.75092,0.16417
840.69040,0.16696
838.62988,0.16961
836.56937,0.17168
834.50885,0.17373
832.44834,0.17644
830.38782,0.17917
828.32731,0.18123
826.26679,0.18331
824.20627,0.18600
822.14576,0.18875
820.08524,0.19177
818.02473,0.19518
815.96421,0.19809
813.90370,0.20060
811.84318,0.20317
809.78266,0.20544
807.72215,0.20752
805.66163,0.21010
803.60112,0.21357
801.54060,0.21724
799.48009,0.22011
797.41957,0.22246
795.35905,0.22464
793.29854,0.22664
791.23802,0.22915
789.17751,0.23231
787.11699,0.23540
785.05648,0.23844
782.99596,0.24191
780.93544,0.24550
778.87493,0.24845
776.81441,0.25080
774.75390,0.25369
772.69338,0.25715
770.63287,0.26091
768.57235,0.26526
766.51183,0.26966
764.45132,0.27371
762.39080,0.27822
760.33029,0.28406
758.26977,0.29049
756.20926,0.29550
754.14874,0.29760
752.08823,0.29752
750.02771,0.29758
747.96719,0.29867
745.90668,0.30012
743.84616,0.30177
741.78565,0.30409
739.72513,0.30687
737.66462,0.30903
735.60410,0.31055
733.54358,0.31285
731.48307,0.31621
729.42255,0.31934
727.36204,0.32162
725.30152,0.32396
723.24101,0.32679
721.18049,0.32956
719.11997,0.33190
717.05946,0.33413
714.99894,0.33675
712.93843,0.33981
710.87791,0.34336
708.81740,0.34715
706.75688,0.35020
704.69636,0.35218
702.63585,0.35410
700.57533,0.35634
698.51482,0.35817
696.45430,0.36031
694.39379,0.36322
692.33327,0.36593
690.27275,0.36841
688.21224,0.37120
686.15172,0.37407
684.09121,0.37594
682.03069,0.37675
679.97018,0.37834
677.90966,0.38190
675.84914,0.38539
673.78863,0.38733
671.72811,0.38913
669.66760,0.39209
667.60708,0.39665
665.54657,0.39956
663.48605,0.40081
661.42553,0.40275
659.36502,0.40563
657.30450,0.40797
655.24399,0.40909
653.18347,0.40965
651.12296,0.41026
649.06244,0.41153
647.00193,0.41375
644.94141,0.41754
642.88089,0.42238
640.82038,0.42554
638.75986,0.42703
636.69935,0.42887
634.63883,0.43058
632.57832,0.43204
630.51780,0.43373
628.45728,0.43522
626.39677,0.43628
624.33625,0.43647
622.27574,0.43755
620.21522,0.44111
618.15471,0.44451
616.09419,0.44559
614.03367,0.44539
611.97316,0.44577
609.91264,0.44788
607.85213,0.45035
605.79161,0.45262
603.73110,0.45545
601.67058,0.45691
599.61006,0.45705
597.54955,0.45867
595.48903,0.46087
593.42852,0.46158
591.36800,0.46216
589.30749,0.46498
587.24697,0.46880
585.18645,0.47024
583.12594,0.47006
581.06542,0.47146
579.00491,0.47400
576.94439,0.47537
574.88388,0.47664
572.82336,0.47880
570.76284,0.47878
568.70233,0.47713
566.64181,0.47800
564.58130,0.48006
562.52078,0.47947
560.46027,0.47822
558.39975,0.48036
556.33924,0.48453
554.27872,0.48627
552.21820,0.48527
550.15769,0.48546
548.09717,0.48727
546.03666,0.48840
543.97614,0.48880
541.91563,0.48938
539.85511,0.49069
537.79459,0.49153
535.73408,0.49111
533.67356,0.49160
531.61305,0.49503
529.55253,0.49793
527.49202,0.49575
525.43150,0.49272
523.37098,0.49579
521.31047,0.50294
519.24995,0.50672
517.18944,0.50739
515.12892,0.51124
513.06841,0.51701
511.00789,0.52235
508.94737,0.52711
506.88686,0.53005
504.82634,0.53370
502.76583,0.53986
500.70531,0.54472
498.64480,0.54750
496.58428,0.54901
494.52376,0.54622
492.46325,0.53900
490.40273,0.53273
488.34222,0.52851
486.28170,0.52577
484.22119,0.52676
482.16067,0.52776
480.10015,0.52655
478.03964,0.52709
475.97912,0.53121
473.91861,0.53600
471.85809,0.53829
469.79758,0.54204
467.73706,0.55221
465.67654,0.56570
463.61603,0.57402
461.55551,0.57405
459.49500,0.56925
457.43448,0.56246
455.37397,0.55639
453.31345,0.55177
451.25294,0.54741
449.19242,0.54436
447.13190,0.54282
445.07139,0.54091
443.01087,0.53930
440.95036,0.54030
438.88984,0.54254
436.82933,0.54226
434.76881,0.53869
432.70829,0.53477
430.64778,0.52849
428.58726,0.52055
426.52675,0.51586
424.46623,0.51043
422.40572,0.50828
420.34520,0.51281
418.28468,0.51461
416.22417,0.51569
414.16365,0.51624
412.10314,0.51572
410.04262,0.52001
407.98211,0.52511
405.92159,0.52558
403.86107,0.52665
401.80056,0.52278
399.74004,0.50752
