4998.81105,0.00335
4997.78079,0.00469
4996.75054,0.00492
4995.72028,0.00390
4994.69002,0.00234
4993.65976,0.00112
4992.62951,0.00078
4991.59925,0.00148
4990.56899,0.00226
4989.53873,0.00259
4988.50847,0.00294
4987.47822,0.00256
4986.44796,0.00100
4985.41770,0.00005
4984.38744,0.00102
4983.35718,0.00301
4982.32693,0.00441
4981.29667,0.00489
4980.26641,0.00532
4979.23615,0.00514
4978.20590,0.00429
4977.17564,0.00409
4976.14538,0.00398
4975.11512,0.00370
4974.08486,0.00377
4973.05461,0.00336
4972.02435,0.00279
4970.99409,0.00298
4969.96383,0.00329
4968.93357,0.00313
4967.90332,0.00305
4966.87306,0.00334
4965.84280,0.00339
4964.81254,0.00271
4963.78229,0.00224
4962.75203,0.00296
4961.72177,0.00401
4960.69151,0.00413
4959.66125,0.00333
4958.63100,0.00319
4957.60074,0.00416
4956.57048,0.00467
4955.54022,0.00450
4954.50997,0.00432
4953.47971,0.00404
4952.44945,0.00370
4951.41919,0.00339
4950.38893,0.00350
4949.35868,0.00433
4948.32842,0.00462
4947.29816,0.00401
4946.26790,0.00401
4945.23764,0.00463
4944.20739,0.00455
4943.17713,0.00369
4942.14687,0.00276
4941.11661,0.00265
4940.08636,0.00363
4939.05610,0.00443
4938.02584,0.00392
4936.99558,0.00295
4935.96532,0.00285
4934.93507,0.00308
4933.90481,0.00311
4932.87455,0.00332
4931.84429,0.00277
4930.81403,0.00121
4929.78378,0.00042
4928.75352,0.00124
4927.72326,0.00249
4926.69300,0.00337
4925.66275,0.00384
4924.63249,0.00382
4923.60223,0.00366
4922.57197,0.00367
4921.54171,0.00379
4920.51146,0.00392
4919.48120,0.00356
4918.45094,0.00248
4917.42068,0.00135
4916.39042,0.00153
4915.36017,0.00293
4914.32991,0.00395
4913.29965,0.00397
4912.26939,0.00356
4911.23914,0.00337
4910.20888,0.00344
4909.17862,0.00345
4908.14836,0.00327
4907.11810,0.00339
4906.08785,0.00377
4905.05759,0.00391
4904.02733,0.00345
4902.99707,0.00234
4901.96682,0.00187
4900.93656,0.00236
4899.90630,0.00282
4898.87604,0.00308
4897.84578,0.00318
4896.81553,0.00328
4895.78527,0.00336
4894.75501,0.00369
4893.72475,0.00440
4892.69449,0.00485
4891.66424,0.00428
4890.63398,0.00334
4889.60372,0.00328
4888.57346,0.00335
4887.54321,0.00292
4886.51295,0.00297
4885.48269,0.00350
4884.45243,0.00362
4883.42217,0.00282
4882.39192,0.00164
4881.36166,0.00155
4880.33140,0.00194
4879.30114,0.00166
4878.27088,0.00182
4877.24063,0.00220
4876.21037,0.00177
4875.18011,0.00144
4874.14985,0.00170
4873.11960,0.00175
4872.08934,0.00136
4871.05908,0.00128
4870.02882,0.00227
4868.99856,0.00364
4867.96831,0.00403
4866.93805,0.00359
4865.90779,0.00333
4864.87753,0.00358
4863.84727,0.00381
4862.81702,0.00344
4861.78676,0.00227
4860.75650,0.00103
4859.72624,0.00072
4858.69599,0.00147
4857.66573,0.00248
4856.63547,0.00282
4855.60521,0.00255
4854.57495,0.00212
4853.54470,0.00178
4852.51444,0.00176
4851.48418,0.00219
4850.45392,0.00263
4849.42367,0.00283
4848.39341,0.00310
4847.36315,0.00311
4846.33289,0.00294
4845.30263,0.00302
4844.27238,0.00310
4843.24212,0.00312
4842.21186,0.00337
4841.18160,0.00409
4840.15134,0.00445
4839.12109,0.00372
4838.09083,0.00273
4837.06057,0.00207
4836.03031,0.00177
4835.00006,0.00200
4833.96980,0.00220
4832.93954,0.00230
4831.90928,0.00254
4830.87902,0.00258
4829.84877,0.00263
4828.81851,0.00236
4827.78825,0.00170
4826.75799,0.00180
4825.72773,0.00246
4824.69748,0.00303
4823.66722,0.00331
4822.63696,0.00284
4821.60670,0.00237
4820.57645,0.00249
4819.54619,0.00272
4818.51593,0.00293
4817.48567,0.00306
4816.45541,0.00286
4815.42516,0.00262
4814.39490,0.00274
4813.36464,0.00268
4812.33438,0.00213
4811.30412,0.00218
4810.27387,0.00303
4809.24361,0.00358
4808.21335,0.00329
4807.18309,0.00250
4806.15284,0.00237
4805.12258,0.00288
4804.09232,0.00290
4803.06206,0.00274
4802.03180,0.00261
4801.00155,0.00240
4799.97129,0.00249
4798.94103,0.00286
4797.91077,0.00363
4796.88052,0.00383
4795.85026,0.00324
4794.82000,0.00338
4793.78974,0.00325
4792.75948,0.00211
4791.72923,0.00175
4790.69897,0.00243
4789.66871,0.00257
4788.63845,0.00197
4787.60819,0.00145
4786.57794,0.00153
4785.54768,0.00205
4784.51742,0.00266
4783.48716,0.00281
4782.45691,0.00190
4781.42665,0.00141
4780.39639,0.00206
4779.36613,0.00245
4778.33587,0.00254
4777.30562,0.00285
4776.27536,0.00323
4775.24510,0.00344
4774.21484,0.00284
4773.18458,0.00178
4772.15433,0.00128
4771.12407,0.00111
4770.09381,0.00114
4769.06355,0.00144
4768.03330,0.00169
4767.00304,0.00183
4765.97278,0.00186
4764.94252,0.00221
4763.91226,0.00283
4762.88201,0.00290
4761.85175,0.00263
4760.82149,0.00245
4759.79123,0.00190
4758.76098,0.00128
4757.73072,0.00196
4756.70046,0.00347
4755.67020,0.00395
4754.63994,0.00384
4753.60969,0.00380
4752.57943,0.00323
4751.54917,0.00324
4750.51891,0.00422
4749.48865,0.00428
4748.45840,0.00290
4747.42814,0.00186
4746.39788,0.00217
4745.36762,0.00239
4744.33737,0.00160
4743.30711,0.00099
4742.27685,0.00140
4741.24659,0.00209
4740.21633,0.00231
4739.18608,0.00259
4738.15582,0.00299
4737.12556,0.00263
4736.09530,0.00192
4735.06504,0.00166
4734.03479,0.00176
4733.00453,0.00221
4731.97427,0.00295
4730.94401,0.00342
4729.91376,0.00337
4728.88350,0.00270
4727.85324,0.00173
4726.82298,0.00132
4725.79272,0.00142
4724.76247,0.00157
4723.73221,0.00176
4722.70195,0.00150
4721.67169,0.00098
4720.64143,0.00174
4719.61118,0.00298
4718.58092,0.00282
4717.55066,0.00246
4716.52040,0.00266
4715.49015,0.00271
4714.45989,0.00294
4713.42963,0.00356
4712.39937,0.00379
4711.36911,0.00329
4710.33886,0.00278
4709.30860,0.00299
4708.27834,0.00288
4707.24808,0.00169
4706.21783,0.00061
4705.18757,0.00045
4704.15731,0.00097
4703.12705,0.00112
4702.09679,0.00071
4701.06654,0.00056
4700.03628,0.00119
4699.00602,0.00241
4697.97576,0.00299
4696.94550,0.00252
4695.91525,0.00198
4694.88499,0.00194
4693.85473,0.00203
4692.82447,0.00200
4691.79422,0.00222
4690.76396,0.00263
4689.73370,0.00278
4688.70344,0.00318
4687.67318,0.00382
4686.64293,0.00387
4685.61267,0.00340
4684.58241,0.00279
4683.55215,0.00204
4682.52189,0.00118
4681.49164,0.00076
4680.46138,0.00082
4679.43112,0.00106
4678.40086,0.00164
4677.37061,0.00242
4676.34035,0.00275
4675.31009,0.00241
4674.27983,0.00192
4673.24957,0.00187
4672.21932,0.00233
4671.18906,0.00272
4670.15880,0.00245
4669.12854,0.00173
4668.09828,0.00150
4667.06803,0.00208
4666.03777,0.00301
4665.00751,0.00377
4663.97725,0.00403
4662.94700,0.00392
4661.91674,0.00353
4660.88648,0.00326
4659.85622,0.00334
4658.82596,0.00327
4657.79571,0.00273
4656.76545,0.00227
4655.73519,0.00252
4654.70493,0.00315
4653.67468,0.00322
4652.64442,0.00291
4651.61416,0.00274
4650.58390,0.00249
4649.55364,0.00250
4648.52339,0.00262
4647.49313,0.00227
4646.46287,0.00170
4645.43261,0.00130
4644.40235,0.00138
4643.37210,0.00190
4642.34184,0.00220
4641.31158,0.00202
4640.28132,0.00190
4639.25107,0.00259
4638.22081,0.00358
4637.19055,0.00358
4636.16029,0.00253
4635.13003,0.00136
4634.09978,0.00126
4633.06952,0.00205
4632.03926,0.00204
4631.00900,0.00122
4629.97874,0.00102
4628.94849,0.00143
4627.91823,0.00201
4626.88797,0.00280
4625.85771,0.00321
4624.82746,0.00314
4623.79720,0.00314
4622.76694,0.00324
4621.73668,0.00305
4620.70642,0.00265
4619.67617,0.00264
4618.64591,0.00290
4617.61565,0.00284
4616.58539,0.00247
4615.55513,0.00196
4614.52488,0.00136
4613.49462,0.00124
4612.46436,0.00188
4611.43410,0.00268
4610.40385,0.00311
4609.37359,0.00281
4608.34333,0.00223
4607.31307,0.00223
4606.28281,0.00246
4605.25256,0.00247
4604.22230,0.00242
4603.19204,0.00205
4602.16178,0.00148
4601.13153,0.00159
4600.10127,0.00221
4599.07101,0.00232
4598.04075,0.00208
4597.01049,0.00225
4595.98024,0.00264
4594.94998,0.00250
4593.91972,0.00211
4592.88946,0.00214
4591.85920,0.00252
4590.82895,0.00286
4589.79869,0.00314
4588.76843,0.00366
4587.73817,0.00396
4586.70792,0.00341
4585.67766,0.00254
4584.64740,0.00188
4583.61714,0.00156
4582.58688,0.00129
4581.55663,0.00070
4580.52637,0.00061
4579.49611,0.00132
4578.46585,0.00186
4577.43559,0.00198
4576.40534,0.00229
4575.37508,0.00301
4574.34482,0.00329
4573.31456,0.00269
4572.28431,0.00210
4571.25405,0.00187
4570.22379,0.00154
4569.19353,0.00144
4568.16327,0.00166
4567.13302,0.00176
4566.10276,0.00216
4565.07250,0.00264
4564.04224,0.00257
4563.01198,0.00220
4561.98173,0.00203
4560.95147,0.00239
4559.92121,0.00268
4558.89095,0.00232
4557.86070,0.00211
4556.83044,0.00256
4555.80018,0.00297
4554.76992,0.00273
4553.73966,0.00208
4552.70941,0.00139
4551.67915,0.00111
4550.64889,0.00149
4549.61863,0.00196
4548.58838,0.00210
4547.55812,0.00209
4546.52786,0.00213
4545.49760,0.00226
4544.46734,0.00208
4543.43709,0.00175
4542.40683,0.00208
4541.37657,0.00271
4540.34631,0.00316
4539.31605,0.00374
4538.28580,0.00435
4537.25554,0.00437
4536.22528,0.00362
4535.19502,0.00284
4534.16477,0.00251
4533.13451,0.00249
4532.10425,0.00286
4531.07399,0.00320
4530.04373,0.00264
4529.01348,0.00166
4527.98322,0.00144
4526.95296,0.00179
4525.92270,0.00200
4524.89244,0.00222
4523.86219,0.00228
4522.83193,0.00208
4521.80167,0.00234
4520.77141,0.00277
4519.74116,0.00288
4518.71090,0.00281
4517.68064,0.00241
4516.65038,0.00205
4515.62012,0.00198
4514.58987,0.00184
4513.55961,0.00200
4512.52935,0.00277
4511.49909,0.00322
4510.46883,0.00293
4509.43858,0.00275
4508.40832,0.00305
4507.37806,0.00346
4506.34780,0.00349
4505.31755,0.00286
4504.28729,0.00229
4503.25703,0.00214
4502.22677,0.00197
4501.19651,0.00182
4500.16626,0.00170
4499.13600,0.00164
4498.10574,0.00178
4497.07548,0.00193
4496.04523,0.00211
4495.01497,0.00234
4493.98471,0.00226
4492.95445,0.00209
4491.92419,0.00239
4490.89394,0.00285
4489.86368,0.00283
4488.83342,0.00254
4487.80316,0.00235
4486.77290,0.00208
4485.74265,0.00181
4484.71239,0.00174
4483.68213,0.00178
4482.65187,0.00228
4481.62162,0.00306
4480.59136,0.00317
4479.56110,0.00277
4478.53084,0.00256
4477.50058,0.00267
4476.47033,0.00284
4475.44007,0.00240
4474.40981,0.00116
4473.37955,0.00049
4472.34929,0.00078
4471.31904,0.00095
4470.28878,0.00126
4469.25852,0.00186
4468.22826,0.00202
4467.19801,0.00225
4466.16775,0.00279
4465.13749,0.00280
4464.10723,0.00234
4463.07697,0.00207
4462.04672,0.00226
4461.01646,0.00284
4459.98620,0.00337
4458.95594,0.00324
4457.92568,0.00219
4456.89543,0.00098
4455.86517,0.00087
4454.83491,0.00187
4453.80465,0.00268
4452.77440,0.00266
4451.74414,0.00255
4450.71388,0.00277
4449.68362,0.00296
4448.65336,0.00272
4447.62311,0.00202
4446.59285,0.00152
4445.56259,0.00186
4444.53233,0.00276
4443.50208,0.00302
4442.47182,0.00235
4441.44156,0.00196
4440.41130,0.00235
4439.38104,0.00271
4438.35079,0.00265
4437.32053,0.00254
4436.29027,0.00228
4435.26001,0.00183
4434.22975,0.00172
4433.19950,0.00182
4432.16924,0.00185
4431.13898,0.00210
4430.10872,0.00247
4429.07847,0.00276
4428.04821,0.00309
4427.01795,0.00316
4425.98769,0.00296
4424.95743,0.00296
4423.92718,0.00276
4422.89692,0.00257
4421.86666,0.00314
4420.83640,0.00381
4419.80614,0.00379
4418.77589,0.00318
4417.74563,0.00251
4416.71537,0.00234
4415.68511,0.00281
4414.65486,0.00343
4413.62460,0.00342
4412.59434,0.00275
4411.56408,0.00213
4410.53382,0.00184
4409.50357,0.00189
4408.47331,0.00257
4407.44305,0.00337
4406.41279,0.00337
4405.38253,0.00267
4404.35228,0.00194
4403.32202,0.00167
4402.29176,0.00200
4401.26150,0.00240
4400.23125,0.00235
4399.20099,0.00236
4398.17073,0.00265
4397.14047,0.00271
4396.11021,0.00259
4395.07996,0.00241
4394.04970,0.00236
4393.01944,0.00255
4391.98918,0.00249
4390.95893,0.00214
4389.92867,0.00191
4388.89841,0.00200
4387.86815,0.00246
4386.83789,0.00295
4385.80764,0.00284
4384.77738,0.00254
4383.74712,0.00259
4382.71686,0.00266
4381.68660,0.00237
4380.65635,0.00202
4379.62609,0.00213
4378.59583,0.00237
4377.56557,0.00240
4376.53532,0.00246
4375.50506,0.00237
4374.47480,0.00202
4373.44454,0.00192
4372.41428,0.00191
4371.38403,0.00189
4370.35377,0.00240
4369.32351,0.00265
4368.29325,0.00237
4367.26299,0.00260
4366.23274,0.00317
4365.20248,0.00336
4364.17222,0.00305
4363.14196,0.00268
4362.11171,0.00246
4361.08145,0.00248
4360.05119,0.00303
4359.02093,0.00355
4357.99067,0.00368
4356.96042,0.00394
4355.93016,0.00395
4354.89990,0.00328
4353.86964,0.00259
4352.83939,0.00208
4351.80913,0.00177
4350.77887,0.00200
4349.74861,0.00231
4348.71835,0.00227
4347.68810,0.00198
4346.65784,0.00162
4345.62758,0.00152
4344.59732,0.00211
4343.56706,0.00310
4342.53681,0.00368
4341.50655,0.00349
4340.47629,0.00284
4339.44603,0.00248
4338.41578,0.00261
4337.38552,0.00261
4336.35526,0.00245
4335.32500,0.00281
4334.29474,0.00333
4333.26449,0.00336
4332.23423,0.00296
4331.20397,0.00238
4330.17371,0.00178
4329.14345,0.00168
4328.11320,0.00226
4327.08294,0.00264
4326.05268,0.00219
4325.02242,0.00174
4323.99217,0.00165
4322.96191,0.00149
4321.93165,0.00163
4320.90139,0.00211
4319.87113,0.00250
4318.84088,0.00265
4317.81062,0.00257
4316.78036,0.00243
4315.75010,0.00213
4314.71984,0.00209
4313.68959,0.00264
4312.65933,0.00282
4311.62907,0.00207
4310.59881,0.00141
4309.56856,0.00148
4308.53830,0.00172
4307.50804,0.00178
4306.47778,0.00179
4305.44752,0.00180
4304.41727,0.00199
4303.38701,0.00232
4302.35675,0.00250
4301.32649,0.00279
4300.29624,0.00284
4299.26598,0.00232
4298.23572,0.00208
4297.20546,0.00240
4296.17520,0.00289
4295.14495,0.00331
4294.11469,0.00323
4293.08443,0.00242
4292.05417,0.00194
4291.02391,0.00210
4289.99366,0.00215
4288.96340,0.00244
4287.93314,0.00307
4286.90288,0.00345
4285.87263,0.00354
4284.84237,0.00325
4283.81211,0.00273
4282.78185,0.00230
4281.75159,0.00228
4280.72134,0.00263
4279.69108,0.00247
4278.66082,0.00187
4277.63056,0.00173
4276.60030,0.00204
4275.57005,0.00243
4274.53979,0.00267
4273.50953,0.00279
4272.47927,0.00297
4271.44902,0.00345
4270.41876,0.00403
4269.38850,0.00388
4268.35824,0.00300
4267.32798,0.00245
4266.29773,0.00248
4265.26747,0.00242
4264.23721,0.00226
4263.20695,0.00262
4262.17669,0.00295
4261.14644,0.00252
4260.11618,0.00199
4259.08592,0.00197
4258.05566,0.00241
4257.02541,0.00296
4255.99515,0.00357
4254.96489,0.00381
4253.93463,0.00328
4252.90437,0.00262
4251.87412,0.00247
4250.84386,0.00259
4249.81360,0.00244
4248.78334,0.00203
4247.75309,0.00195
4246.72283,0.00247
4245.69257,0.00293
4244.66231,0.00291
4243.63205,0.00279
4242.60180,0.00276
4241.57154,0.00286
4240.54128,0.00284
4239.51102,0.00241
4238.48076,0.00202
4237.45051,0.00247
4236.42025,0.00325
4235.38999,0.00326
4234.35973,0.00282
4233.32948,0.00305
4232.29922,0.00395
4231.26896,0.00437
4230.23870,0.00378
4229.20844,0.00314
4228.17819,0.00308
4227.14793,0.00296
4226.11767,0.00267
4225.08741,0.00269
4224.05715,0.00293
4223.02690,0.00290
4221.99664,0.00267
4220.96638,0.00274
4219.93612,0.00328
4218.90587,0.00407
4217.87561,0.00420
4216.84535,0.00351
4215.81509,0.00326
4214.78483,0.00357
4213.75458,0.00358
4212.72432,0.00348
4211.69406,0.00382
4210.66380,0.00384
4209.63354,0.00306
4208.60329,0.00239
4207.57303,0.00246
4206.54277,0.00289
4205.51251,0.00305
4204.48226,0.00287
4203.45200,0.00256
4202.42174,0.00244
4201.39148,0.00258
4200.36122,0.00248
4199.33097,0.00205
4198.30071,0.00197
4197.27045,0.00233
4196.24019,0.00231
4195.20994,0.00173
4194.17968,0.00138
4193.14942,0.00171
4192.11916,0.00253
4191.08890,0.00337
4190.05865,0.00353
4189.02839,0.00314
4187.99813,0.00318
4186.96787,0.00375
4185.93761,0.00409
4184.90736,0.00400
4183.87710,0.00382
4182.84684,0.00367
4181.81658,0.00341
4180.78633,0.00304
4179.75607,0.00272
4178.72581,0.00264
4177.69555,0.00294
4176.66529,0.00337
4175.63504,0.00336
4174.60478,0.00296
4173.57452,0.00288
4172.54426,0.00321
4171.51400,0.00385
4170.48375,0.00439
4169.45349,0.00406
4168.42323,0.00338
4167.39297,0.00298
4166.36272,0.00281
4165.33246,0.00286
4164.30220,0.00317
4163.27194,0.00365
4162.24168,0.00373
4161.21143,0.00319
4160.18117,0.00270
4159.15091,0.00298
4158.12065,0.00359
4157.09039,0.00397
4156.06014,0.00425
4155.02988,0.00413
4153.99962,0.00385
4152.96936,0.00387
4151.93911,0.00368
4150.90885,0.00312
4149.87859,0.00272
4148.84833,0.00286
4147.81807,0.00332
4146.78782,0.00365
4145.75756,0.00375
4144.72730,0.00354
4143.69704,0.00330
4142.66679,0.00349
4141.63653,0.00377
4140.60627,0.00372
4139.57601,0.00354
4138.54575,0.00354
4137.51550,0.00375
4136.48524,0.00392
4135.45498,0.00385
4134.42472,0.00364
4133.39446,0.00333
4132.36421,0.00294
4131.33395,0.00293
4130.30369,0.00367
4129.27343,0.00438
4128.24318,0.00407
4127.21292,0.00333
4126.18266,0.00325
4125.15240,0.00346
4124.12214,0.00329
4123.09189,0.00302
4122.06163,0.00309
4121.03137,0.00344
4120.00111,0.00369
4118.97085,0.00364
4117.94060,0.00340
4116.91034,0.00307
4115.88008,0.00290
4114.84982,0.00298
4113.81957,0.00315
4112.78931,0.00349
4111.75905,0.00373
4110.72879,0.00383
4109.69853,0.00429
4108.66828,0.00495
4107.63802,0.00511
4106.60776,0.00457
4105.57750,0.00375
4104.54724,0.00322
4103.51699,0.00300
4102.48673,0.00294
4101.45647,0.00325
4100.42621,0.00361
4099.39596,0.00346
4098.36570,0.00312
4097.33544,0.00337
4096.30518,0.00400
4095.27492,0.00396
4094.24467,0.00355
4093.21441,0.00370
4092.18415,0.00399
4091.15389,0.00377
4090.12364,0.00335
4089.09338,0.00306
4088.06312,0.00296
4087.03286,0.00319
4086.00260,0.00367
4084.97235,0.00421
4083.94209,0.00435
4082.91183,0.00402
4081.88157,0.00376
4080.85131,0.00360
4079.82106,0.00349
4078.79080,0.00387
4077.76054,0.00442
4076.73028,0.00418
4075.70003,0.00349
4074.66977,0.00327
4073.63951,0.00346
4072.60925,0.00378
4071.57899,0.00435
4070.54874,0.00477
4069.51848,0.00445
4068.48822,0.00408
4067.45796,0.00414
4066.42770,0.00405
4065.39745,0.00378
4064.36719,0.00389
4063.33693,0.00429
4062.30667,0.00426
4061.27642,0.00370
4060.24616,0.00331
4059.21590,0.00348
4058.18564,0.00384
4057.15538,0.00404
4056.12513,0.00428
4055.09487,0.00437
4054.06461,0.00418
4053.03435,0.00417
4052.00409,0.00445
4050.97384,0.00478
4049.94358,0.00482
4048.91332,0.00438
4047.88306,0.00379
4046.85281,0.00362
4045.82255,0.00391
4044.79229,0.00413
4043.76203,0.00406
4042.73177,0.00385
4041.70152,0.00366
4040.67126,0.00357
4039.64100,0.00349
4038.61074,0.00358
4037.58049,0.00399
4036.55023,0.00453
4035.51997,0.00482
4034.48971,0.00462
4033.45945,0.00430
4032.42920,0.00413
4031.39894,0.00388
4030.36868,0.00386
4029.33842,0.00424
4028.30816,0.00426
4027.27791,0.00402
4026.24765,0.00428
4025.21739,0.00470
4024.18713,0.00466
4023.15688,0.00435
4022.12662,0.00406
4021.09636,0.00390
4020.06610,0.00409
4019.03584,0.00418
4018.00559,0.00372
4016.97533,0.00349
4015.94507,0.00402
4014.91481,0.00438
4013.88455,0.00414
4012.85430,0.00386
4011.82404,0.00360
4010.79378,0.00353
4009.76352,0.00405
4008.73327,0.00449
4007.70301,0.00423
4006.67275,0.00375
4005.64249,0.00350
4004.61223,0.00377
4003.58198,0.00409
4002.55172,0.00395
4001.52146,0.00386
4000.49120,0.00405
3999.46095,0.00432
3998.43069,0.00440
3997.40043,0.00432
3996.37017,0.00461
3995.33991,0.00490
3994.30966,0.00443
3993.27940,0.00369
3992.24914,0.00346
3991.21888,0.00374
3990.18862,0.00409
3989.15837,0.00412
3988.12811,0.00381
3987.09785,0.00363
3986.06759,0.00380
3985.03734,0.00412
3984.00708,0.00433
3982.97682,0.00429
3981.94656,0.00391
3980.91630,0.00345
3979.88605,0.00331
3978.85579,0.00337
3977.82553,0.00372
3976.79527,0.00429
3975.76501,0.00432
3974.73476,0.00396
3973.70450,0.00377
3972.67424,0.00360
3971.64398,0.00347
3970.61373,0.00371
3969.58347,0.00409
3968.55321,0.00431
3967.52295,0.00461
3966.49269,0.00492
3965.46244,0.00485
3964.43218,0.00464
3963.40192,0.00457
3962.37166,0.00443
3961.34140,0.00426
3960.31115,0.00414
3959.28089,0.00407
3958.25063,0.00422
3957.22037,0.00417
3956.19012,0.00380
3955.15986,0.00396
3954.12960,0.00477
3953.09934,0.00526
3952.06908,0.00512
3951.03883,0.00489
3950.00857,0.00485
3948.97831,0.00483
3947.94805,0.00465
3946.91780,0.00452
3945.88754,0.00456
3944.85728,0.00459
3943.82702,0.00465
3942.79676,0.00469
3941.76651,0.00461
3940.73625,0.00437
3939.70599,0.00388
3938.67573,0.00355
3937.64547,0.00363
3936.61522,0.00378
3935.58496,0.00398
3934.55470,0.00397
3933.52444,0.00357
3932.49419,0.00348
3931.46393,0.00408
3930.43367,0.00477
3929.40341,0.00491
3928.37315,0.00433
3927.34290,0.00370
3926.31264,0.00376
3925.28238,0.00433
3924.25212,0.00455
3923.22186,0.00422
3922.19161,0.00404
3921.16135,0.00438
3920.13109,0.00473
3919.10083,0.00444
3918.07058,0.00413
3917.04032,0.00424
3916.01006,0.00433
3914.97980,0.00444
3913.94954,0.00455
3912.91929,0.00442
3911.88903,0.00419
3910.85877,0.00400
3909.82851,0.00382
3908.79825,0.00382
3907.76800,0.00400
3906.73774,0.00411
3905.70748,0.00418
3904.67722,0.00435
3903.64697,0.00467
3902.61671,0.00521
3901.58645,0.00521
3900.55619,0.00469
3899.52593,0.00469
3898.49568,0.00465
3897.46542,0.00405
3896.43516,0.00371
3895.40490,0.00376
3894.37465,0.00377
3893.34439,0.00352
3892.31413,0.00307
3891.28387,0.00284
3890.25361,0.00335
3889.22336,0.00388
3888.19310,0.00381
3887.16284,0.00370
3886.13258,0.00401
3885.10232,0.00462
3884.07207,0.00476
3883.04181,0.00439
3882.01155,0.00444
3880.98129,0.00476
3879.95104,0.00447
3878.92078,0.00412
3877.89052,0.00422
3876.86026,0.00448
3875.83000,0.00479
3874.79975,0.00476
3873.76949,0.00430
3872.73923,0.00411
3871.70897,0.00429
3870.67871,0.00457
3869.64846,0.00461
3868.61820,0.00453
3867.58794,0.00459
3866.55768,0.00447
3865.52743,0.00429
3864.49717,0.00468
3863.46691,0.00504
3862.43665,0.00462
3861.40639,0.00401
3860.37614,0.00370
3859.34588,0.00362
3858.31562,0.00384
3857.28536,0.00405
3856.25510,0.00393
3855.22485,0.00392
3854.19459,0.00442
3853.16433,0.00454
3852.13407,0.00450
3851.10382,0.00513
3850.07356,0.00536
3849.04330,0.00490
3848.01304,0.00463
3846.98278,0.00472
3845.95253,0.00470
3844.92227,0.00445
3843.89201,0.00425
3842.86175,0.00427
3841.83150,0.00438
3840.80124,0.00444
3839.77098,0.00440
3838.74072,0.00463
3837.71046,0.00492
3836.68021,0.00473
3835.64995,0.00461
3834.61969,0.00485
3833.58943,0.00462
3832.55917,0.00381
3831.52892,0.00358
3830.49866,0.00423
3829.46840,0.00472
3828.43814,0.00492
3827.40789,0.00499
3826.37763,0.00490
3825.34737,0.00490
3824.31711,0.00477
3823.28685,0.00425
3822.25660,0.00381
3821.22634,0.00411
3820.19608,0.00480
3819.16582,0.00518
3818.13556,0.00542
3817.10531,0.00538
3816.07505,0.00502
3815.04479,0.00476
3814.01453,0.00444
3812.98428,0.00428
3811.95402,0.00464
3810.92376,0.00510
3809.89350,0.00529
3808.86324,0.00533
3807.83299,0.00537
3806.80273,0.00539
3805.77247,0.00537
3804.74221,0.00534
3803.71195,0.00533
3802.68170,0.00523
3801.65144,0.00485
3800.62118,0.00464
3799.59092,0.00482
3798.56067,0.00492
3797.53041,0.00482
3796.50015,0.00501
3795.46989,0.00538
3794.43963,0.00530
3793.40938,0.00513
3792.37912,0.00523
3791.34886,0.00550
3790.31860,0.00583
3789.28835,0.00587
3788.25809,0.00541
3787.22783,0.00525
3786.19757,0.00554
3785.16731,0.00549
3784.13706,0.00531
3783.10680,0.00545
3782.07654,0.00553
3781.04628,0.00532
3780.01602,0.00514
3778.98577,0.00524
3777.95551,0.00573
3776.92525,0.00603
3775.89499,0.00568
3774.86474,0.00543
3773.83448,0.00566
3772.80422,0.00584
3771.77396,0.00579
3770.74370,0.00536
3769.71345,0.00518
3768.68319,0.00620
3767.65293,0.00693
3766.62267,0.00637
3765.59241,0.00554
3764.56216,0.00550
3763.53190,0.00605
3762.50164,0.00675
3761.47138,0.00733
3760.44113,0.00759
3759.41087,0.00750
3758.38061,0.00705
3757.35035,0.00625
3756.32009,0.00570
3755.28984,0.00581
3754.25958,0.00621
3753.22932,0.00656
3752.19906,0.00662
3751.16880,0.00690
3750.13855,0.00790
3749.10829,0.00861
3748.07803,0.00804
3747.04777,0.00700
3746.01752,0.00641
3744.98726,0.00697
3743.95700,0.00773
3742.92674,0.00743
3741.89648,0.00744
3740.86623,0.00771
3739.83597,0.00763
3738.80571,0.00747
3737.77545,0.00777
3736.74520,0.00826
3735.71494,0.00809
3734.68468,0.00753
3733.65442,0.00740
3732.62416,0.00733
3731.59391,0.00716
3730.56365,0.00731
3729.53339,0.00759
3728.50313,0.00789
3727.47287,0.00803
3726.44262,0.00804
3725.41236,0.00846
3724.38210,0.00898
3723.35184,0.00926
3722.32159,0.00967
3721.29133,0.01000
3720.26107,0.01005
3719.23081,0.01021
3718.20055,0.01057
3717.17030,0.01067
3716.14004,0.01053
3715.10978,0.01068
3714.07952,0.01137
3713.04926,0.01183
3712.01901,0.01118
3710.98875,0.01033
3709.95849,0.01041
3708.92823,0.01101
3707.89798,0.01153
3706.86772,0.01196
3705.83746,0.01235
3704.80720,0.01247
3703.77694,0.01250
3702.74669,0.01273
3701.71643,0.01303
3700.68617,0.01330
3699.65591,0.01354
3698.62565,0.01368
3697.59540,0.01397
3696.56514,0.01435
3695.53488,0.01463
3694.50462,0.01482
3693.47437,0.01529
3692.44411,0.01614
3691.41385,0.01676
3690.38359,0.01680
3689.35333,0.01680
3688.32308,0.01751
3687.29282,0.01893
3686.26256,0.01980
3685.23230,0.01993
3684.20205,0.02002
3683.17179,0.02053
3682.14153,0.02142
3681.11127,0.02248
3680.08101,0.02349
3679.05076,0.02413
3678.02050,0.02455
3676.99024,0.02526
3675.95998,0.02641
3674.92972,0.02732
3673.89947,0.02788
3672.86921,0.02872
3671.83895,0.02933
3670.80869,0.02964
3669.77844,0.03073
3668.74818,0.03227
3667.71792,0.03305
3666.68766,0.03339
3665.65740,0.03401
3664.62715,0.03483
3663.59689,0.03570
3662.56663,0.03682
3661.53637,0.03811
3660.50611,0.03935
3659.47586,0.04027
3658.44560,0.04084
3657.41534,0.04154
3656.38508,0.04249
3655.35483,0.04335
3654.32457,0.04433
3653.29431,0.04573
3652.26405,0.04709
3651.23379,0.04821
3650.20354,0.04926
3649.17328,0.04964
3648.14302,0.04938
3647.11276,0.04980
3646.08250,0.05128
3645.05225,0.05279
3644.02199,0.05396
3642.99173,0.05485
3641.96147,0.05553
3640.93122,0.05658
3639.90096,0.05790
3638.87070,0.05863
3637.84044,0.05909
3636.81018,0.06028
3635.77993,0.06180
3634.74967,0.06294
3633.71941,0.06381
3632.68915,0.06443
3631.65890,0.06509
3630.62864,0.06602
3629.59838,0.06633
3628.56812,0.06632
3627.53786,0.06775
3626.50761,0.06930
3625.47735,0.06987
3624.44709,0.07038
3623.41683,0.07185
3622.38657,0.07332
3621.35632,0.07397
3620.32606,0.07450
3619.29580,0.07497
3618.26554,0.07513
3617.23529,0.07579
3616.20503,0.07688
3615.17477,0.07776
3614.14451,0.07841
3613.11425,0.07901
3612.08400,0.07977
3611.05374,0.08107
3610.02348,0.08266
3608.99322,0.08394
3607.96296,0.08479
3606.93271,0.08584
3605.90245,0.08684
3604.87219,0.08729
3603.84193,0.08759
3602.81168,0.08808
3601.78142,0.08872
3600.75116,0.08970
3599.72090,0.09095
3598.69064,0.09173
3597.66039,0.09217
3596.63013,0.09303
3595.59987,0.09454
3594.56961,0.09599
3593.53936,0.09663
3592.50910,0.09719
3591.47884,0.09823
3590.44858,0.09942
3589.41832,0.10042
3588.38807,0.10102
3587.35781,0.10149
3586.32755,0.10260
3585.29729,0.10422
3584.26703,0.10542
3583.23678,0.10604
3582.20652,0.10664
3581.17626,0.10772
3580.14600,0.10887
3579.11575,0.10936
3578.08549,0.10982
3577.05523,0.11111
3576.02497,0.11291
3574.99471,0.11386
3573.96446,0.11383
3572.93420,0.11459
3571.90394,0.11635
3570.87368,0.11783
3569.84342,0.11887
3568.81317,0.11959
3567.78291,0.11966
3566.75265,0.12030
3565.72239,0.12181
3564.69214,0.12284
3563.66188,0.12376
3562.63162,0.12511
3561.60136,0.12665
3560.57110,0.12802
3559.54085,0.12881
3558.51059,0.12918
3557.48033,0.12990
3556.45007,0.13129
3555.41981,0.13276
3554.38956,0.13374
3553.35930,0.13447
3552.32904,0.13534
3551.29878,0.13625
3550.26853,0.13718
3549.23827,0.13838
3548.20801,0.13955
3547.17775,0.14055
3546.14749,0.14175
3545.11724,0.14283
3544.08698,0.14378
3543.05672,0.14513
3542.02646,0.14663
3540.99621,0.14785
3539.96595,0.14883
3538.93569,0.14984
3537.90543,0.15098
3536.87517,0.15221
3535.84492,0.15331
3534.81466,0.15418
3533.78440,0.15503
3532.75414,0.15636
3531.72388,0.15808
3530.69363,0.15924
3529.66337,0.15977
3528.63311,0.16048
3527.60285,0.16166
3526.57260,0.16292
3525.54234,0.16395
3524.51208,0.16489
3523.48182,0.16597
3522.45156,0.16705
3521.42131,0.16832
3520.39105,0.16988
3519.36079,0.17128
3518.33053,0.17236
3517.30027,0.17345
3516.27002,0.17499
3515.23976,0.17658
3514.20950,0.17765
3513.17924,0.17864
3512.14899,0.17994
3511.11873,0.18104
3510.08847,0.18169
3509.05821,0.18265
3508.02795,0.18392
3506.99770,0.18511
3505.96744,0.18639
3504.93718,0.18767
3503.90692,0.18882
3502.87666,0.18982
3501.84641,0.19097
3500.81615,0.19239
3499.78589,0.19335
3498.75563,0.19388
3497.72538,0.19497
3496.69512,0.19664
3495.66486,0.19841
3494.63460,0.20010
3493.60434,0.20123
3492.57409,0.20206
3491.54383,0.20350
3490.51357,0.20500
3489.48331,0.20611
3488.45306,0.20755
3487.42280,0.20902
3486.39254,0.20979
3485.36228,0.21027
3484.33202,0.21139
3483.30177,0.21343
3482.27151,0.21513
3481.24125,0.21528
3480.21099,0.21519
3479.18073,0.21652
3478.15048,0.21853
3477.12022,0.22014
3476.08996,0.22146
3475.05970,0.22276
3474.02945,0.22418
3472.99919,0.22580
3471.96893,0.22743
3470.93867,0.22848
3469.90841,0.22891
3468.87816,0.22957
3467.84790,0.23091
3466.81764,0.23276
3465.78738,0.23451
3464.75712,0.23581
3463.72687,0.23692
3462.69661,0.23828
3461.66635,0.23985
3460.63609,0.24102
3459.60584,0.24227
3458.57558,0.24374
3457.54532,0.24467
3456.51506,0.24572
3455.48480,0.24727
3454.45455,0.24891
3453.42429,0.25053
3452.39403,0.25180
3451.36377,0.25290
3450.33351,0.25417
3449.30326,0.25527
3448.27300,0.25627
3447.24274,0.25795
3446.21248,0.26026
3445.18223,0.26193
3444.15197,0.26253
3443.12171,0.26289
3442.09145,0.26383
3441.06119,0.26496
3440.03094,0.26563
3439.00068,0.26638
3437.97042,0.26781
3436.94016,0.26968
3435.90991,0.27110
3434.87965,0.27195
3433.84939,0.27288
3432.81913,0.27405
3431.78887,0.27537
3430.75862,0.27681
3429.72836,0.27843
3428.69810,0.28045
3427.66784,0.28241
3426.63758,0.28360
3425.60733,0.28455
3424.57707,0.28614
3423.54681,0.28787
3422.51655,0.28911
3421.48630,0.28999
3420.45604,0.29102
3419.42578,0.29236
3418.39552,0.29345
3417.36526,0.29398
3416.33501,0.29444
3415.30475,0.29569
3414.27449,0.29745
3413.24423,0.29858
3412.21397,0.29933
3411.18372,0.30066
3410.15346,0.30240
3409.12320,0.30346
3408.09294,0.30404
3407.06269,0.30505
3406.03243,0.30640
3405.00217,0.30813
3403.97191,0.30969
3402.94165,0.31023
3401.91140,0.31050
3400.88114,0.31128
3399.85088,0.31256
3398.82062,0.31381
3397.79036,0.31482
3396.76011,0.31580
3395.72985,0.31643
3394.69959,0.31702
3393.66933,0.31774
3392.63908,0.31824
3391.60882,0.31914
3390.57856,0.32090
3389.54830,0.32270
3388.51804,0.32387
3387.48779,0.32449
3386.45753,0.32497
3385.42727,0.32567
3384.39701,0.32632
3383.36676,0.32698
3382.33650,0.32798
3381.30624,0.32876
3380.27598,0.32907
3379.24572,0.32958
3378.21547,0.33057
3377.18521,0.33155
3376.15495,0.33226
3375.12469,0.33286
3374.09443,0.33331
3373.06418,0.33366
3372.03392,0.33406
3371.00366,0.33442
3369.97340,0.33513
3368.94315,0.33592
3367.91289,0.33591
3366.88263,0.33552
3365.85237,0.33609
3364.82211,0.33726
3363.79186,0.33786
3362.76160,0.33857
3361.73134,0.33986
3360.70108,0.34068
3359.67082,0.34102
3358.64057,0.34143
3357.61031,0.34167
3356.58005,0.34132
3355.54979,0.34087
3354.51954,0.34173
3353.48928,0.34348
3352.45902,0.34415
3351.42876,0.34344
3350.39850,0.34295
3349.36825,0.34360
3348.33799,0.34438
3347.30773,0.34476
3346.27747,0.34502
3345.24721,0.34498
3344.21696,0.34486
3343.18670,0.34500
3342.15644,0.34518
3341.12618,0.34544
3340.09593,0.34570
3339.06567,0.34604
3338.03541,0.34646
3337.00515,0.34637
3335.97489,0.34617
3334.94464,0.34648
3333.91438,0.34652
3332.88412,0.34599
3331.85386,0.34572
3330.82361,0.34609
3329.79335,0.34708
3328.76309,0.34805
3327.73283,0.34801
3326.70257,0.34753
3325.67232,0.34768
3324.64206,0.34812
3323.61180,0.34806
3322.58154,0.34764
3321.55128,0.34748
3320.52103,0.34768
3319.49077,0.34759
3318.46051,0.34719
3317.43025,0.34703
3316.40000,0.34741
3315.36974,0.34837
3314.33948,0.34906
3313.30922,0.34901
3312.27896,0.34869
3311.24871,0.34851
3310.21845,0.34834
3309.18819,0.34810
3308.15793,0.34793
3307.12767,0.34778
3306.09742,0.34788
3305.06716,0.34848
3304.03690,0.34909
3303.00664,0.34913
3301.97639,0.34862
3300.94613,0.34791
3299.91587,0.34769
3298.88561,0.34813
3297.85535,0.34833
3296.82510,0.34827
3295.79484,0.34843
3294.76458,0.34875
3293.73432,0.34921
3292.70406,0.34949
3291.67381,0.34933
3290.64355,0.34884
3289.61329,0.34852
3288.58303,0.34862
3287.55278,0.34911
3286.52252,0.34975
3285.49226,0.34950
3284.46200,0.34883
3283.43174,0.34898
3282.40149,0.34930
3281.37123,0.34927
3280.34097,0.34923
3279.31071,0.34902
3278.28046,0.34898
3277.25020,0.34951
3276.21994,0.34965
3275.18968,0.34918
3274.15942,0.34915
3273.12917,0.34944
3272.09891,0.34925
3271.06865,0.34878
3270.03839,0.34880
3269.00813,0.34939
3267.97788,0.34995
3266.94762,0.35011
3265.91736,0.35001
3264.88710,0.35030
3263.85685,0.35076
3262.82659,0.35044
3261.79633,0.34998
3260.76607,0.35016
3259.73581,0.35021
3258.70556,0.34972
3257.67530,0.34913
3256.64504,0.34883
3255.61478,0.34899
3254.58452,0.34918
3253.55427,0.34883
3252.52401,0.34823
3251.49375,0.34833
3250.46349,0.34899
3249.43324,0.34923
3248.40298,0.34900
3247.37272,0.34866
3246.34246,0.34810
3245.31220,0.34728
3244.28195,0.34670
3243.25169,0.34653
3242.22143,0.34674
3241.19117,0.34708
3240.16092,0.34712
3239.13066,0.34681
3238.10040,0.34630
3237.07014,0.34587
3236.03988,0.34531
3235.00963,0.34429
3233.97937,0.34323
3232.94911,0.34275
3231.91885,0.34284
3230.88859,0.34298
3229.85834,0.34271
3228.82808,0.34248
3227.79782,0.34268
3226.76756,0.34247
3225.73731,0.34169
3224.70705,0.34104
3223.67679,0.34044
3222.64653,0.33936
3221.61627,0.33823
3220.58602,0.33736
3219.55576,0.33655
3218.52550,0.33628
3217.49524,0.33622
3216.46498,0.33574
3215.43473,0.33503
3214.40447,0.33382
3213.37421,0.33213
3212.34395,0.33079
3211.31370,0.33015
3210.28344,0.32982
3209.25318,0.32939
3208.22292,0.32831
3207.19266,0.32672
3206.16241,0.32574
3205.13215,0.32550
3204.10189,0.32517
3203.07163,0.32452
3202.04137,0.32369
3201.01112,0.32278
3199.98086,0.32196
3198.95060,0.32088
3197.92034,0.31923
3196.89009,0.31766
3195.85983,0.31695
3194.82957,0.31637
3193.79931,0.31498
3192.76905,0.31334
3191.73880,0.31218
3190.70854,0.31111
3189.67828,0.30953
3188.64802,0.30804
3187.61777,0.30719
3186.58751,0.30649
3185.55725,0.30563
3184.52699,0.30453
3183.49673,0.30268
3182.46648,0.30027
3181.43622,0.29851
3180.40596,0.29768
3179.37570,0.29712
3178.34544,0.29613
3177.31519,0.29458
3176.28493,0.29312
3175.25467,0.29214
3174.22441,0.29134
3173.19416,0.29002
3172.16390,0.28834
3171.13364,0.28669
3170.10338,0.28487
3169.07312,0.28294
3168.04287,0.28100
3167.01261,0.27928
3165.98235,0.27788
3164.95209,0.27650
3163.92183,0.27487
3162.89158,0.27325
3161.86132,0.27237
3160.83106,0.27153
3159.80080,0.26993
3158.77055,0.26841
3157.74029,0.26697
3156.71003,0.26508
3155.67977,0.26336
3154.64951,0.26172
3153.61926,0.25944
3152.58900,0.25734
3151.55874,0.25646
3150.52848,0.25599
3149.49822,0.25497
3148.46797,0.25362
3147.43771,0.25189
3146.40745,0.25004
3145.37719,0.24875
3144.34694,0.24770
3143.31668,0.24662
3142.28642,0.24530
3141.25616,0.24317
3140.22590,0.24067
3139.19565,0.23876
3138.16539,0.23756
3137.13513,0.23648
3136.10487,0.23493
3135.07462,0.23288
3134.04436,0.23088
3133.01410,0.22950
3131.98384,0.22872
3130.95358,0.22777
3129.92333,0.22596
3128.89307,0.22387
3127.86281,0.22226
3126.83255,0.22088
3125.80229,0.21949
3124.77204,0.21808
3123.74178,0.21675
3122.71152,0.21557
3121.68126,0.21404
3120.65101,0.21212
3119.62075,0.21031
3118.59049,0.20889
3117.56023,0.20780
3116.52997,0.20638
3115.49972,0.20457
3114.46946,0.20296
3113.43920,0.20146
3112.40894,0.19967
3111.37868,0.19768
3110.34843,0.19600
3109.31817,0.19479
3108.28791,0.19348
3107.25765,0.19222
3106.22740,0.19155
3105.19714,0.19074
3104.16688,0.18937
3103.13662,0.18807
3102.10636,0.18682
3101.07611,0.18515
3100.04585,0.18327
3099.01559,0.18194
3097.98533,0.18104
3096.95507,0.17997
3095.92482,0.17861
3094.89456,0.17707
3093.86430,0.17558
3092.83404,0.17413
3091.80379,0.17271
3090.77353,0.17158
3089.74327,0.17064
3088.71301,0.16950
3087.68275,0.16813
3086.65250,0.16679
3085.62224,0.16578
3084.59198,0.16469
3083.56172,0.16312
3082.53147,0.16183
3081.50121,0.16112
3080.47095,0.16004
3079.44069,0.15854
3078.41043,0.15728
3077.38018,0.15598
3076.34992,0.15446
3075.31966,0.15312
3074.28940,0.15191
3073.25914,0.15080
3072.22889,0.14972
3071.19863,0.14850
3070.16837,0.14748
3069.13811,0.14685
3068.10786,0.14589
3067.07760,0.14409
3066.04734,0.14217
3065.01708,0.14110
3063.98682,0.14045
3062.95657,0.13922
3061.92631,0.13789
3060.89605,0.13732
3059.86579,0.13718
3058.83553,0.13655
3057.80528,0.13542
3056.77502,0.13441
3055.74476,0.13347
3054.71450,0.13216
3053.68425,0.13073
3052.65399,0.12979
3051.62373,0.12928
3050.59347,0.12862
3049.56321,0.12758
3048.53296,0.12616
3047.50270,0.12460
3046.47244,0.12352
3045.44218,0.12306
3044.41192,0.12251
3043.38167,0.12134
3042.35141,0.12007
3041.32115,0.11925
3040.29089,0.11869
3039.26064,0.11801
3038.23038,0.11703
3037.20012,0.11580
3036.16986,0.11462
3035.13960,0.11382
3034.10935,0.11325
3033.07909,0.11269
3032.04883,0.11197
3031.01857,0.11108
3029.98832,0.11024
3028.95806,0.10936
3027.92780,0.10836
3026.89754,0.10735
3025.86728,0.10629
3024.83703,0.10551
3023.80677,0.10499
3022.77651,0.10404
3021.74625,0.10287
3020.71599,0.10195
3019.68574,0.10117
3018.65548,0.10034
3017.62522,0.09955
3016.59496,0.09883
3015.56471,0.09782
3014.53445,0.09659
3013.50419,0.09569
3012.47393,0.09518
3011.44367,0.09470
3010.41342,0.09414
3009.38316,0.09374
3008.35290,0.09337
3007.32264,0.09280
3006.29238,0.09180
3005.26213,0.09049
3004.23187,0.08955
3003.20161,0.08885
3002.17135,0.08807
3001.14110,0.08758
3000.11084,0.08728
2999.08058,0.08662
2998.05032,0.08568
2997.02006,0.08490
2995.98981,0.08423
2994.95955,0.08355
2993.92929,0.08287
2992.89903,0.08223
2991.86877,0.08169
2990.83852,0.08086
2989.80826,0.07993
2988.77800,0.07954
2987.74774,0.07931
2986.71749,0.07875
2985.68723,0.07832
2984.65697,0.07804
2983.62671,0.07746
2982.59645,0.07674
2981.56620,0.07596
2980.53594,0.07515
2979.50568,0.07466
2978.47542,0.07452
2977.44517,0.07424
2976.41491,0.07367
2975.38465,0.07308
2974.35439,0.07238
2973.32413,0.07150
2972.29388,0.07084
2971.26362,0.07061
2970.23336,0.07044
2969.20310,0.07005
2968.17284,0.06944
2967.14259,0.06876
2966.11233,0.06794
2965.08207,0.06723
2964.05181,0.06677
2963.02156,0.06640
2961.99130,0.06623
2960.96104,0.06589
2959.93078,0.06515
2958.90052,0.06430
2957.87027,0.06360
2956.84001,0.06311
2955.80975,0.06267
2954.77949,0.06211
2953.74923,0.06146
2952.71898,0.06078
2951.68872,0.06018
2950.65846,0.05982
2949.62820,0.05965
2948.59795,0.05954
2947.56769,0.05936
2946.53743,0.05878
2945.50717,0.05780
2944.47691,0.05696
2943.44666,0.05653
2942.41640,0.05623
2941.38614,0.05569
2940.35588,0.05501
2939.32562,0.05458
2938.29537,0.05429
2937.26511,0.05368
2936.23485,0.05297
2935.20459,0.05272
2934.17434,0.05272
2933.14408,0.05239
2932.11382,0.05159
2931.08356,0.05082
2930.05330,0.05037
2929.02305,0.05027
2927.99279,0.05047
2926.96253,0.05045
2925.93227,0.05010
2924.90202,0.04964
2923.87176,0.04916
2922.84150,0.04881
2921.81124,0.04817
2920.78098,0.04736
2919.75073,0.04691
2918.72047,0.04655
2917.69021,0.04625
2916.65995,0.04613
2915.62969,0.04592
2914.59944,0.04556
2913.56918,0.04500
2912.53892,0.04444
2911.50866,0.04413
2910.47841,0.04397
2909.44815,0.04387
2908.41789,0.04365
2907.38763,0.04309
2906.35737,0.04250
2905.32712,0.04223
2904.29686,0.04190
2903.26660,0.04156
2902.23634,0.04143
2901.20608,0.04123
2900.17583,0.04101
2899.14557,0.04084
2898.11531,0.04057
2897.08505,0.04034
2896.05480,0.04009
2895.02454,0.03963
2893.99428,0.03917
2892.96402,0.03888
2891.93376,0.03871
2890.90351,0.03850
2889.87325,0.03805
2888.84299,0.03746
2887.81273,0.03702
2886.78247,0.03688
2885.75222,0.03679
2884.72196,0.03654
2883.69170,0.03634
2882.66144,0.03620
2881.63119,0.03604
2880.60093,0.03578
2879.57067,0.03533
2878.54041,0.03483
2877.51015,0.03441
2876.47990,0.03414
2875.44964,0.03395
2874.41938,0.03360
2873.38912,0.03339
2872.35887,0.03352
2871.32861,0.03353
2870.29835,0.03298
2869.26809,0.03225
2868.23783,0.03201
2867.20758,0.03207
2866.17732,0.03179
2865.14706,0.03139
2864.11680,0.03116
2863.08654,0.03091
2862.05629,0.03075
2861.02603,0.03069
2859.99577,0.03058
2858.96551,0.03066
2857.93526,0.03084
2856.90500,0.03065
2855.87474,0.03016
2854.84448,0.02973
2853.81422,0.02958
2852.78397,0.02944
2851.75371,0.02894
2850.72345,0.02851
2849.69319,0.02828
2848.66293,0.02776
2847.63268,0.02737
2846.60242,0.02758
2845.57216,0.02777
2844.54190,0.02757
2843.51165,0.02723
2842.48139,0.02691
2841.45113,0.02672
2840.42087,0.02663
2839.39061,0.02646
2838.36036,0.02636
2837.33010,0.02644
2836.29984,0.02637
2835.26958,0.02596
2834.23933,0.02550
2833.20907,0.02526
2832.17881,0.02521
2831.14855,0.02509
2830.11829,0.02479
2829.08804,0.02467
2828.05778,0.02474
2827.02752,0.02462
2825.99726,0.02442
2824.96700,0.02432
2823.93675,0.02424
2822.90649,0.02399
2821.87623,0.02351
2820.84597,0.02329
2819.81572,0.02341
2818.78546,0.02331
2817.75520,0.02300
2816.72494,0.02273
2815.69468,0.02256
2814.66443,0.02247
2813.63417,0.02241
2812.60391,0.02253
2811.57365,0.02266
2810.54339,0.02248
2809.51314,0.02217
2808.48288,0.02191
2807.45262,0.02163
2806.42236,0.02140
2805.39211,0.02132
2804.36185,0.02122
2803.33159,0.02093
2802.30133,0.02075
2801.27107,0.02073
2800.24082,0.02058
2799.21056,0.02025
2798.18030,0.01989
2797.15004,0.01972
2796.11978,0.01971
2795.08953,0.01955
2794.05927,0.01945
2793.02901,0.01962
2791.99875,0.01993
2790.96850,0.02018
2789.93824,0.02006
2788.90798,0.01969
2787.87772,0.01940
2786.84746,0.01908
2785.81721,0.01872
2784.78695,0.01861
2783.75669,0.01883
2782.72643,0.01907
2781.69618,0.01914
2780.66592,0.01890
2779.63566,0.01835
2778.60540,0.01800
2777.57514,0.01803
2776.54489,0.01805
2775.51463,0.01789
2774.48437,0.01780
2773.45411,0.01798
2772.42385,0.01795
2771.39360,0.01747
2770.36334,0.01713
2769.33308,0.01709
2768.30282,0.01703
2767.27257,0.01700
2766.24231,0.01693
2765.21205,0.01658
2764.18179,0.01615
2763.15153,0.01607
2762.12128,0.01632
2761.09102,0.01636
2760.06076,0.01606
2759.03050,0.01589
2758.00024,0.01604
2756.96999,0.01607
2755.93973,0.01565
2754.90947,0.01529
2753.87921,0.01543
2752.84896,0.01568
2751.81870,0.01573
2750.78844,0.01558
2749.75818,0.01532
2748.72792,0.01521
2747.69767,0.01534
2746.66741,0.01537
2745.63715,0.01511
2744.60689,0.01488
2743.57663,0.01493
2742.54638,0.01491
2741.51612,0.01462
2740.48586,0.01451
2739.45560,0.01471
2738.42535,0.01487
2737.39509,0.01494
2736.36483,0.01503
2735.33457,0.01497
2734.30431,0.01471
2733.27406,0.01436
2732.24380,0.01416
2731.21354,0.01414
2730.18328,0.01409
2729.15303,0.01390
2728.12277,0.01372
2727.09251,0.01367
2726.06225,0.01369
2725.03199,0.01378
2724.00174,0.01392
2722.97148,0.01390
2721.94122,0.01365
2720.91096,0.01342
2719.88070,0.01329
2718.85045,0.01318
2717.82019,0.01312
2716.78993,0.01301
2715.75967,0.01301
2714.72942,0.01320
2713.69916,0.01323
2712.66890,0.01308
2711.63864,0.01309
2710.60838,0.01323
2709.57813,0.01329
2708.54787,0.01322
2707.51761,0.01301
2706.48735,0.01262
2705.45709,0.01245
2704.42684,0.01255
2703.39658,0.01246
2702.36632,0.01222
2701.33606,0.01221
2700.30581,0.01226
2699.27555,0.01224
2698.24529,0.01213
2697.21503,0.01197
2696.18477,0.01204
2695.15452,0.01221
2694.12426,0.01225
2693.09400,0.01231
2692.06374,0.01234
2691.03348,0.01231
2690.00323,0.01216
2688.97297,0.01186
2687.94271,0.01165
2686.91245,0.01167
2685.88220,0.01170
2684.85194,0.01165
2683.82168,0.01158
2682.79142,0.01158
2681.76116,0.01165
2680.73091,0.01165
2679.70065,0.01158
2678.67039,0.01151
2677.64013,0.01140
2676.60988,0.01133
2675.57962,0.01137
2674.54936,0.01127
2673.51910,0.01108
2672.48884,0.01114
2671.45859,0.01126
2670.42833,0.01116
2669.39807,0.01114
2668.36781,0.01133
2667.33755,0.01152
2666.30730,0.01166
2665.27704,0.01165
2664.24678,0.01137
2663.21652,0.01110
2662.18627,0.01098
2661.15601,0.01103
2660.12575,0.01119
2659.09549,0.01129
2658.06523,0.01129
2657.03498,0.01121
2656.00472,0.01106
2654.97446,0.01091
2653.94420,0.01060
2652.91394,0.01023
2651.88369,0.01018
2650.85343,0.01039
2649.82317,0.01047
2648.79291,0.01024
2647.76266,0.00997
2646.73240,0.00999
2645.70214,0.01031
2644.67188,0.01046
2643.64162,0.01034
2642.61137,0.01031
2641.58111,0.01034
2640.55085,0.01045
2639.52059,0.01058
2638.49033,0.01055
2637.46008,0.01048
2636.42982,0.01037
2635.39956,0.01016
2634.36930,0.01003
2633.33905,0.00999
2632.30879,0.01006
2631.27853,0.01020
2630.24827,0.01033
2629.21801,0.01016
2628.18776,0.00980
2627.15750,0.00968
2626.12724,0.00950
2625.09698,0.00944
2624.06673,0.00977
2623.03647,0.00996
2622.00621,0.00994
2620.97595,0.00992
2619.94569,0.00989
2618.91544,0.00993
2617.88518,0.00974
2616.85492,0.00939
2615.82466,0.00935
2614.79440,0.00944
2613.76415,0.00944
2612.73389,0.00938
2611.70363,0.00944
2610.67337,0.00962
2609.64312,0.00965
2608.61286,0.00947
2607.58260,0.00945
2606.55234,0.00960
2605.52208,0.00944
2604.49183,0.00903
2603.46157,0.00891
2602.43131,0.00918
2601.40105,0.00952
2600.37079,0.00963
2599.34054,0.00951
2598.31028,0.00926
2597.28002,0.00911
2596.24976,0.00918
2595.21951,0.00936
2594.18925,0.00957
2593.15899,0.00946
2592.12873,0.00927
2591.09847,0.00954
2590.06822,0.00986
2589.03796,0.00980
2588.00770,0.00955
2586.97744,0.00939
2585.94718,0.00943
2584.91693,0.00958
2583.88667,0.00940
2582.85641,0.00894
2581.82615,0.00891
2580.79590,0.00923
2579.76564,0.00924
2578.73538,0.00893
2577.70512,0.00859
2576.67486,0.00843
2575.64461,0.00843
2574.61435,0.00834
2573.58409,0.00826
2572.55383,0.00811
2571.52358,0.00792
2570.49332,0.00830
2569.46306,0.00877
2568.43280,0.00883
2567.40254,0.00911
2566.37229,0.00917
2565.34203,0.00854
2564.31177,0.00809
2563.28151,0.00833
2562.25125,0.00887
2561.22100,0.00912
2560.19074,0.00914
2559.16048,0.00924
2558.13022,0.00940
2557.09997,0.00940
2556.06971,0.00903
2555.03945,0.00852
2554.00919,0.00841
2552.97893,0.00884
2551.94868,0.00914
2550.91842,0.00906
2549.88816,0.00906
2548.85790,0.00939
2547.82764,0.00989
2546.79739,0.01023
2545.76713,0.01023
2544.73687,0.00994
2543.70661,0.00941
2542.67636,0.00912
2541.64610,0.00967
2540.61584,0.01041
2539.58558,0.01042
2538.55532,0.01003
2537.52507,0.00974
2536.49481,0.00974
2535.46455,0.00998
2534.43429,0.00982
2533.40403,0.00940
2532.37378,0.00915
2531.34352,0.00892
2530.31326,0.00900
2529.28300,0.00918
2528.25275,0.00900
2527.22249,0.00930
2526.19223,0.01016
2525.16197,0.01050
2524.13171,0.01009
2523.10146,0.00939
2522.07120,0.00916
2521.04094,0.00940
2520.01068,0.00937
2518.98043,0.00916
2517.95017,0.00914
2516.91991,0.00920
2515.88965,0.00906
2514.85939,0.00874
2513.82914,0.00852
2512.79888,0.00853
2511.76862,0.00896
2510.73836,0.00972
2509.70810,0.00999
2508.67785,0.00965
2507.64759,0.00965
2506.61733,0.01014
2505.58707,0.01053
2504.55682,0.01026
2503.52656,0.00955
2502.49630,0.00931
2501.46604,0.00950
2500.43578,0.00920
2499.40553,0.00851
2498.37527,0.00846
2497.34501,0.00925
2496.31475,0.00974
2495.28449,0.00950
2494.25424,0.00939
2493.22398,0.00958
2492.19372,0.00945
2491.16346,0.00915
2490.13321,0.00948
2489.10295,0.01011
2488.07269,0.01018
2487.04243,0.00989
2486.01217,0.00965
2484.98192,0.00947
2483.95166,0.00958
2482.92140,0.00975
2481.89114,0.00978
2480.86088,0.01017
2479.83063,0.01057
2478.80037,0.01032
2477.77011,0.01000
2476.73985,0.01013
2475.70960,0.01047
2474.67934,0.01069
2473.64908,0.01084
2472.61882,0.01085
2471.58856,0.01054
2470.55831,0.01029
2469.52805,0.01034
2468.49779,0.01046
2467.46753,0.01067
2466.43728,0.01098
2465.40702,0.01118
2464.37676,0.01100
2463.34650,0.01071
2462.31624,0.01056
2461.28599,0.01053
2460.25573,0.01060
2459.22547,0.01050
2458.19521,0.01069
2457.16495,0.01153
2456.13470,0.01195
2455.10444,0.01179
2454.07418,0.01160
2453.04392,0.01104
2452.01367,0.01036
2450.98341,0.01015
2449.95315,0.01034
2448.92289,0.01070
2447.89263,0.01072
2446.86238,0.01058
2445.83212,0.01067
2444.80186,0.01075
2443.77160,0.01069
2442.74134,0.01063
2441.71109,0.01065
2440.68083,0.01075
2439.65057,0.01061
2438.62031,0.01034
2437.59006,0.01055
2436.55980,0.01102
2435.52954,0.01110
2434.49928,0.01093
2433.46902,0.01100
2432.43877,0.01132
2431.40851,0.01159
2430.37825,0.01162
2429.34799,0.01152
2428.31774,0.01163
2427.28748,0.01182
2426.25722,0.01180
2425.22696,0.01171
2424.19670,0.01172
2423.16645,0.01170
2422.13619,0.01157
2421.10593,0.01140
2420.07567,0.01129
2419.04541,0.01140
2418.01516,0.01180
2416.98490,0.01195
2415.95464,0.01170
2414.92438,0.01162
2413.89413,0.01164
2412.86387,0.01168
2411.83361,0.01188
2410.80335,0.01199
2409.77309,0.01181
2408.74284,0.01172
2407.71258,0.01211
2406.68232,0.01264
2405.65206,0.01252
2404.62180,0.01208
2403.59155,0.01215
2402.56129,0.01226
2401.53103,0.01206
2400.50077,0.01220
2399.47052,0.01275
2398.44026,0.01295
2397.41000,0.01295
2396.37974,0.01313
2395.34948,0.01327
2394.31923,0.01316
2393.28897,0.01290
2392.25871,0.01274
2391.22845,0.01268
2390.19819,0.01267
2389.16794,0.01282
2388.13768,0.01312
2387.10742,0.01334
2386.07716,0.01309
2385.04691,0.01252
2384.01665,0.01248
2382.98639,0.01305
2381.95613,0.01330
2380.92587,0.01310
2379.89562,0.01309
2378.86536,0.01341
2377.83510,0.01383
2376.80484,0.01408
2375.77459,0.01400
2374.74433,0.01419
2373.71407,0.01481
2372.68381,0.01531
2371.65355,0.01579
2370.62330,0.01643
2369.59304,0.01663
2368.56278,0.01577
2367.53252,0.01418
2366.50226,0.01317
2365.47201,0.01326
2364.44175,0.01381
2363.41149,0.01464
2362.38123,0.01569
2361.35098,0.01625
2360.32072,0.01614
2359.29046,0.01610
2358.26020,0.01613
2357.22994,0.01572
2356.19969,0.01548
2355.16943,0.01542
2354.13917,0.01528
2353.10891,0.01564
2352.07865,0.01601
2351.04840,0.01593
2350.01814,0.01608
2348.98788,0.01645
2347.95762,0.01654
2346.92737,0.01620
2345.89711,0.01599
2344.86685,0.01655
2343.83659,0.01690
2342.80633,0.01646
2341.77608,0.01619
2340.74582,0.01664
2339.71556,0.01689
2338.68530,0.01642
2337.65504,0.01592
2336.62479,0.01582
2335.59453,0.01605
2334.56427,0.01622
2333.53401,0.01607
2332.50376,0.01610
2331.47350,0.01655
2330.44324,0.01678
2329.41298,0.01659
2328.38272,0.01613
2327.35247,0.01543
2326.32221,0.01504
2325.29195,0.01552
2324.26169,0.01648
2323.23144,0.01693
2322.20118,0.01691
2321.17092,0.01692
2320.14066,0.01668
2319.11040,0.01627
2318.08015,0.01632
2317.04989,0.01659
2316.01963,0.01660
2314.98937,0.01647
2313.95911,0.01641
2312.92886,0.01659
2311.89860,0.01704
2310.86834,0.01729
2309.83808,0.01721
2308.80783,0.01733
2307.77757,0.01775
2306.74731,0.01787
2305.71705,0.01777
2304.68679,0.01802
2303.65654,0.01804
2302.62628,0.01716
2301.59602,0.01623
2300.56576,0.01604
2299.53550,0.01630
2298.50525,0.01681
2297.47499,0.01716
2296.44473,0.01693
2295.41447,0.01674
2294.38422,0.01706
2293.35396,0.01755
2292.32370,0.01811
2291.29344,0.01848
2290.26318,0.01868
2289.23293,0.01881
2288.20267,0.01851
2287.17241,0.01825
2286.14215,0.01816
2285.11189,0.01772
2284.08164,0.01720
2283.05138,0.01724
2282.02112,0.01745
2280.99086,0.01708
2279.96061,0.01658
2278.93035,0.01678
2277.90009,0.01757
2276.86983,0.01819
2275.83957,0.01859
2274.80932,0.01899
2273.77906,0.01910
2272.74880,0.01874
2271.71854,0.01847
2270.68829,0.01877
2269.65803,0.01916
2268.62777,0.01946
2267.59751,0.01963
2266.56725,0.01934
2265.53700,0.01860
2264.50674,0.01804
2263.47648,0.01816
2262.44622,0.01871
2261.41596,0.01929
2260.38571,0.01968
2259.35545,0.02018
2258.32519,0.02050
2257.29493,0.01987
2256.26468,0.01917
2255.23442,0.01929
2254.20416,0.01946
2253.17390,0.01949
2252.14364,0.01928
2251.11339,0.01823
2250.08313,0.01778
2249.05287,0.01880
2248.02261,0.01952
2246.99235,0.01921
2245.96210,0.01888
2244.93184,0.01907
2243.90158,0.01972
2242.87132,0.02015
2241.84107,0.02029
2240.81081,0.02070
2239.78055,0.02125
2238.75029,0.02121
2237.72003,0.02075
2236.68978,0.02021
2235.65952,0.01941
2234.62926,0.01942
2233.59900,0.02000
2232.56874,0.01980
2231.53849,0.01999
2230.50823,0.02108
2229.47797,0.02151
2228.44771,0.02096
2227.41746,0.02025
2226.38720,0.01944
2225.35694,0.01889
2224.32668,0.01984
2223.29642,0.02186
2222.26617,0.02293
2221.23591,0.02258
2220.20565,0.02182
2219.17539,0.02080
2218.14514,0.01976
2217.11488,0.01982
2216.08462,0.02049
2215.05436,0.02134
2214.02410,0.02283
2212.99385,0.02354
2211.96359,0.02256
2210.93333,0.02094
2209.90307,0.01988
2208.87281,0.02043
2207.84256,0.02096
2206.81230,0.01954
2205.78204,0.01894
2204.75178,0.02045
2203.72153,0.02057
2202.69127,0.01965
2201.66101,0.02095
2200.63075,0.02255
2199.60049,0.02205
2198.57024,0.02087
2197.53998,0.02040
2196.50972,0.02087
2195.47946,0.02123
2194.44920,0.02143
2193.41895,0.02242
2192.38869,0.02342
2191.35843,0.02375
2190.32817,0.02348
2189.29792,0.02277
2188.26766,0.02244
2187.23740,0.02241
2186.20714,0.02243
2185.17688,0.02303
2184.14663,0.02300
2183.11637,0.02184
2182.08611,0.02210
2181.05585,0.02379
2180.02559,0.02438
2178.99534,0.02426
2177.96508,0.02377
2176.93482,0.02239
2175.90456,0.02172
2174.87431,0.02211
2173.84405,0.02262
2172.81379,0.02346
2171.78353,0.02402
2170.75327,0.02352
2169.72302,0.02290
2168.69276,0.02331
2167.66250,0.02483
2166.63224,0.02557
2165.60199,0.02472
2164.57173,0.02398
2163.54147,0.02296
2162.51121,0.02118
2161.48095,0.02009
2160.45070,0.02086
2159.42044,0.02305
2158.39018,0.02394
2157.35992,0.02291
2156.32966,0.02274
2155.29941,0.02414
2154.26915,0.02511
2153.23889,0.02469
2152.20863,0.02359
2151.17838,0.02356
2150.14812,0.02496
2149.11786,0.02561
2148.08760,0.02552
2147.05734,0.02561
2146.02709,0.02473
2144.99683,0.02365
2143.96657,0.02379
2142.93631,0.02426
2141.90605,0.02423
2140.87580,0.02392
2139.84554,0.02378
2138.81528,0.02380
2137.78502,0.02376
2136.75477,0.02339
2135.72451,0.02245
2134.69425,0.02179
2133.66399,0.02229
2132.63373,0.02356
2131.60348,0.02455
2130.57322,0.02440
2129.54296,0.02371
2128.51270,0.02367
2127.48244,0.02413
2126.45219,0.02453
2125.42193,0.02474
2124.39167,0.02476
2123.36141,0.02471
2122.33116,0.02440
2121.30090,0.02413
2120.27064,0.02484
2119.24038,0.02569
2118.21012,0.02549
2117.17987,0.02514
2116.14961,0.02495
2115.11935,0.02456
2114.08909,0.02459
2113.05884,0.02504
2112.02858,0.02493
2110.99832,0.02428
2109.96806,0.02426
2108.93780,0.02485
2107.90755,0.02453
2106.87729,0.02388
2105.84703,0.02434
2104.81677,0.02489
2103.78651,0.02484
2102.75626,0.02518
2101.72600,0.02594
2100.69574,0.02573
2099.66548,0.02479
2098.63523,0.02402
2097.60497,0.02322
2096.57471,0.02268
2095.54445,0.02268
2094.51419,0.02331
2093.48394,0.02413
2092.45368,0.02456
2091.42342,0.02471
2090.39316,0.02471
2089.36290,0.02478
2088.33265,0.02459
2087.30239,0.02354
2086.27213,0.02238
2085.24187,0.02197
2084.21162,0.02230
2083.18136,0.02316
2082.15110,0.02410
2081.12084,0.02460
2080.09058,0.02414
2079.06033,0.02302
2078.03007,0.02222
2076.99981,0.02225
2075.96955,0.02297
2074.93930,0.02347
2073.90904,0.02347
2072.87878,0.02346
2071.84852,0.02330
2070.81826,0.02319
2069.78801,0.02355
2068.75775,0.02349
2067.72749,0.02187
2066.69723,0.02007
2065.66697,0.01991
2064.63672,0.02034
2063.60646,0.01986
2062.57620,0.01939
2061.54594,0.02075
2060.51569,0.02297
2059.48543,0.02339
2058.45517,0.02243
2057.42491,0.02178
2056.39465,0.02178
2055.36440,0.02255
2054.33414,0.02356
2053.30388,0.02327
2052.27362,0.02176
2051.24336,0.02051
2050.21311,0.02007
2049.18285,0.02054
2048.15259,0.02136
2047.12233,0.02160
2046.09208,0.02175
2045.06182,0.02280
2044.03156,0.02404
2043.00130,0.02357
2041.97104,0.02178
2040.94079,0.02073
2039.91053,0.01997
2038.88027,0.01929
2037.85001,0.01944
2036.81975,0.01967
2035.78950,0.01980
2034.75924,0.01933
2033.72898,0.01837
2032.69872,0.01870
2031.66847,0.01954
2030.63821,0.02066
2029.60795,0.02207
2028.57769,0.02164
2027.54743,0.02119
2026.51718,0.02257
2025.48692,0.02359
2024.45666,0.02389
2023.42640,0.02386
2022.39615,0.02284
2021.36589,0.02253
2020.33563,0.02263
2019.30537,0.02085
2018.27511,0.01977
2017.24486,0.02101
2016.21460,0.02143
2015.18434,0.02031
2014.15408,0.01953
2013.12382,0.01843
2012.09357,0.01620
2011.06331,0.01492
2010.03305,0.01574
2009.00279,0.01765
2007.97254,0.01993
2006.94228,0.02112
2005.91202,0.02034
2004.88176,0.02018
2003.85150,0.02102
2002.82125,0.02090
2001.79099,0.02037
2000.76073,0.01961
1999.73047,0.01842
1998.70021,0.01775
1997.66996,0.01713
1996.63970,0.01587
1995.60944,0.01483
1994.57918,0.01497
1993.54893,0.01565
1992.51867,0.01623
1991.48841,0.01750
1990.45815,0.01861
1989.42789,0.01793
1988.39764,0.01702
1987.36738,0.01758
1986.33712,0.01790
1985.30686,0.01668
1984.27660,0.01490
1983.24635,0.01385
1982.21609,0.01364
1981.18583,0.01385
1980.15557,0.01444
1979.12532,0.01453
1978.09506,0.01429
1977.06480,0.01486
1976.03454,0.01588
1975.00428,0.01741
1973.97403,0.01819
1972.94377,0.01732
1971.91351,0.01616
1970.88325,0.01498
1969.85300,0.01489
1968.82274,0.01550
1967.79248,0.01488
1966.76222,0.01430
1965.73196,0.01449
1964.70171,0.01485
1963.67145,0.01550
1962.64119,0.01616
1961.61093,0.01614
1960.58067,0.01539
1959.55042,0.01547
1958.52016,0.01666
1957.48990,0.01702
1956.45964,0.01661
1955.42939,0.01711
1954.39913,0.01727
1953.36887,0.01588
1952.33861,0.01484
1951.30835,0.01481
1950.27810,0.01530
1949.24784,0.01606
1948.21758,0.01595
1947.18732,0.01505
1946.15706,0.01470
1945.12681,0.01457
1944.09655,0.01419
1943.06629,0.01464
1942.03603,0.01560
1941.00578,0.01563
1939.97552,0.01526
1938.94526,0.01520
1937.91500,0.01515
1936.88474,0.01461
1935.85449,0.01385
1934.82423,0.01367
1933.79397,0.01363
1932.76371,0.01373
1931.73345,0.01463
1930.70320,0.01546
1929.67294,0.01546
1928.64268,0.01522
1927.61242,0.01549
1926.58217,0.01597
1925.55191,0.01600
1924.52165,0.01600
1923.49139,0.01622
1922.46113,0.01625
1921.43088,0.01619
1920.40062,0.01624
1919.37036,0.01610
1918.34010,0.01564
1917.30985,0.01521
1916.27959,0.01489
1915.24933,0.01507
1914.21907,0.01604
1913.18881,0.01610
1912.15856,0.01467
1911.12830,0.01409
1910.09804,0.01498
1909.06778,0.01554
1908.03752,0.01527
1907.00727,0.01507
1905.97701,0.01522
1904.94675,0.01527
1903.91649,0.01535
1902.88624,0.01577
1901.85598,0.01593
1900.82572,0.01550
1899.79546,0.01512
1898.76520,0.01494
1897.73495,0.01466
1896.70469,0.01418
1895.67443,0.01399
1894.64417,0.01463
1893.61391,0.01539
1892.58366,0.01566
1891.55340,0.01580
1890.52314,0.01579
1889.49288,0.01552
1888.46263,0.01543
1887.43237,0.01542
1886.40211,0.01537
1885.37185,0.01572
1884.34159,0.01627
1883.31134,0.01638
1882.28108,0.01589
1881.25082,0.01537
1880.22056,0.01521
1879.19030,0.01540
1878.16005,0.01574
1877.12979,0.01608
1876.09953,0.01653
1875.06927,0.01691
1874.03902,0.01690
1873.00876,0.01653
1871.97850,0.01599
1870.94824,0.01565
1869.91798,0.01566
1868.88773,0.01567
1867.85747,0.01548
1866.82721,0.01504
1865.79695,0.01448
1864.76670,0.01438
1863.73644,0.01492
1862.70618,0.01559
1861.67592,0.01589
1860.64566,0.01566
1859.61541,0.01508
1858.58515,0.01468
1857.55489,0.01460
1856.52463,0.01444
1855.49437,0.01453
1854.46412,0.01513
1853.43386,0.01567
1852.40360,0.01571
1851.37334,0.01570
1850.34309,0.01586
1849.31283,0.01587
1848.28257,0.01595
1847.25231,0.01608
1846.22205,0.01577
1845.19180,0.01516
1844.16154,0.01495
1843.13128,0.01511
1842.10102,0.01500
1841.07076,0.01501
1840.04051,0.01557
1839.01025,0.01624
1837.97999,0.01658
1836.94973,0.01676
1835.91948,0.01683
1834.88922,0.01671
1833.85896,0.01657
1832.82870,0.01631
1831.79844,0.01606
1830.76819,0.01613
1829.73793,0.01624
1828.70767,0.01616
1827.67741,0.01620
1826.64715,0.01640
1825.61690,0.01662
1824.58664,0.01668
1823.55638,0.01656
1822.52612,0.01647
1821.49587,0.01634
1820.46561,0.01625
1819.43535,0.01660
1818.40509,0.01727
1817.37483,0.01762
1816.34458,0.01746
1815.31432,0.01733
1814.28406,0.01749
1813.25380,0.01780
1812.22355,0.01806
1811.19329,0.01798
1810.16303,0.01747
1809.13277,0.01723
1808.10251,0.01753
1807.07226,0.01793
1806.04200,0.01823
1805.01174,0.01844
1803.98148,0.01850
1802.95122,0.01865
1801.92097,0.01898
1800.89071,0.01909
1799.86045,0.01893
1798.83019,0.01881
1797.79994,0.01874
1796.76968,0.01866
1795.73942,0.01867
1794.70916,0.01898
1793.67890,0.01957
1792.64865,0.01997
1791.61839,0.01987
1790.58813,0.01982
1789.55787,0.01993
1788.52761,0.01975
1787.49736,0.01931
1786.46710,0.01905
1785.43684,0.01919
1784.40658,0.01964
1783.37633,0.02014
1782.34607,0.02066
1781.31581,0.02118
1780.28555,0.02135
1779.25529,0.02119
1778.22504,0.02104
1777.19478,0.02106
1776.16452,0.02129
1775.13426,0.02143
1774.10400,0.02145
1773.07375,0.02183
1772.04349,0.02223
1771.01323,0.02209
1769.98297,0.02212
1768.95272,0.02257
1767.92246,0.02297
1766.89220,0.02321
1765.86194,0.02358
1764.83168,0.02388
1763.80143,0.02395
1762.77117,0.02405
1761.74091,0.02436
1760.71065,0.02474
1759.68040,0.02508
1758.65014,0.02541
1757.61988,0.02562
1756.58962,0.02588
1755.55936,0.02628
1754.52911,0.02664
1753.49885,0.02692
1752.46859,0.02716
1751.43833,0.02758
1750.40807,0.02823
1749.37782,0.02877
1748.34756,0.02911
1747.31730,0.02937
1746.28704,0.02984
1745.25679,0.03031
1744.22653,0.03053
1743.19627,0.03086
1742.16601,0.03143
1741.13575,0.03187
1740.10550,0.03216
1739.07524,0.03264
1738.04498,0.03336
1737.01472,0.03400
1735.98446,0.03436
1734.95421,0.03445
1733.92395,0.03480
1732.89369,0.03568
1731.86343,0.03629
1730.83318,0.03667
1729.80292,0.03735
1728.77266,0.03837
1727.74240,0.03921
1726.71214,0.03982
1725.68189,0.04045
1724.65163,0.04109
1723.62137,0.04172
1722.59111,0.04252
1721.56085,0.04340
1720.53060,0.04423
1719.50034,0.04500
1718.47008,0.04577
1717.43982,0.04658
1716.40957,0.04724
1715.37931,0.04814
1714.34905,0.04945
1713.31879,0.05067
1712.28853,0.05172
1711.25828,0.05288
1710.22802,0.05415
1709.19776,0.05534
1708.16750,0.05630
1707.13725,0.05723
1706.10699,0.05854
1705.07673,0.06015
1704.04647,0.06161
1703.01621,0.06276
1701.98596,0.06371
1700.95570,0.06489
1699.92544,0.06724
1698.89518,0.06909
1697.86492,0.07014
1696.83467,0.07147
1695.80441,0.07365
1694.77415,0.07576
1693.74389,0.07721
1692.71364,0.07864
1691.68338,0.08015
1690.65312,0.08181
1689.62286,0.08358
1688.59260,0.08532
1687.56235,0.08705
1686.53209,0.08889
1685.50183,0.09112
1684.47157,0.09390
1683.44131,0.09576
1682.41106,0.09680
1681.38080,0.09825
1680.35054,0.10012
1679.32028,0.10230
1678.29003,0.10440
1677.25977,0.10623
1676.22951,0.10806
1675.19925,0.11041
1674.16899,0.11280
1673.13874,0.11462
1672.10848,0.11633
1671.07822,0.11821
1670.04796,0.12023
1669.01771,0.12252
1667.98745,0.12462
1666.95719,0.12629
1665.92693,0.12814
1664.89667,0.13016
1663.86642,0.13190
1662.83616,0.13375
1661.80590,0.13626
1660.77564,0.13872
1659.74538,0.14053
1658.71513,0.14201
1657.68487,0.14371
1656.65461,0.14565
1655.62435,0.14771
1654.59410,0.15004
1653.56384,0.15216
1652.53358,0.15299
1651.50332,0.15408
1650.47306,0.15577
1649.44281,0.15728
1648.41255,0.15853
1647.38229,0.15997
1646.35203,0.16136
1645.32177,0.16221
1644.29152,0.16310
1643.26126,0.16411
1642.23100,0.16507
1641.20074,0.16586
1640.17049,0.16650
1639.14023,0.16717
1638.10997,0.16780
1637.07971,0.16823
1636.04945,0.16808
1635.01920,0.16680
1633.98894,0.16597
1632.95868,0.16587
1631.92842,0.16537
1630.89816,0.16450
1629.86791,0.16372
1628.83765,0.16284
1627.80739,0.16099
1626.77713,0.15864
1625.74688,0.15713
1624.71662,0.15606
1623.68636,0.15421
1622.65610,0.15162
1621.62584,0.14961
1620.59559,0.14782
1619.56533,0.14580
1618.53507,0.14401
1617.50481,0.14209
1616.47456,0.13858
1615.44430,0.13549
1614.41404,0.13363
1613.38378,0.13169
1612.35352,0.12956
1611.32327,0.12738
1610.29301,0.12516
1609.26275,0.12285
1608.23249,0.12074
1607.20223,0.11848
1606.17198,0.11603
1605.14172,0.11386
1604.11146,0.11202
1603.08120,0.11030
1602.05095,0.10850
1601.02069,0.10637
1599.99043,0.10402
1598.96017,0.10199
1597.92991,0.10043
1596.89966,0.09909
1595.86940,0.09775
1594.83914,0.09623
1593.80888,0.09464
1592.77862,0.09327
1591.74837,0.09178
1590.71811,0.09028
1589.68785,0.08909
1588.65759,0.08795
1587.62734,0.08668
1586.59708,0.08533
1585.56682,0.08408
1584.53656,0.08310
1583.50630,0.08218
1582.47605,0.08117
1581.44579,0.08027
1580.41553,0.07945
1579.38527,0.07862
1578.35501,0.07777
1577.32476,0.07678
1576.29450,0.07519
1575.26424,0.07373
1574.23398,0.07320
1573.20373,0.07282
1572.17347,0.07230
1571.14321,0.07190
1570.11295,0.07156
1569.08269,0.07070
1568.05244,0.06991
1567.02218,0.06955
1565.99192,0.06907
1564.96166,0.06833
1563.93141,0.06770
1562.90115,0.06710
1561.87089,0.06672
1560.84063,0.06689
1559.81037,0.06714
1558.78012,0.06628
1557.74986,0.06465
1556.71960,0.06384
1555.68934,0.06361
1554.65908,0.06345
1553.62883,0.06319
1552.59857,0.06282
1551.56831,0.06225
1550.53805,0.06174
1549.50780,0.06163
1548.47754,0.06145
1547.44728,0.06093
1546.41702,0.06047
1545.38676,0.06006
1544.35651,0.05932
1543.32625,0.05871
1542.29599,0.05858
1541.26573,0.05853
1540.23547,0.05794
1539.20522,0.05717
1538.17496,0.05721
1537.14470,0.05748
1536.11444,0.05752
1535.08419,0.05731
1534.05393,0.05692
1533.02367,0.05654
1531.99341,0.05631
1530.96315,0.05601
1529.93290,0.05574
1528.90264,0.05557
1527.87238,0.05534
1526.84212,0.05517
1525.81186,0.05503
1524.78161,0.05480
1523.75135,0.05475
1522.72109,0.05470
1521.69083,0.05435
1520.66058,0.05408
1519.63032,0.05416
1518.60006,0.05417
1517.56980,0.05373
1516.53954,0.05318
1515.50929,0.05326
1514.47903,0.05365
1513.44877,0.05384
1512.41851,0.05365
1511.38826,0.05325
1510.35800,0.05291
1509.32774,0.05281
1508.29748,0.05286
1507.26722,0.05253
1506.23697,0.05204
1505.20671,0.05216
1504.17645,0.05220
1503.14619,0.05197
1502.11593,0.05169
1501.08568,0.05157
1500.05542,0.05160
1499.02516,0.05166
1497.99490,0.05176
1496.96465,0.05186
1495.93439,0.05192
1494.90413,0.05197
1493.87387,0.05187
1492.84361,0.05161
1491.81336,0.05147
1490.78310,0.05170
1489.75284,0.05237
1488.72258,0.05318
1487.69232,0.05403
1486.66207,0.05506
1485.63181,0.05655
1484.60155,0.05908
1483.57129,0.06255
1482.54104,0.06563
1481.51078,0.06684
1480.48052,0.06564
1479.45026,0.06307
1478.42000,0.06061
1477.38975,0.05879
1476.35949,0.05748
1475.32923,0.05672
1474.29897,0.05655
1473.26871,0.05692
1472.23846,0.05765
1471.20820,0.05851
1470.17794,0.05961
1469.14768,0.06093
1468.11743,0.06207
1467.08717,0.06264
1466.05691,0.06280
1465.02665,0.06281
1463.99639,0.06252
1462.96614,0.06179
1461.93588,0.06090
1460.90562,0.06016
1459.87536,0.05943
1458.84511,0.05856
1457.81485,0.05767
1456.78459,0.05682
1455.75433,0.05655
1454.72407,0.05649
1453.69382,0.05616
1452.66356,0.05567
1451.63330,0.05523
1450.60304,0.05489
1449.57278,0.05461
1448.54253,0.05456
1447.51227,0.05457
1446.48201,0.05417
1445.45175,0.05345
1444.42150,0.05286
1443.39124,0.05275
1442.36098,0.05275
1441.33072,0.05252
1440.30046,0.05226
1439.27021,0.05215
1438.23995,0.05209
1437.20969,0.05173
1436.17943,0.05122
1435.14917,0.05105
1434.11892,0.05087
1433.08866,0.05045
1432.05840,0.05003
1431.02814,0.04993
1429.99789,0.04991
1428.96763,0.04965
1427.93737,0.04938
1426.90711,0.04924
1425.87685,0.04912
1424.84660,0.04890
1423.81634,0.04866
1422.78608,0.04858
1421.75582,0.04861
1420.72556,0.04859
1419.69531,0.04841
1418.66505,0.04832
1417.63479,0.04841
1416.60453,0.04830
1415.57428,0.04819
1414.54402,0.04818
1413.51376,0.04812
1412.48350,0.04826
1411.45324,0.04861
1410.42299,0.04888
1409.39273,0.04912
1408.36247,0.04944
1407.33221,0.04991
1406.30196,0.05061
1405.27170,0.05137
1404.24144,0.05172
1403.21118,0.05158
1402.18092,0.05123
1401.15067,0.05086
1400.12041,0.05044
1399.09015,0.04987
1398.05989,0.04922
1397.02963,0.04874
1395.99938,0.04848
1394.96912,0.04825
1393.93886,0.04790
1392.90860,0.04766
1391.87835,0.04750
1390.84809,0.04732
1389.81783,0.04727
1388.78757,0.04731
1387.75731,0.04738
1386.72706,0.04746
1385.69680,0.04733
1384.66654,0.04709
1383.63628,0.04708
1382.60602,0.04721
1381.57577,0.04715
1380.54551,0.04686
1379.51525,0.04656
1378.48499,0.04656
1377.45474,0.04679
1376.42448,0.04700
1375.39422,0.04734
1374.36396,0.04777
1373.33370,0.04769
1372.30345,0.04713
1371.27319,0.04668
1370.24293,0.04658
1369.21267,0.04667
1368.18241,0.04680
1367.15216,0.04685
1366.12190,0.04681
1365.09164,0.04669
1364.06138,0.04659
1363.03113,0.04667
1362.00087,0.04690
1360.97061,0.04696
1359.94035,0.04683
1358.91009,0.04673
1357.87984,0.04668
1356.84958,0.04665
1355.81932,0.04664
1354.78906,0.04669
1353.75881,0.04684
1352.72855,0.04678
1351.69829,0.04647
1350.66803,0.04632
1349.63777,0.04646
1348.60752,0.04654
1347.57726,0.04653
1346.54700,0.04659
1345.51674,0.04653
1344.48648,0.04637
1343.45623,0.04625
1342.42597,0.04621
1341.39571,0.04633
1340.36545,0.04667
1339.33520,0.04685
1338.30494,0.04662
1337.27468,0.04640
1336.24442,0.04640
1335.21416,0.04644
1334.18391,0.04648
1333.15365,0.04656
1332.12339,0.04657
1331.09313,0.04637
1330.06287,0.04609
1329.03262,0.04608
1328.00236,0.04624
1326.97210,0.04639
1325.94184,0.04660
1324.91159,0.04683
1323.88133,0.04681
1322.85107,0.04649
1321.82081,0.04630
1320.79055,0.04643
1319.76030,0.04648
1318.73004,0.04635
1317.69978,0.04637
1316.66952,0.04649
1315.63927,0.04634
1314.60901,0.04606
1313.57875,0.04606
1312.54849,0.04626
1311.51823,0.04635
1310.48798,0.04640
1309.45772,0.04656
1308.42746,0.04676
1307.39720,0.04679
1306.36694,0.04674
1305.33669,0.04670
1304.30643,0.04648
1303.27617,0.04625
1302.24591,0.04622
1301.21566,0.04620
1300.18540,0.04610
1299.15514,0.04614
1298.12488,0.04641
1297.09462,0.04663
1296.06437,0.04658
1295.03411,0.04645
1294.00385,0.04641
1292.97359,0.04638
1291.94333,0.04631
1290.91308,0.04624
1289.88282,0.04637
1288.85256,0.04668
1287.82230,0.04683
1286.79205,0.04671
1285.76179,0.04645
1284.73153,0.04630
1283.70127,0.04647
1282.67101,0.04670
1281.64076,0.04667
1280.61050,0.04637
1279.58024,0.04616
1278.54998,0.04625
1277.51972,0.04633
1276.48947,0.04626
1275.45921,0.04632
1274.42895,0.04654
1273.39869,0.04665
1272.36844,0.04657
1271.33818,0.04652
1270.30792,0.04666
1269.27766,0.04670
1268.24740,0.04642
1267.21715,0.04614
1266.18689,0.04628
1265.15663,0.04675
1264.12637,0.04713
1263.09612,0.04705
1262.06586,0.04655
1261.03560,0.04620
1260.00534,0.04627
1258.97508,0.04647
1257.94483,0.04654
1256.91457,0.04658
1255.88431,0.04665
1254.85405,0.04677
1253.82379,0.04708
1252.79354,0.04757
1251.76328,0.04802
1250.73302,0.04825
1249.70276,0.04839
1248.67251,0.04874
1247.64225,0.04928
1246.61199,0.05000
1245.58173,0.05098
1244.55147,0.05203
1243.52122,0.05296
1242.49096,0.05376
1241.46070,0.05441
1240.43044,0.05485
1239.40018,0.05514
1238.36993,0.05526
1237.33967,0.05496
1236.30941,0.05428
1235.27915,0.05346
1234.24890,0.05251
1233.21864,0.05166
1232.18838,0.05101
1231.15812,0.05031
1230.12786,0.04970
1229.09761,0.04925
1228.06735,0.04883
1227.03709,0.04855
1226.00683,0.04840
1224.97657,0.04827
1223.94632,0.04799
1222.91606,0.04754
1221.88580,0.04723
1220.85554,0.04721
1219.82529,0.04714
1218.79503,0.04693
1217.76477,0.04684
1216.73451,0.04682
1215.70425,0.04681
1214.67400,0.04677
1213.64374,0.04676
1212.61348,0.04696
1211.58322,0.04703
1210.55297,0.04671
1209.52271,0.04661
1208.49245,0.04680
1207.46219,0.04667
1206.43193,0.04640
1205.40168,0.04639
1204.37142,0.04654
1203.34116,0.04670
1202.31090,0.04672
1201.28064,0.04651
1200.25039,0.04641
1199.22013,0.04650
1198.18987,0.04657
1197.15961,0.04656
1196.12936,0.04644
1195.09910,0.04635
1194.06884,0.04646
1193.03858,0.04651
1192.00832,0.04658
1190.97807,0.04671
1189.94781,0.04659
1188.91755,0.04647
1187.88729,0.04661
1186.85703,0.04671
1185.82678,0.04670
1184.79652,0.04684
1183.76626,0.04698
1182.73600,0.04678
1181.70575,0.04643
1180.67549,0.04631
1179.64523,0.04639
1178.61497,0.04645
1177.58471,0.04631
1176.55446,0.04608
1175.52420,0.04600
1174.49394,0.04613
1173.46368,0.04625
1172.43342,0.04640
1171.40317,0.04659
1170.37291,0.04654
1169.34265,0.04643
1168.31239,0.04646
1167.28214,0.04625
1166.25188,0.04592
1165.22162,0.04591
1164.19136,0.04623
1163.16110,0.04651
1162.13085,0.04648
1161.10059,0.04619
1160.07033,0.04609
1159.04007,0.04634
1158.00982,0.04641
1156.97956,0.04621
1155.94930,0.04627
1154.91904,0.04653
1153.88878,0.04666
1152.85853,0.04668
1151.82827,0.04664
1150.79801,0.04662
1149.76775,0.04662
1148.73749,0.04648
1147.70724,0.04648
1146.67698,0.04669
1145.64672,0.04665
1144.61646,0.04639
1143.58621,0.04622
1142.55595,0.04617
1141.52569,0.04610
1140.49543,0.04609
1139.46517,0.04630
1138.43492,0.04641
1137.40466,0.04627
1136.37440,0.04636
1135.34414,0.04662
1134.31388,0.04686
1133.28363,0.04699
1132.25337,0.04674
1131.22311,0.04649
1130.19285,0.04644
1129.16260,0.04636
1128.13234,0.04664
1127.10208,0.04732
1126.07182,0.04767
1125.04156,0.04747
1124.01131,0.04717
1122.98105,0.04708
1121.95079,0.04721
1120.92053,0.04753
1119.89027,0.04775
1118.86002,0.04755
1117.82976,0.04703
1116.79950,0.04664
1115.76924,0.04663
1114.73899,0.04682
1113.70873,0.04702
1112.67847,0.04711
1111.64821,0.04715
1110.61795,0.04722
1109.58770,0.04721
1108.55744,0.04717
1107.52718,0.04737
1106.49692,0.04786
1105.46667,0.04811
1104.43641,0.04771
1103.40615,0.04731
1102.37589,0.04748
1101.34563,0.04785
1100.31538,0.04805
1099.28512,0.04792
1098.25486,0.04773
1097.22460,0.04789
1096.19434,0.04809
1095.16409,0.04820
1094.13383,0.04850
1093.10357,0.04871
1092.07331,0.04866
1091.04306,0.04854
1090.01280,0.04852
1088.98254,0.04872
1087.95228,0.04895
1086.92202,0.04912
1085.89177,0.04932
1084.86151,0.04950
1083.83125,0.04955
1082.80099,0.04952
1081.77073,0.04958
1080.74048,0.04952
1079.71022,0.04923
1078.67996,0.04902
1077.64970,0.04895
1076.61945,0.04917
1075.58919,0.04961
1074.55893,0.04984
1073.52867,0.04988
1072.49841,0.04984
1071.46816,0.04963
1070.43790,0.04923
1069.40764,0.04899
1068.37738,0.04911
1067.34712,0.04949
1066.31687,0.04982
1065.28661,0.04992
1064.25635,0.04977
1063.22609,0.04964
1062.19584,0.04961
1061.16558,0.04938
1060.13532,0.04911
1059.10506,0.04931
1058.07480,0.04981
1057.04455,0.05010
1056.01429,0.05014
1054.98403,0.05008
1053.95377,0.05001
1052.92352,0.04989
1051.89326,0.04963
1050.86300,0.04951
1049.83274,0.04962
1048.80248,0.04973
1047.77223,0.04979
1046.74197,0.04985
1045.71171,0.04985
1044.68145,0.04984
1043.65119,0.05001
1042.62094,0.05037
1041.59068,0.05035
1040.56042,0.04986
1039.53016,0.04965
1038.49991,0.05001
1037.46965,0.05051
1036.43939,0.05064
1035.40913,0.05065
1034.37887,0.05099
1033.34862,0.05123
1032.31836,0.05115
1031.28810,0.05092
1030.25784,0.05069
1029.22758,0.05065
1028.19733,0.05077
1027.16707,0.05095
1026.13681,0.05113
1025.10655,0.05139
1024.07630,0.05174
1023.04604,0.05201
1022.01578,0.05207
1020.98552,0.05178
1019.95526,0.05151
1018.92501,0.05166
1017.89475,0.05209
1016.86449,0.05253
1015.83423,0.05283
1014.80397,0.05310
1013.77372,0.05337
1012.74346,0.05362
1011.71320,0.05377
1010.68294,0.05362
1009.65269,0.05350
1008.62243,0.05367
1007.59217,0.05382
1006.56191,0.05392
1005.53165,0.05417
1004.50140,0.05438
1003.47114,0.05450
1002.44088,0.05481
1001.41062,0.05509
1000.38037,0.05504
999.35011,0.05504
998.31985,0.05545
997.28959,0.05604
996.25933,0.05643
995.22908,0.05676
994.19882,0.05721
993.16856,0.05752
992.13830,0.05759
991.10804,0.05761
990.07779,0.05795
989.04753,0.05860
988.01727,0.05899
986.98701,0.05889
985.95676,0.05887
984.92650,0.05924
983.89624,0.05964
982.86598,0.05992
981.83572,0.06012
980.80547,0.06018
979.77521,0.06010
978.74495,0.05997
977.71469,0.06027
976.68443,0.06098
975.65418,0.06143
974.62392,0.06151
973.59366,0.06192
972.56340,0.06273
971.53315,0.06337
970.50289,0.06364
969.47263,0.06372
968.44237,0.06399
967.41211,0.06456
966.38186,0.06513
965.35160,0.06574
964.32134,0.06660
963.29108,0.06766
962.26082,0.06886
961.23057,0.07016
960.20031,0.07173
959.17005,0.07373
958.13979,0.07578
957.10954,0.07770
956.07928,0.07991
955.04902,0.08259
954.01876,0.08537
952.98850,0.08755
951.95825,0.08878
950.92799,0.08941
949.89773,0.08967
948.86747,0.08975
947.83722,0.08977
946.80696,0.08930
945.77670,0.08803
944.74644,0.08626
943.71618,0.08460
942.68593,0.08327
941.65567,0.08211
940.62541,0.08114
939.59515,0.08068
938.56489,0.08076
937.53464,0.08088
936.50438,0.08072
935.47412,0.08062
934.44386,0.08067
933.41361,0.08088
932.38335,0.08131
931.35309,0.08163
930.32283,0.08175
929.29257,0.08173
928.26232,0.08183
927.23206,0.08249
926.20180,0.08327
925.17154,0.08363
924.14128,0.08387
923.11103,0.08441
922.08077,0.08511
921.05051,0.08576
920.02025,0.08648
918.99000,0.08717
917.95974,0.08764
916.92948,0.08797
915.89922,0.08828
914.86896,0.08889
913.83871,0.08977
912.80845,0.09068
911.77819,0.09159
910.74793,0.09236
909.71768,0.09295
908.68742,0.09357
907.65716,0.09428
906.62690,0.09513
905.59664,0.09633
904.56639,0.09747
903.53613,0.09811
902.50587,0.09862
901.47561,0.09931
900.44535,0.10004
899.41510,0.10092
898.38484,0.10205
897.35458,0.10303
896.32432,0.10365
895.29407,0.10405
894.26381,0.10463
893.23355,0.10570
892.20329,0.10693
891.17303,0.10798
890.14278,0.10893
889.11252,0.10981
888.08226,0.11058
887.05200,0.11145
886.02174,0.11243
884.99149,0.11338
883.96123,0.11473
882.93097,0.11634
881.90071,0.11737
880.87046,0.11819
879.84020,0.11927
878.80994,0.12003
877.77968,0.12066
876.74942,0.12162
875.71917,0.12284
874.68891,0.12415
873.65865,0.12501
872.62839,0.12573
871.59813,0.12701
870.56788,0.12846
869.53762,0.12965
868.50736,0.13068
867.47710,0.13171
866.44685,0.13265
865.41659,0.13353
864.38633,0.13443
863.35607,0.13526
862.32581,0.13632
861.29556,0.13786
860.26530,0.13945
859.23504,0.14072
858.20478,0.14174
857.17453,0.14271
856.14427,0.14382
855.11401,0.14515
854.08375,0.14676
853.05349,0.14826
852.02324,0.14923
850.99298,0.15028
849.96272,0.15170
848.93246,0.15309
847.90220,0.15447
846.87195,0.15574
845.84169,0.15625
844.81143,0.15664
843.78117,0.15799
842.75092,0.15974
841.72066,0.16112
840.69040,0.16226
839.66014,0.16344
838.62988,0.16456
837.59963,0.16566
836.56937,0.16720
835.53911,0.16879
834.50885,0.17003
833.47859,0.17129
832.44834,0.17267
831.41808,0.17359
830.38782,0.17421
829.35756,0.17564
828.32731,0.17743
827.29705,0.17865
826.26679,0.17966
825.23653,0.18064
824.20627,0.18174
823.17602,0.18356
822.14576,0.18545
821.11550,0.18653
820.08524,0.18698
819.05498,0.18743
818.02473,0.18839
816.99447,0.18953
815.96421,0.19086
814.93395,0.19283
813.90370,0.19486
812.87344,0.19615
811.84318,0.19719
810.81292,0.19875
809.78266,0.20063
808.75241,0.20190
807.72215,0.20252
806.69189,0.20378
805.66163,0.20560
804.63138,0.20686
803.60112,0.20787
802.57086,0.20910
801.54060,0.21023
800.51034,0.21150
799.48009,0.21305
798.44983,0.21464
797.41957,0.21625
796.38931,0.21777
795.35905,0.21897
794.32880,0.22001
793.29854,0.22128
792.26828,0.22259
791.23802,0.22379
790.20777,0.22547
789.17751,0.22749
788.14725,0.22891
787.11699,0.23006
786.08673,0.23165
785.05648,0.23340
784.02622,0.23482
782.99596,0.23575
781.96570,0.23674
780.93544,0.23811
779.90519,0.23970
778.87493,0.24142
777.84467,0.24291
776.81441,0.24411
775.78416,0.24559
774.75390,0.24716
773.72364,0.24823
772.69338,0.24912
771.66312,0.25009
770.63287,0.25149
769.60261,0.25339
768.57235,0.25512
767.54209,0.25664
766.51183,0.25839
765.48158,0.26055
764.45132,0.26263
763.42106,0.26435
762.39080,0.26639
761.36055,0.26884
760.33029,0.27120
759.30003,0.27363
758.26977,0.27606
757.23951,0.27785
756.20926,0.27906
755.17900,0.28012
754.14874,0.28142
753.11848,0.28283
752.08823,0.28381
751.05797,0.28436
750.02771,0.28493
748.99745,0.28590
747.96719,0.28721
746.93694,0.28850
745.90668,0.28975
744.87642,0.29108
743.84616,0.29190
742.81590,0.29232
741.78565,0.29346
740.75539,0.29510
739.72513,0.29667
738.69487,0.29837
737.66462,0.30001
736.63436,0.30111
735.60410,0.30170
734.57384,0.30224
733.54358,0.30357
732.51333,0.30553
731.48307,0.30705
730.45281,0.30823
729.42255,0.30961
728.39229,0.31097
727.36204,0.31222
726.33178,0.31353
725.30152,0.31480
724.27126,0.31571
723.24101,0.31680
722.21075,0.31880
721.18049,0.32102
720.15023,0.32292
719.11997,0.32479
718.08972,0.32664
717.05946,0.32755
716.02920,0.32787
714.99894,0.32945
713.96868,0.33183
712.93843,0.33294
711.90817,0.33329
710.87791,0.33456
709.84765,0.33634
708.81740,0.33821
707.78714,0.33984
706.75688,0.34040
705.72662,0.34060
704.69636,0.34162
703.66611,0.34342
702.63585,0.34497
701.60559,0.34617
700.57533,0.34765
699.54508,0.34910
698.51482,0.35031
697.48456,0.35222
696.45430,0.35469
695.42404,0.35664
694.39379,0.35807
693.36353,0.35901
692.33327,0.35966
691.30301,0.36020
690.27275,0.36090
689.24250,0.36260
688.21224,0.36460
687.18198,0.36585
686.15172,0.36690
685.12147,0.36816
684.09121,0.36969
683.06095,0.37117
682.03069,0.37233
681.00043,0.37363
679.97018,0.37528
678.93992,0.37665
677.90966,0.37783
676.87940,0.37954
675.84914,0.38097
674.81889,0.38152
673.78863,0.38226
672.75837,0.38356
671.72811,0.38455
670.69786,0.38580
669.66760,0.38770
668.63734,0.38936
667.60708,0.39135
666.57682,0.39291
665.54657,0.39387
664.51631,0.39465
663.48605,0.39490
662.45579,0.39499
661.42553,0.39604
660.39528,0.39826
659.36502,0.40036
658.33476,0.40176
657.30450,0.40335
656.27425,0.40478
655.24399,0.40492
654.21373,0.40502
653.18347,0.40643
652.15321,0.40813
651.12296,0.40956
650.09270,0.41196
649.06244,0.41436
648.03218,0.41427
647.00193,0.41350
645.97167,0.41479
644.94141,0.41745
643.91115,0.41998
642.88089,0.42107
641.85064,0.42060
640.82038,0.42127
639.79012,0.42392
638.75986,0.42538
637.72960,0.42533
636.69935,0.42653
635.66909,0.42891
634.63883,0.43121
633.60857,0.43319
632.57832,0.43371
631.54806,0.43263
630.51780,0.43269
629.48754,0.43456
628.45728,0.43617
627.42703,0.43688
626.39677,0.43692
625.36651,0.43714
624.33625,0.43827
623.30599,0.44016
622.27574,0.44221
621.24548,0.44368
620.21522,0.44512
619.18496,0.44614
618.15471,0.44586
617.12445,0.44576
616.09419,0.44653
615.06393,0.44731
614.03367,0.44875
613.00342,0.45143
611.97316,0.45370
610.94290,0.45375
609.91264,0.45276
608.88238,0.45312
607.85213,0.45546
606.82187,0.45731
605.79161,0.45721
604.76135,0.45784
603.73110,0.46048
602.70084,0.46320
601.67058,0.46421
600.64032,0.46447
599.61006,0.46479
598.57981,0.46346
597.54955,0.46200
596.51929,0.46404
595.48903,0.46676
594.45878,0.46741
593.42852,0.46871
592.39826,0.47059
591.36800,0.47240
590.33774,0.47290
589.30749,0.47125
588.27723,0.47049
587.24697,0.47140
586.21671,0.47248
585.18645,0.47319
584.15620,0.47415
583.12594,0.47539
582.09568,0.47611
581.06542,0.47677
580.03517,0.47739
579.00491,0.47939
577.97465,0.48360
576.94439,0.48614
575.91413,0.48480
574.88388,0.48263
573.85362,0.48261
572.82336,0.48497
571.79310,0.48875
570.76284,0.49048
569.73259,0.48788
568.70233,0.48553
567.67207,0.48557
566.64181,0.48668
565.61156,0.48904
564.58130,0.49179
563.55104,0.49330
562.52078,0.49201
561.49052,0.48990
560.46027,0.49024
559.43001,0.49178
558.39975,0.49363
557.36949,0.49647
556.33924,0.49846
555.30898,0.49886
554.27872,0.49849
553.24846,0.49820
552.21820,0.49882
551.18795,0.50034
550.15769,0.50330
549.12743,0.50552
548.09717,0.50427
547.06691,0.50192
546.03666,0.50213
545.00640,0.50586
543.97614,0.50798
542.94588,0.50360
541.91563,0.49789
540.88537,0.49794
539.85511,0.50307
538.82485,0.50746
537.79459,0.50956
536.76434,0.51186
535.73408,0.51487
534.70382,0.51651
533.67356,0.51366
532.64330,0.50897
531.61305,0.50751
530.58279,0.50832
529.55253,0.50950
528.52227,0.51203
527.49202,0.51486
526.46176,0.51698
525.43150,0.51928
524.40124,0.51954
523.37098,0.51734
522.34073,0.51627
521.31047,0.51749
520.28021,0.52079
519.24995,0.52399
518.21969,0.52449
517.18944,0.52514
516.15918,0.52684
515.12892,0.52880
514.09866,0.53095
513.06841,0.53179
512.03815,0.53438
511.00789,0.53890
509.97763,0.53757
508.94737,0.53078
507.91712,0.52712
506.88686,0.52842
505.85660,0.53251
504.82634,0.53778
503.79609,0.54147
502.76583,0.54145
501.73557,0.53938
500.70531,0.54004
499.67505,0.54428
498.64480,0.54983
497.61454,0.55318
496.58428,0.55241
495.55402,0.54933
494.52376,0.54783
493.49351,0.54973
492.46325,0.55064
491.43299,0.54991
490.40273,0.55040
489.37248,0.54941
488.34222,0.54875
487.31196,0.55147
486.28170,0.55318
485.25144,0.55060
484.22119,0.54611
483.19093,0.54399
482.16067,0.54369
481.13041,0.54371
480.10015,0.54471
479.06990,0.54552
478.03964,0.54463
477.00938,0.54310
475.97912,0.54284
474.94887,0.54245
473.91861,0.54306
472.88835,0.54701
471.85809,0.55048
470.82783,0.54896
469.79758,0.54609
468.76732,0.54789
467.73706,0.55518
466.70680,0.56320
465.67654,0.56581
464.64629,0.56547
463.61603,0.56765
462.58577,0.56844
461.55551,0.56421
460.52526,0.55853
459.49500,0.55504
458.46474,0.55861
457.43448,0.56618
456.40422,0.56702
455.37397,0.56552
454.34371,0.56282
453.31345,0.55929
452.28319,0.56126
451.25294,0.56313
450.22268,0.55946
449.19242,0.55719
448.16216,0.56040
447.13190,0.56222
446.10165,0.55877
445.07139,0.55814
444.04113,0.56049
443.01087,0.55983
441.98061,0.55673
440.95036,0.55678
439.92010,0.56237
438.88984,0.56574
437.85958,0.56212
436.82933,0.55974
435.79907,0.56340
434.76881,0.56557
433.73855,0.56588
432.70829,0.56962
431.67804,0.56994
430.64778,0.56129
429.61752,0.55653
428.58726,0.56081
427.55700,0.56328
426.52675,0.56268
425.49649,0.56394
424.46623,0.56320
423.43597,0.55810
422.40572,0.55216
421.37546,0.54997
420.34520,0.55409
419.31494,0.56147
418.28468,0.56675
417.25443,0.56605
416.22417,0.56252
415.19391,0.56186
414.16365,0.56384
413.13339,0.56554
412.10314,0.56003
411.07288,0.55232
410.04262,0.55482
409.01236,0.55885
407.98211,0.55185
406.95185,0.54143
405.92159,0.54430
404.89133,0.56123
403.86107,0.57388
402.83082,0.57347
401.80056,0.57488
400.77030,0.58053
399.74004,0.57934
