4998.81105,0.00390
4997.78079,0.00497
4996.75054,0.00524
4995.72028,0.00483
4994.69002,0.00425
4993.65976,0.00373
4992.62951,0.00322
4991.59925,0.00341
4990.56899,0.00385
4989.53873,0.00334
4988.50847,0.00266
4987.47822,0.00264
4986.44796,0.00270
4985.41770,0.00271
4984.38744,0.00267
4983.35718,0.00294
4982.32693,0.00386
4981.29667,0.00463
4980.26641,0.00518
4979.23615,0.00513
4978.20590,0.00420
4977.17564,0.00341
4976.14538,0.00288
4975.11512,0.00259
4974.08486,0.00319
4973.05461,0.00384
4972.02435,0.00355
4970.99409,0.00323
4969.96383,0.00298
4968.93357,0.00278
4967.90332,0.00332
4966.87306,0.00371
4965.84280,0.00330
4964.81254,0.00316
4963.78229,0.00357
4962.75203,0.00360
4961.72177,0.00366
4960.69151,0.00422
4959.66125,0.00477
4958.63100,0.00523
4957.60074,0.00531
4956.57048,0.00496
4955.54022,0.00469
4954.50997,0.00487
4953.47971,0.00533
4952.44945,0.00509
4951.41919,0.00386
4950.38893,0.00317
4949.35868,0.00384
4948.32842,0.00451
4947.29816,0.00437
4946.26790,0.00414
4945.23764,0.00361
4944.20739,0.00278
4943.17713,0.00264
4942.14687,0.00303
4941.11661,0.00339
4940.08636,0.00357
4939.05610,0.00328
4938.02584,0.00278
4936.99558,0.00229
4935.96532,0.00177
4934.93507,0.00150
4933.90481,0.00198
4932.87455,0.00289
4931.84429,0.00281
4930.81403,0.00120
4929.78378,-0.00014
4928.75352,0.00079
4927.72326,0.00322
4926.69300,0.00452
4925.66275,0.00395
4924.63249,0.00299
4923.60223,0.00301
4922.57197,0.00376
4921.54171,0.00374
4920.51146,0.00297
4919.48120,0.00258
4918.45094,0.00244
4917.42068,0.00192
4916.39042,0.00167
4915.36017,0.00247
4914.32991,0.00273
4913.29965,0.00166
4912.26939,0.00113
4911.23914,0.00168
4910.20888,0.00219
4909.17862,0.00213
4908.14836,0.00193
4907.11810,0.00253
4906.08785,0.00341
4905.05759,0.00383
4904.02733,0.00406
4902.99707,0.00335
4901.96682,0.00265
4900.93656,0.00307
4899.90630,0.00316
4898.87604,0.00264
4897.84578,0.00239
4896.81553,0.00261
4895.78527,0.00301
4894.75501,0.00365
4893.72475,0.00429
4892.69449,0.00425
4891.66424,0.00365
4890.63398,0.00352
4889.60372,0.00428
4888.57346,0.00438
4887.54321,0.00320
4886.51295,0.00269
4885.48269,0.00337
4884.45243,0.00370
4883.42217,0.00314
4882.39192,0.00258
4881.36166,0.00260
4880.33140,0.00261
4879.30114,0.00250
4878.27088,0.00295
4877.24063,0.00315
4876.21037,0.00247
4875.18011,0.00245
4874.14985,0.00338
4873.11960,0.00368
4872.08934,0.00288
4871.05908,0.00211
4870.02882,0.00245
4868.99856,0.00350
4867.96831,0.00436
4866.93805,0.00499
4865.90779,0.00567
4864.87753,0.00551
4863.84727,0.00390
4862.81702,0.00272
4861.78676,0.00278
4860.75650,0.00284
4859.72624,0.00251
4858.69599,0.00239
4857.66573,0.00301
4856.63547,0.00378
4855.60521,0.00341
4854.57495,0.00191
4853.54470,0.00067
4852.51444,0.00037
4851.48418,0.00127
4850.45392,0.00257
4849.42367,0.00278
4848.39341,0.00251
4847.36315,0.00264
4846.33289,0.00278
4845.30263,0.00320
4844.27238,0.00426
4843.24212,0.00480
4842.21186,0.00411
4841.18160,0.00330
4840.15134,0.00295
4839.12109,0.00275
4838.09083,0.00251
4837.06057,0.00198
4836.03031,0.00199
4835.00006,0.00305
4833.96980,0.00352
4832.93954,0.00299
4831.90928,0.00216
4830.87902,0.00199
4829.84877,0.00306
4828.81851,0.00308
4827.78825,0.00158
4826.75799,0.00080
4825.72773,0.00110
4824.69748,0.00199
4823.66722,0.00309
4822.63696,0.00370
4821.60670,0.00372
4820.57645,0.00375
4819.54619,0.00398
4818.51593,0.00412
4817.48567,0.00400
4816.45541,0.00366
4815.42516,0.00347
4814.39490,0.00331
4813.36464,0.00303
4812.33438,0.00289
4811.30412,0.00274
4810.27387,0.00272
4809.24361,0.00322
4808.21335,0.00363
4807.18309,0.00324
4806.15284,0.00269
4805.12258,0.00261
4804.09232,0.00259
4803.06206,0.00261
4802.03180,0.00302
4801.00155,0.00342
4799.97129,0.00341
4798.94103,0.00347
4797.91077,0.00390
4796.88052,0.00402
4795.85026,0.00362
4794.82000,0.00320
4793.78974,0.00273
4792.75948,0.00207
4791.72923,0.00178
4790.69897,0.00235
4789.66871,0.00295
4788.63845,0.00255
4787.60819,0.00180
4786.57794,0.00146
4785.54768,0.00104
4784.51742,0.00111
4783.48716,0.00219
4782.45691,0.00246
4781.42665,0.00194
4780.39639,0.00228
4779.36613,0.00287
4778.33587,0.00277
4777.30562,0.00227
4776.27536,0.00184
4775.24510,0.00145
4774.21484,0.00101
4773.18458,0.00133
4772.15433,0.00234
4771.12407,0.00253
4770.09381,0.00173
4769.06355,0.00105
4768.03330,0.00133
4767.00304,0.00201
4765.97278,0.00214
4764.94252,0.00221
4763.91226,0.00247
4762.88201,0.00219
4761.85175,0.00157
4760.82149,0.00147
4759.79123,0.00181
4758.76098,0.00201
4757.73072,0.00239
4756.70046,0.00366
4755.67020,0.00491
4754.63994,0.00513
4753.60969,0.00484
4752.57943,0.00430
4751.54917,0.00416
4750.51891,0.00494
4749.48865,0.00510
4748.45840,0.00359
4747.42814,0.00186
4746.39788,0.00138
4745.36762,0.00154
4744.33737,0.00168
4743.30711,0.00197
4742.27685,0.00213
4741.24659,0.00239
4740.21633,0.00302
4739.18608,0.00332
4738.15582,0.00293
4737.12556,0.00208
4736.09530,0.00137
4735.06504,0.00145
4734.03479,0.00208
4733.00453,0.00272
4731.97427,0.00338
4730.94401,0.00380
4729.91376,0.00345
4728.88350,0.00280
4727.85324,0.00262
4726.82298,0.00262
4725.79272,0.00238
4724.76247,0.00187
4723.73221,0.00097
4722.70195,0.00040
4721.67169,0.00077
4720.64143,0.00155
4719.61118,0.00229
4718.58092,0.00274
4717.55066,0.00279
4716.52040,0.00287
4715.49015,0.00324
4714.45989,0.00373
4713.42963,0.00410
4712.39937,0.00406
4711.36911,0.00359
4710.33886,0.00319
4709.30860,0.00309
4708.27834,0.00280
4707.24808,0.00248
4706.21783,0.00216
4705.18757,0.00181
4704.15731,0.00227
4703.12705,0.00286
4702.09679,0.00267
4701.06654,0.00239
4700.03628,0.00257
4699.00602,0.00277
4697.97576,0.00289
4696.94550,0.00306
4695.91525,0.00296
4694.88499,0.00282
4693.85473,0.00265
4692.82447,0.00219
4691.79422,0.00216
4690.76396,0.00250
4689.73370,0.00256
4688.70344,0.00260
4687.67318,0.00244
4686.64293,0.00227
4685.61267,0.00275
4684.58241,0.00279
4683.55215,0.00170
4682.52189,0.00079
4681.49164,0.00082
4680.46138,0.00105
4679.43112,0.00113
4678.40086,0.00163
4677.37061,0.00292
4676.34035,0.00390
4675.31009,0.00361
4674.27983,0.00272
4673.24957,0.00232
4672.21932,0.00298
4671.18906,0.00371
4670.15880,0.00345
4669.12854,0.00275
4668.09828,0.00231
4667.06803,0.00223
4666.03777,0.00264
4665.00751,0.00308
4663.97725,0.00299
4662.94700,0.00270
4661.91674,0.00242
4660.88648,0.00255
4659.85622,0.00327
4658.82596,0.00361
4657.79571,0.00292
4656.76545,0.00226
4655.73519,0.00241
4654.70493,0.00279
4653.67468,0.00276
4652.64442,0.00251
4651.61416,0.00231
4650.58390,0.00223
4649.55364,0.00277
4648.52339,0.00334
4647.49313,0.00309
4646.46287,0.00247
4645.43261,0.00205
4644.40235,0.00214
4643.37210,0.00217
4642.34184,0.00156
4641.31158,0.00128
4640.28132,0.00128
4639.25107,0.00126
4638.22081,0.00232
4637.19055,0.00368
4636.16029,0.00358
4635.13003,0.00264
4634.09978,0.00275
4633.06952,0.00357
4632.03926,0.00347
4631.00900,0.00235
4629.97874,0.00142
4628.94849,0.00164
4627.91823,0.00296
4626.88797,0.00453
4625.85771,0.00500
4624.82746,0.00423
4623.79720,0.00331
4622.76694,0.00306
4621.73668,0.00332
4620.70642,0.00318
4619.67617,0.00275
4618.64591,0.00245
4617.61565,0.00231
4616.58539,0.00260
4615.55513,0.00275
4614.52488,0.00214
4613.49462,0.00188
4612.46436,0.00242
4611.43410,0.00255
4610.40385,0.00218
4609.37359,0.00190
4608.34333,0.00171
4607.31307,0.00196
4606.28281,0.00226
4605.25256,0.00169
4604.22230,0.00099
4603.19204,0.00091
4602.16178,0.00115
4601.13153,0.00181
4600.10127,0.00296
4599.07101,0.00371
4598.04075,0.00335
4597.01049,0.00269
4595.98024,0.00238
4594.94998,0.00232
4593.91972,0.00251
4592.88946,0.00250
4591.85920,0.00224
4590.82895,0.00229
4589.79869,0.00250
4588.76843,0.00265
4587.73817,0.00288
4586.70792,0.00298
4585.67766,0.00257
4584.64740,0.00208
4583.61714,0.00194
4582.58688,0.00137
4581.55663,0.00039
4580.52637,0.00065
4579.49611,0.00193
4578.46585,0.00265
4577.43559,0.00305
4576.40534,0.00340
4575.37508,0.00322
4574.34482,0.00257
4573.31456,0.00192
4572.28431,0.00194
4571.25405,0.00276
4570.22379,0.00353
4569.19353,0.00350
4568.16327,0.00286
4567.13302,0.00218
4566.10276,0.00203
4565.07250,0.00216
4564.04224,0.00204
4563.01198,0.00200
4561.98173,0.00198
4560.95147,0.00173
4559.92121,0.00135
4558.89095,0.00112
4557.86070,0.00148
4556.83044,0.00224
4555.80018,0.00292
4554.76992,0.00339
4553.73966,0.00339
4552.70941,0.00283
4551.67915,0.00242
4550.64889,0.00224
4549.61863,0.00214
4548.58838,0.00244
4547.55812,0.00291
4546.52786,0.00304
4545.49760,0.00282
4544.46734,0.00260
4543.43709,0.00276
4542.40683,0.00331
4541.37657,0.00360
4540.34631,0.00326
4539.31605,0.00294
4538.28580,0.00312
4537.25554,0.00321
4536.22528,0.00264
4535.19502,0.00202
4534.16477,0.00184
4533.13451,0.00188
4532.10425,0.00215
4531.07399,0.00238
4530.04373,0.00199
4529.01348,0.00136
4527.98322,0.00145
4526.95296,0.00218
4525.92270,0.00274
4524.89244,0.00304
4523.86219,0.00302
4522.83193,0.00237
4521.80167,0.00181
4520.77141,0.00191
4519.74116,0.00237
4518.71090,0.00257
4517.68064,0.00202
4516.65038,0.00159
4515.62012,0.00174
4514.58987,0.00191
4513.55961,0.00258
4512.52935,0.00388
4511.49909,0.00447
4510.46883,0.00394
4509.43858,0.00328
4508.40832,0.00269
4507.37806,0.00253
4506.34780,0.00312
4505.31755,0.00320
4504.28729,0.00260
4503.25703,0.00249
4502.22677,0.00275
4501.19651,0.00245
4500.16626,0.00169
4499.13600,0.00121
4498.10574,0.00125
4497.07548,0.00160
4496.04523,0.00210
4495.01497,0.00250
4493.98471,0.00231
4492.95445,0.00182
4491.92419,0.00201
4490.89394,0.00267
4489.86368,0.00289
4488.83342,0.00288
4487.80316,0.00294
4486.77290,0.00254
4485.74265,0.00215
4484.71239,0.00271
4483.68213,0.00352
4482.65187,0.00367
4481.62162,0.00331
4480.59136,0.00227
4479.56110,0.00139
4478.53084,0.00195
4477.50058,0.00295
4476.47033,0.00306
4475.44007,0.00242
4474.40981,0.00156
4473.37955,0.00121
4472.34929,0.00158
4471.31904,0.00211
4470.28878,0.00254
4469.25852,0.00264
4468.22826,0.00226
4467.19801,0.00220
4466.16775,0.00293
4465.13749,0.00337
4464.10723,0.00302
4463.07697,0.00268
4462.04672,0.00258
4461.01646,0.00293
4459.98620,0.00357
4458.95594,0.00310
4457.92568,0.00176
4456.89543,0.00106
4455.86517,0.00112
4454.83491,0.00162
4453.80465,0.00223
4452.77440,0.00268
4451.74414,0.00300
4450.71388,0.00327
4449.68362,0.00335
4448.65336,0.00280
4447.62311,0.00221
4446.59285,0.00221
4445.56259,0.00239
4444.53233,0.00275
4443.50208,0.00302
4442.47182,0.00254
4441.44156,0.00204
4440.41130,0.00230
4439.38104,0.00264
4438.35079,0.00258
4437.32053,0.00252
4436.29027,0.00259
4435.26001,0.00261
4434.22975,0.00261
4433.19950,0.00248
4432.16924,0.00220
4431.13898,0.00246
4430.10872,0.00337
4429.07847,0.00368
4428.04821,0.00307
4427.01795,0.00264
4425.98769,0.00268
4424.95743,0.00277
4423.92718,0.00266
4422.89692,0.00243
4421.86666,0.00244
4420.83640,0.00292
4419.80614,0.00381
4418.77589,0.00428
4417.74563,0.00417
4416.71537,0.00410
4415.68511,0.00393
4414.65486,0.00354
4413.62460,0.00286
4412.59434,0.00241
4411.56408,0.00265
4410.53382,0.00258
4409.50357,0.00216
4408.47331,0.00252
4407.44305,0.00334
4406.41279,0.00348
4405.38253,0.00284
4404.35228,0.00226
4403.32202,0.00225
4402.29176,0.00253
4401.26150,0.00273
4400.23125,0.00263
4399.20099,0.00246
4398.17073,0.00242
4397.14047,0.00228
4396.11021,0.00208
4395.07996,0.00195
4394.04970,0.00210
4393.01944,0.00256
4391.98918,0.00287
4390.95893,0.00258
4389.92867,0.00169
4388.89841,0.00121
4387.86815,0.00181
4386.83789,0.00231
4385.80764,0.00220
4384.77738,0.00237
4383.74712,0.00248
4382.71686,0.00189
4381.68660,0.00163
4380.65635,0.00219
4379.62609,0.00266
4378.59583,0.00259
4377.56557,0.00234
4376.53532,0.00200
4375.50506,0.00175
4374.47480,0.00202
4373.44454,0.00268
4372.41428,0.00303
4371.38403,0.00271
4370.35377,0.00232
4369.32351,0.00198
4368.29325,0.00179
4367.26299,0.00226
4366.23274,0.00308
4365.20248,0.00335
4364.17222,0.00297
4363.14196,0.00275
4362.11171,0.00278
4361.08145,0.00281
4360.05119,0.00288
4359.02093,0.00301
4357.99067,0.00330
4356.96042,0.00357
4355.93016,0.00353
4354.89990,0.00309
4353.86964,0.00239
4352.83939,0.00177
4351.80913,0.00173
4350.77887,0.00259
4349.74861,0.00352
4348.71835,0.00339
4347.68810,0.00261
4346.65784,0.00212
4345.62758,0.00195
4344.59732,0.00224
4343.56706,0.00318
4342.53681,0.00398
4341.50655,0.00376
4340.47629,0.00284
4339.44603,0.00213
4338.41578,0.00213
4337.38552,0.00258
4336.35526,0.00287
4335.32500,0.00323
4334.29474,0.00380
4333.26449,0.00388
4332.23423,0.00380
4331.20397,0.00368
4330.17371,0.00285
4329.14345,0.00213
4328.11320,0.00266
4327.08294,0.00337
4326.05268,0.00279
4325.02242,0.00189
4323.99217,0.00178
4322.96191,0.00198
4321.93165,0.00242
4320.90139,0.00316
4319.87113,0.00329
4318.84088,0.00264
4317.81062,0.00227
4316.78036,0.00241
4315.75010,0.00235
4314.71984,0.00200
4313.68959,0.00201
4312.65933,0.00244
4311.62907,0.00261
4310.59881,0.00248
4309.56856,0.00239
4308.53830,0.00248
4307.50804,0.00260
4306.47778,0.00250
4305.44752,0.00239
4304.41727,0.00244
4303.38701,0.00256
4302.35675,0.00287
4301.32649,0.00322
4300.29624,0.00317
4299.26598,0.00263
4298.23572,0.00210
4297.20546,0.00218
4296.17520,0.00261
4295.14495,0.00307
4294.11469,0.00333
4293.08443,0.00282
4292.05417,0.00240
4291.02391,0.00277
4289.99366,0.00278
4288.96340,0.00231
4287.93314,0.00211
4286.90288,0.00244
4285.87263,0.00293
4284.84237,0.00299
4283.81211,0.00310
4282.78185,0.00366
4281.75159,0.00407
4280.72134,0.00382
4279.69108,0.00295
4278.66082,0.00225
4277.63056,0.00218
4276.60030,0.00215
4275.57005,0.00209
4274.53979,0.00212
4273.50953,0.00190
4272.47927,0.00211
4271.44902,0.00318
4270.41876,0.00390
4269.38850,0.00365
4268.35824,0.00315
4267.32798,0.00300
4266.29773,0.00299
4265.26747,0.00278
4264.23721,0.00279
4263.20695,0.00332
4262.17669,0.00374
4261.14644,0.00364
4260.11618,0.00321
4259.08592,0.00284
4258.05566,0.00280
4257.02541,0.00295
4255.99515,0.00326
4254.96489,0.00352
4253.93463,0.00321
4252.90437,0.00274
4251.87412,0.00276
4250.84386,0.00306
4249.81360,0.00310
4248.78334,0.00266
4247.75309,0.00234
4246.72283,0.00271
4245.69257,0.00297
4244.66231,0.00287
4243.63205,0.00320
4242.60180,0.00369
4241.57154,0.00362
4240.54128,0.00323
4239.51102,0.00287
4238.48076,0.00263
4237.45051,0.00271
4236.42025,0.00273
4235.38999,0.00239
4234.35973,0.00229
4233.32948,0.00269
4232.29922,0.00309
4231.26896,0.00305
4230.23870,0.00287
4229.20844,0.00310
4228.17819,0.00354
4227.14793,0.00384
4226.11767,0.00392
4225.08741,0.00353
4224.05715,0.00329
4223.02690,0.00359
4221.99664,0.00357
4220.96638,0.00295
4219.93612,0.00290
4218.90587,0.00381
4217.87561,0.00405
4216.84535,0.00313
4215.81509,0.00256
4214.78483,0.00273
4213.75458,0.00307
4212.72432,0.00334
4211.69406,0.00352
4210.66380,0.00338
4209.63354,0.00299
4208.60329,0.00282
4207.57303,0.00289
4206.54277,0.00280
4205.51251,0.00237
4204.48226,0.00199
4203.45200,0.00199
4202.42174,0.00256
4201.39148,0.00333
4200.36122,0.00348
4199.33097,0.00299
4198.30071,0.00246
4197.27045,0.00219
4196.24019,0.00211
4195.20994,0.00210
4194.17968,0.00231
4193.14942,0.00263
4192.11916,0.00260
4191.08890,0.00274
4190.05865,0.00312
4189.02839,0.00302
4187.99813,0.00294
4186.96787,0.00310
4185.93761,0.00308
4184.90736,0.00324
4183.87710,0.00379
4182.84684,0.00412
4181.81658,0.00390
4180.78633,0.00345
4179.75607,0.00326
4178.72581,0.00344
4177.69555,0.00369
4176.66529,0.00380
4175.63504,0.00360
4174.60478,0.00319
4173.57452,0.00323
4172.54426,0.00372
4171.51400,0.00393
4170.48375,0.00361
4169.45349,0.00311
4168.42323,0.00282
4167.39297,0.00252
4166.36272,0.00224
4165.33246,0.00242
4164.30220,0.00286
4163.27194,0.00310
4162.24168,0.00319
4161.21143,0.00329
4160.18117,0.00327
4159.15091,0.00341
4158.12065,0.00380
4157.09039,0.00413
4156.06014,0.00439
4155.02988,0.00441
4153.99962,0.00428
4152.96936,0.00411
4151.93911,0.00386
4150.90885,0.00377
4149.87859,0.00365
4148.84833,0.00341
4147.81807,0.00344
4146.78782,0.00378
4145.75756,0.00417
4144.72730,0.00393
4143.69704,0.00320
4142.66679,0.00284
4141.63653,0.00298
4140.60627,0.00324
4139.57601,0.00331
4138.54575,0.00310
4137.51550,0.00312
4136.48524,0.00347
4135.45498,0.00362
4134.42472,0.00350
4133.39446,0.00345
4132.36421,0.00357
4131.33395,0.00370
4130.30369,0.00395
4129.27343,0.00423
4128.24318,0.00395
4127.21292,0.00332
4126.18266,0.00320
4125.15240,0.00365
4124.12214,0.00380
4123.09189,0.00343
4122.06163,0.00322
4121.03137,0.00340
4120.00111,0.00366
4118.97085,0.00367
4117.94060,0.00335
4116.91034,0.00322
4115.88008,0.00356
4114.84982,0.00379
4113.81957,0.00349
4112.78931,0.00318
4111.75905,0.00337
4110.72879,0.00386
4109.69853,0.00410
4108.66828,0.00405
4107.63802,0.00400
4106.60776,0.00401
4105.57750,0.00425
4104.54724,0.00441
4103.51699,0.00382
4102.48673,0.00306
4101.45647,0.00324
4100.42621,0.00378
4099.39596,0.00386
4098.36570,0.00372
4097.33544,0.00358
4096.30518,0.00366
4095.27492,0.00394
4094.24467,0.00386
4093.21441,0.00339
4092.18415,0.00325
4091.15389,0.00348
4090.12364,0.00372
4089.09338,0.00386
4088.06312,0.00366
4087.03286,0.00336
4086.00260,0.00343
4084.97235,0.00391
4083.94209,0.00442
4082.91183,0.00438
4081.88157,0.00407
4080.85131,0.00406
4079.82106,0.00418
4078.79080,0.00429
4077.76054,0.00420
4076.73028,0.00370
4075.70003,0.00311
4074.66977,0.00289
4073.63951,0.00316
4072.60925,0.00363
4071.57899,0.00390
4070.54874,0.00386
4069.51848,0.00368
4068.48822,0.00363
4067.45796,0.00372
4066.42770,0.00397
4065.39745,0.00410
4064.36719,0.00402
4063.33693,0.00422
4062.30667,0.00429
4061.27642,0.00408
4060.24616,0.00412
4059.21590,0.00416
4058.18564,0.00401
4057.15538,0.00415
4056.12513,0.00456
4055.09487,0.00456
4054.06461,0.00411
4053.03435,0.00389
4052.00409,0.00418
4050.97384,0.00450
4049.94358,0.00421
4048.91332,0.00382
4047.88306,0.00390
4046.85281,0.00407
4045.82255,0.00425
4044.79229,0.00455
4043.76203,0.00465
4042.73177,0.00414
4041.70152,0.00330
4040.67126,0.00320
4039.64100,0.00366
4038.61074,0.00382
4037.58049,0.00393
4036.55023,0.00416
4035.51997,0.00410
4034.48971,0.00384
4033.45945,0.00384
4032.42920,0.00409
4031.39894,0.00427
4030.36868,0.00427
4029.33842,0.00411
4028.30816,0.00377
4027.27791,0.00350
4026.24765,0.00351
4025.21739,0.00375
4024.18713,0.00384
4023.15688,0.00388
4022.12662,0.00410
4021.09636,0.00412
4020.06610,0.00403
4019.03584,0.00421
4018.00559,0.00439
4016.97533,0.00444
4015.94507,0.00455
4014.91481,0.00470
4013.88455,0.00473
4012.85430,0.00464
4011.82404,0.00455
4010.79378,0.00447
4009.76352,0.00445
4008.73327,0.00443
4007.70301,0.00422
4006.67275,0.00396
4005.64249,0.00412
4004.61223,0.00464
4003.58198,0.00476
4002.55172,0.00428
4001.52146,0.00408
4000.49120,0.00439
3999.46095,0.00460
3998.43069,0.00441
3997.40043,0.00422
3996.37017,0.00447
3995.33991,0.00479
3994.30966,0.00482
3993.27940,0.00460
3992.24914,0.00439
3991.21888,0.00429
3990.18862,0.00431
3989.15837,0.00436
3988.12811,0.00418
3987.09785,0.00401
3986.06759,0.00420
3985.03734,0.00438
3984.00708,0.00437
3982.97682,0.00433
3981.94656,0.00415
3980.91630,0.00391
3979.88605,0.00393
3978.85579,0.00436
3977.82553,0.00488
3976.79527,0.00501
3975.76501,0.00477
3974.73476,0.00442
3973.70450,0.00421
3972.67424,0.00400
3971.64398,0.00381
3970.61373,0.00425
3969.58347,0.00490
3968.55321,0.00497
3967.52295,0.00479
3966.49269,0.00467
3965.46244,0.00429
3964.43218,0.00401
3963.40192,0.00446
3962.37166,0.00496
3961.34140,0.00500
3960.31115,0.00477
3959.28089,0.00439
3958.25063,0.00418
3957.22037,0.00431
3956.19012,0.00438
3955.15986,0.00422
3954.12960,0.00436
3953.09934,0.00500
3952.06908,0.00551
3951.03883,0.00512
3950.00857,0.00444
3948.97831,0.00445
3947.94805,0.00477
3946.91780,0.00491
3945.88754,0.00500
3944.85728,0.00489
3943.82702,0.00470
3942.79676,0.00463
3941.76651,0.00468
3940.73625,0.00465
3939.70599,0.00437
3938.67573,0.00405
3937.64547,0.00373
3936.61522,0.00363
3935.58496,0.00393
3934.55470,0.00408
3933.52444,0.00386
3932.49419,0.00393
3931.46393,0.00455
3930.43367,0.00500
3929.40341,0.00482
3928.37315,0.00456
3927.34290,0.00464
3926.31264,0.00471
3925.28238,0.00453
3924.25212,0.00444
3923.22186,0.00463
3922.19161,0.00468
3921.16135,0.00463
3920.13109,0.00483
3919.10083,0.00482
3918.07058,0.00461
3917.04032,0.00454
3916.01006,0.00434
3914.97980,0.00433
3913.94954,0.00456
3912.91929,0.00460
3911.88903,0.00452
3910.85877,0.00433
3909.82851,0.00423
3908.79825,0.00453
3907.76800,0.00475
3906.73774,0.00449
3905.70748,0.00418
3904.67722,0.00384
3903.64697,0.00368
3902.61671,0.00437
3901.58645,0.00513
3900.55619,0.00510
3899.52593,0.00491
3898.49568,0.00478
3897.46542,0.00443
3896.43516,0.00422
3895.40490,0.00438
3894.37465,0.00449
3893.34439,0.00425
3892.31413,0.00357
3891.28387,0.00285
3890.25361,0.00302
3889.22336,0.00342
3888.19310,0.00366
3887.16284,0.00428
3886.13258,0.00490
3885.10232,0.00494
3884.07207,0.00468
3883.04181,0.00433
3882.01155,0.00434
3880.98129,0.00466
3879.95104,0.00465
3878.92078,0.00434
3877.89052,0.00416
3876.86026,0.00439
3875.83000,0.00488
3874.79975,0.00500
3873.76949,0.00455
3872.73923,0.00417
3871.70897,0.00416
3870.67871,0.00422
3869.64846,0.00423
3868.61820,0.00450
3867.58794,0.00470
3866.55768,0.00429
3865.52743,0.00354
3864.49717,0.00352
3863.46691,0.00409
3862.43665,0.00416
3861.40639,0.00390
3860.37614,0.00364
3859.34588,0.00346
3858.31562,0.00374
3857.28536,0.00426
3856.25510,0.00429
3855.22485,0.00413
3854.19459,0.00451
3853.16433,0.00484
3852.13407,0.00475
3851.10382,0.00453
3850.07356,0.00397
3849.04330,0.00376
3848.01304,0.00430
3846.98278,0.00477
3845.95253,0.00485
3844.92227,0.00485
3843.89201,0.00493
3842.86175,0.00507
3841.83150,0.00510
3840.80124,0.00446
3839.77098,0.00354
3838.74072,0.00366
3837.71046,0.00445
3836.68021,0.00471
3835.64995,0.00485
3834.61969,0.00516
3833.58943,0.00494
3832.55917,0.00420
3831.52892,0.00381
3830.49866,0.00409
3829.46840,0.00449
3828.43814,0.00471
3827.40789,0.00467
3826.37763,0.00446
3825.34737,0.00431
3824.31711,0.00424
3823.28685,0.00412
3822.25660,0.00400
3821.22634,0.00441
3820.19608,0.00507
3819.16582,0.00513
3818.13556,0.00504
3817.10531,0.00501
3816.07505,0.00498
3815.04479,0.00499
3814.01453,0.00484
3812.98428,0.00490
3811.95402,0.00534
3810.92376,0.00548
3809.89350,0.00517
3808.86324,0.00508
3807.83299,0.00518
3806.80273,0.00482
3805.77247,0.00436
3804.74221,0.00452
3803.71195,0.00501
3802.68170,0.00534
3801.65144,0.00510
3800.62118,0.00452
3799.59092,0.00463
3798.56067,0.00529
3797.53041,0.00548
3796.50015,0.00519
3795.46989,0.00520
3794.43963,0.00524
3793.40938,0.00519
3792.37912,0.00514
3791.34886,0.00510
3790.31860,0.00527
3789.28835,0.00543
3788.25809,0.00522
3787.22783,0.00501
3786.19757,0.00507
3785.16731,0.00517
3784.13706,0.00509
3783.10680,0.00504
3782.07654,0.00530
3781.04628,0.00585
3780.01602,0.00636
3778.98577,0.00635
3777.95551,0.00606
3776.92525,0.00588
3775.89499,0.00569
3774.86474,0.00582
3773.83448,0.00617
3772.80422,0.00613
3771.77396,0.00570
3770.74370,0.00520
3769.71345,0.00512
3768.68319,0.00553
3767.65293,0.00576
3766.62267,0.00573
3765.59241,0.00531
3764.56216,0.00471
3763.53190,0.00507
3762.50164,0.00625
3761.47138,0.00703
3760.44113,0.00710
3759.41087,0.00691
3758.38061,0.00670
3757.35035,0.00637
3756.32009,0.00609
3755.28984,0.00608
3754.25958,0.00612
3753.22932,0.00608
3752.19906,0.00622
3751.16880,0.00686
3750.13855,0.00737
3749.10829,0.00697
3748.07803,0.00631
3747.04777,0.00615
3746.01752,0.00647
3744.98726,0.00732
3743.95700,0.00731
3742.92674,0.00648
3741.89648,0.00652
3740.86623,0.00714
3739.83597,0.00761
3738.80571,0.00778
3737.77545,0.00786
3736.74520,0.00811
3735.71494,0.00814
3734.68468,0.00768
3733.65442,0.00800
3732.62416,0.00880
3731.59391,0.00866
3730.56365,0.00817
3729.53339,0.00828
3728.50313,0.00849
3727.47287,0.00845
3726.44262,0.00867
3725.41236,0.00906
3724.38210,0.00880
3723.35184,0.00823
3722.32159,0.00809
3721.29133,0.00848
3720.26107,0.00894
3719.23081,0.00922
3718.20055,0.00940
3717.17030,0.00958
3716.14004,0.00984
3715.10978,0.01033
3714.07952,0.01109
3713.04926,0.01153
3712.01901,0.01107
3710.98875,0.01071
3709.95849,0.01124
3708.92823,0.01168
3707.89798,0.01147
3706.86772,0.01149
3705.83746,0.01204
3704.80720,0.01237
3703.77694,0.01233
3702.74669,0.01265
3701.71643,0.01327
3700.68617,0.01322
3699.65591,0.01282
3698.62565,0.01288
3697.59540,0.01344
3696.56514,0.01422
3695.53488,0.01493
3694.50462,0.01516
3693.47437,0.01526
3692.44411,0.01553
3691.41385,0.01582
3690.38359,0.01648
3689.35333,0.01698
3688.32308,0.01694
3687.29282,0.01762
3686.26256,0.01871
3685.23230,0.01948
3684.20205,0.02017
3683.17179,0.02077
3682.14153,0.02092
3681.11127,0.02102
3680.08101,0.02174
3679.05076,0.02252
3678.02050,0.02330
3676.99024,0.02453
3675.95998,0.02554
3674.92972,0.02588
3673.89947,0.02656
3672.86921,0.02753
3671.83895,0.02806
3670.80869,0.02840
3669.77844,0.02944
3668.74818,0.03087
3667.71792,0.03179
3666.68766,0.03222
3665.65740,0.03270
3664.62715,0.03336
3663.59689,0.03425
3662.56663,0.03535
3661.53637,0.03636
3660.50611,0.03737
3659.47586,0.03841
3658.44560,0.03923
3657.41534,0.03989
3656.38508,0.04074
3655.35483,0.04179
3654.32457,0.04287
3653.29431,0.04398
3652.26405,0.04492
3651.23379,0.04565
3650.20354,0.04633
3649.17328,0.04726
3648.14302,0.04855
3647.11276,0.05003
3646.08250,0.05146
3645.05225,0.05236
3644.02199,0.05259
3642.99173,0.05272
3641.96147,0.05335
3640.93122,0.05453
3639.90096,0.05589
3638.87070,0.05689
3637.84044,0.05752
3636.81018,0.05856
3635.77993,0.05991
3634.74967,0.06095
3633.71941,0.06195
3632.68915,0.06292
3631.65890,0.06358
3630.62864,0.06420
3629.59838,0.06510
3628.56812,0.06604
3627.53786,0.06689
3626.50761,0.06767
3625.47735,0.06812
3624.44709,0.06882
3623.41683,0.06986
3622.38657,0.07074
3621.35632,0.07158
3620.32606,0.07223
3619.29580,0.07240
3618.26554,0.07305
3617.23529,0.07473
3616.20503,0.07622
3615.17477,0.07675
3614.14451,0.07693
3613.11425,0.07783
3612.08400,0.07915
3611.05374,0.08003
3610.02348,0.08042
3608.99322,0.08063
3607.96296,0.08137
3606.93271,0.08266
3605.90245,0.08361
3604.87219,0.08397
3603.84193,0.08448
3602.81168,0.08546
3601.78142,0.08647
3600.75116,0.08738
3599.72090,0.08856
3598.69064,0.08953
3597.66039,0.09003
3596.63013,0.09081
3595.59987,0.09214
3594.56961,0.09349
3593.53936,0.09430
3592.50910,0.09493
3591.47884,0.09596
3590.44858,0.09704
3589.41832,0.09796
3588.38807,0.09890
3587.35781,0.09985
3586.32755,0.10074
3585.29729,0.10131
3584.26703,0.10193
3583.23678,0.10330
3582.20652,0.10493
3581.17626,0.10587
3580.14600,0.10606
3579.11575,0.10626
3578.08549,0.10714
3577.05523,0.10866
3576.02497,0.11012
3574.99471,0.11064
3573.96446,0.11065
3572.93420,0.11156
3571.90394,0.11335
3570.87368,0.11504
3569.84342,0.11632
3568.81317,0.11729
3567.78291,0.11805
3566.75265,0.11923
3565.72239,0.12052
3564.69214,0.12112
3563.66188,0.12168
3562.63162,0.12263
3561.60136,0.12371
3560.57110,0.12489
3559.54085,0.12635
3558.51059,0.12767
3557.48033,0.12825
3556.45007,0.12878
3555.41981,0.12991
3554.38956,0.13081
3553.35930,0.13123
3552.32904,0.13181
3551.29878,0.13276
3550.26853,0.13395
3549.23827,0.13516
3548.20801,0.13651
3547.17775,0.13817
3546.14749,0.13972
3545.11724,0.14049
3544.08698,0.14082
3543.05672,0.14157
3542.02646,0.14280
3540.99621,0.14417
3539.96595,0.14547
3538.93569,0.14697
3537.90543,0.14862
3536.87517,0.14993
3535.84492,0.15091
3534.81466,0.15189
3533.78440,0.15282
3532.75414,0.15360
3531.72388,0.15420
3530.69363,0.15488
3529.66337,0.15622
3528.63311,0.15827
3527.60285,0.16006
3526.57260,0.16084
3525.54234,0.16150
3524.51208,0.16265
3523.48182,0.16376
3522.45156,0.16456
3521.42131,0.16540
3520.39105,0.16674
3519.36079,0.16848
3518.33053,0.17011
3517.30027,0.17143
3516.27002,0.17226
3515.23976,0.17281
3514.20950,0.17393
3513.17924,0.17566
3512.14899,0.17703
3511.11873,0.17776
3510.08847,0.17854
3509.05821,0.17976
3508.02795,0.18107
3506.99770,0.18215
3505.96744,0.18304
3504.93718,0.18435
3503.90692,0.18624
3502.87666,0.18792
3501.84641,0.18905
3500.81615,0.18996
3499.78589,0.19092
3498.75563,0.19180
3497.72538,0.19264
3496.69512,0.19383
3495.66486,0.19542
3494.63460,0.19678
3493.60434,0.19779
3492.57409,0.19878
3491.54383,0.19972
3490.51357,0.20099
3489.48331,0.20279
3488.45306,0.20446
3487.42280,0.20558
3486.39254,0.20638
3485.36228,0.20696
3484.33202,0.20772
3483.30177,0.20937
3482.27151,0.21114
3481.24125,0.21191
3480.21099,0.21282
3479.18073,0.21455
3478.15048,0.21606
3477.12022,0.21724
3476.08996,0.21859
3475.05970,0.22002
3474.02945,0.22108
3472.99919,0.22190
3471.96893,0.22302
3470.93867,0.22439
3469.90841,0.22545
3468.87816,0.22600
3467.84790,0.22682
3466.81764,0.22856
3465.78738,0.23046
3464.75712,0.23181
3463.72687,0.23301
3462.69661,0.23411
3461.66635,0.23488
3460.63609,0.23602
3459.60584,0.23809
3458.57558,0.24039
3457.54532,0.24196
3456.51506,0.24282
3455.48480,0.24354
3454.45455,0.24462
3453.42429,0.24581
3452.39403,0.24690
3451.36377,0.24842
3450.33351,0.24998
3449.30326,0.25114
3448.27300,0.25243
3447.24274,0.25381
3446.21248,0.25506
3445.18223,0.25634
3444.15197,0.25770
3443.12171,0.25888
3442.09145,0.26002
3441.06119,0.26126
3440.03094,0.26209
3439.00068,0.26281
3437.97042,0.26394
3436.94016,0.26517
3435.90991,0.26643
3434.87965,0.26779
3433.84939,0.26917
3432.81913,0.27076
3431.78887,0.27240
3430.75862,0.27355
3429.72836,0.27472
3428.69810,0.27621
3427.66784,0.27742
3426.63758,0.27839
3425.60733,0.27975
3424.57707,0.28148
3423.54681,0.28275
3422.51655,0.28356
3421.48630,0.28456
3420.45604,0.28579
3419.42578,0.28734
3418.39552,0.28893
3417.36526,0.29007
3416.33501,0.29108
3415.30475,0.29237
3414.27449,0.29360
3413.24423,0.29472
3412.21397,0.29600
3411.18372,0.29702
3410.15346,0.29803
3409.12320,0.29932
3408.09294,0.30034
3407.06269,0.30132
3406.03243,0.30242
3405.00217,0.30366
3403.97191,0.30501
3402.94165,0.30557
3401.91140,0.30541
3400.88114,0.30590
3399.85088,0.30715
3398.82062,0.30864
3397.79036,0.31036
3396.76011,0.31178
3395.72985,0.31248
3394.69959,0.31305
3393.66933,0.31377
3392.63908,0.31427
3391.60882,0.31456
3390.57856,0.31509
3389.54830,0.31616
3388.51804,0.31751
3387.48779,0.31866
3386.45753,0.31930
3385.42727,0.31965
3384.39701,0.32043
3383.36676,0.32178
3382.33650,0.32272
3381.30624,0.32293
3380.27598,0.32338
3379.24572,0.32440
3378.21547,0.32545
3377.18521,0.32592
3376.15495,0.32616
3375.12469,0.32723
3374.09443,0.32901
3373.06418,0.33030
3372.03392,0.33017
3371.00366,0.32937
3369.97340,0.32906
3368.94315,0.32921
3367.91289,0.32959
3366.88263,0.33043
3365.85237,0.33174
3364.82211,0.33304
3363.79186,0.33381
3362.76160,0.33433
3361.73134,0.33499
3360.70108,0.33567
3359.67082,0.33615
3358.64057,0.33642
3357.61031,0.33682
3356.58005,0.33716
3355.54979,0.33734
3354.51954,0.33772
3353.48928,0.33776
3352.45902,0.33734
3351.42876,0.33722
3350.39850,0.33759
3349.36825,0.33787
3348.33799,0.33778
3347.30773,0.33810
3346.27747,0.33899
3345.24721,0.33968
3344.21696,0.33998
3343.18670,0.34012
3342.15644,0.33990
3341.12618,0.33944
3340.09593,0.33944
3339.06567,0.33980
3338.03541,0.34005
3337.00515,0.34024
3335.97489,0.34080
3334.94464,0.34151
3333.91438,0.34171
3332.88412,0.34186
3331.85386,0.34238
3330.82361,0.34233
3329.79335,0.34138
3328.76309,0.34105
3327.73283,0.34157
3326.70257,0.34153
3325.67232,0.34124
3324.64206,0.34132
3323.61180,0.34149
3322.58154,0.34204
3321.55128,0.34297
3320.52103,0.34374
3319.49077,0.34367
3318.46051,0.34309
3317.43025,0.34307
3316.40000,0.34325
3315.36974,0.34334
3314.33948,0.34381
3313.30922,0.34426
3312.27896,0.34426
3311.24871,0.34416
3310.21845,0.34390
3309.18819,0.34322
3308.15793,0.34264
3307.12767,0.34232
3306.09742,0.34212
3305.06716,0.34266
3304.03690,0.34357
3303.00664,0.34316
3301.97639,0.34190
3300.94613,0.34176
3299.91587,0.34272
3298.88561,0.34346
3297.85535,0.34328
3296.82510,0.34303
3295.79484,0.34351
3294.76458,0.34385
3293.73432,0.34387
3292.70406,0.34403
3291.67381,0.34391
3290.64355,0.34396
3289.61329,0.34443
3288.58303,0.34471
3287.55278,0.34529
3286.52252,0.34627
3285.49226,0.34666
3284.46200,0.34601
3283.43174,0.34459
3282.40149,0.34320
3281.37123,0.34299
3280.34097,0.34395
3279.31071,0.34487
3278.28046,0.34524
3277.25020,0.34519
3276.21994,0.34504
3275.18968,0.34554
3274.15942,0.34622
3273.12917,0.34557
3272.09891,0.34427
3271.06865,0.34430
3270.03839,0.34538
3269.00813,0.34621
3267.97788,0.34619
3266.94762,0.34567
3265.91736,0.34555
3264.88710,0.34593
3263.85685,0.34596
3262.82659,0.34522
3261.79633,0.34406
3260.76607,0.34360
3259.73581,0.34460
3258.70556,0.34574
3257.67530,0.34546
3256.64504,0.34495
3255.61478,0.34543
3254.58452,0.34545
3253.55427,0.34463
3252.52401,0.34452
3251.49375,0.34496
3250.46349,0.34479
3249.43324,0.34416
3248.40298,0.34391
3247.37272,0.34392
3246.34246,0.34337
3245.31220,0.34274
3244.28195,0.34269
3243.25169,0.34283
3242.22143,0.34279
3241.19117,0.34239
3240.16092,0.34202
3239.13066,0.34212
3238.10040,0.34227
3237.07014,0.34208
3236.03988,0.34180
3235.00963,0.34137
3233.97937,0.34062
3232.94911,0.33969
3231.91885,0.33895
3230.88859,0.33868
3229.85834,0.33880
3228.82808,0.33883
3227.79782,0.33865
3226.76756,0.33847
3225.73731,0.33785
3224.70705,0.33685
3223.67679,0.33640
3222.64653,0.33623
3221.61627,0.33546
3220.58602,0.33431
3219.55576,0.33346
3218.52550,0.33316
3217.49524,0.33261
3216.46498,0.33139
3215.43473,0.33031
3214.40447,0.32951
3213.37421,0.32855
3212.34395,0.32778
3211.31370,0.32736
3210.28344,0.32694
3209.25318,0.32642
3208.22292,0.32553
3207.19266,0.32430
3206.16241,0.32349
3205.13215,0.32293
3204.10189,0.32238
3203.07163,0.32169
3202.04137,0.32024
3201.01112,0.31835
3199.98086,0.31722
3198.95060,0.31703
3197.92034,0.31676
3196.89009,0.31567
3195.85983,0.31438
3194.82957,0.31329
3193.79931,0.31178
3192.76905,0.31004
3191.73880,0.30896
3190.70854,0.30839
3189.67828,0.30747
3188.64802,0.30601
3187.61777,0.30455
3186.58751,0.30338
3185.55725,0.30253
3184.52699,0.30169
3183.49673,0.30034
3182.46648,0.29857
3181.43622,0.29701
3180.40596,0.29554
3179.37570,0.29393
3178.34544,0.29273
3177.31519,0.29195
3176.28493,0.29086
3175.25467,0.28957
3174.22441,0.28855
3173.19416,0.28765
3172.16390,0.28686
3171.13364,0.28560
3170.10338,0.28359
3169.07312,0.28177
3168.04287,0.28019
3167.01261,0.27856
3165.98235,0.27723
3164.95209,0.27608
3163.92183,0.27481
3162.89158,0.27346
3161.86132,0.27208
3160.83106,0.27041
3159.80080,0.26852
3158.77055,0.26729
3157.74029,0.26673
3156.71003,0.26571
3155.67977,0.26421
3154.64951,0.26289
3153.61926,0.26157
3152.58900,0.26002
3151.55874,0.25831
3150.52848,0.25654
3149.49822,0.25510
3148.46797,0.25404
3147.43771,0.25302
3146.40745,0.25183
3145.37719,0.25069
3144.34694,0.24936
3143.31668,0.24740
3142.28642,0.24529
3141.25616,0.24354
3140.22590,0.24193
3139.19565,0.24045
3138.16539,0.23950
3137.13513,0.23870
3136.10487,0.23732
3135.07462,0.23543
3134.04436,0.23322
3133.01410,0.23115
3131.98384,0.22993
3130.95358,0.22918
3129.92333,0.22774
3128.89307,0.22601
3127.86281,0.22476
3126.83255,0.22350
3125.80229,0.22223
3124.77204,0.22101
3123.74178,0.21940
3122.71152,0.21740
3121.68126,0.21543
3120.65101,0.21398
3119.62075,0.21306
3118.59049,0.21223
3117.56023,0.21095
3116.52997,0.20899
3115.49972,0.20708
3114.46946,0.20580
3113.43920,0.20472
3112.40894,0.20347
3111.37868,0.20206
3110.34843,0.20064
3109.31817,0.19923
3108.28791,0.19803
3107.25765,0.19709
3106.22740,0.19591
3105.19714,0.19446
3104.16688,0.19334
3103.13662,0.19280
3102.10636,0.19201
3101.07611,0.19036
3100.04585,0.18824
3099.01559,0.18633
3097.98533,0.18504
3096.95507,0.18411
3095.92482,0.18309
3094.89456,0.18167
3093.86430,0.18017
3092.83404,0.17900
3091.80379,0.17771
3090.77353,0.17630
3089.74327,0.17541
3088.71301,0.17426
3087.68275,0.17242
3086.65250,0.17109
3085.62224,0.17032
3084.59198,0.16918
3083.56172,0.16766
3082.53147,0.16650
3081.50121,0.16567
3080.47095,0.16452
3079.44069,0.16332
3078.41043,0.16238
3077.38018,0.16134
3076.34992,0.16007
3075.31966,0.15873
3074.28940,0.15750
3073.25914,0.15641
3072.22889,0.15535
3071.19863,0.15415
3070.16837,0.15264
3069.13811,0.15115
3068.10786,0.15019
3067.07760,0.14947
3066.04734,0.14863
3065.01708,0.14778
3063.98682,0.14688
3062.95657,0.14554
3061.92631,0.14392
3060.89605,0.14290
3059.86579,0.14245
3058.83553,0.14180
3057.80528,0.14074
3056.77502,0.13949
3055.74476,0.13820
3054.71450,0.13698
3053.68425,0.13595
3052.65399,0.13508
3051.62373,0.13428
3050.59347,0.13368
3049.56321,0.13301
3048.53296,0.13196
3047.50270,0.13085
3046.47244,0.13007
3045.44218,0.12940
3044.41192,0.12853
3043.38167,0.12747
3042.35141,0.12630
3041.32115,0.12499
3040.29089,0.12402
3039.26064,0.12379
3038.23038,0.12375
3037.20012,0.12292
3036.16986,0.12136
3035.13960,0.12000
3034.10935,0.11911
3033.07909,0.11859
3032.04883,0.11819
3031.01857,0.11729
3029.98832,0.11614
3028.95806,0.11533
3027.92780,0.11461
3026.89754,0.11374
3025.86728,0.11305
3024.83703,0.11252
3023.80677,0.11165
3022.77651,0.11047
3021.74625,0.10950
3020.71599,0.10867
3019.68574,0.10776
3018.65548,0.10682
3017.62522,0.10590
3016.59496,0.10509
3015.56471,0.10412
3014.53445,0.10292
3013.50419,0.10200
3012.47393,0.10133
3011.44367,0.10048
3010.41342,0.09999
3009.38316,0.09993
3008.35290,0.09942
3007.32264,0.09856
3006.29238,0.09777
3005.26213,0.09685
3004.23187,0.09580
3003.20161,0.09484
3002.17135,0.09419
3001.14110,0.09379
3000.11084,0.09335
2999.08058,0.09289
2998.05032,0.09223
2997.02006,0.09115
2995.98981,0.09023
2994.95955,0.08966
2993.92929,0.08898
2992.89903,0.08829
2991.86877,0.08781
2990.83852,0.08735
2989.80826,0.08665
2988.77800,0.08585
2987.74774,0.08522
2986.71749,0.08461
2985.68723,0.08400
2984.65697,0.08336
2983.62671,0.08270
2982.59645,0.08224
2981.56620,0.08168
2980.53594,0.08092
2979.50568,0.08044
2978.47542,0.08028
2977.44517,0.07982
2976.41491,0.07925
2975.38465,0.07896
2974.35439,0.07870
2973.32413,0.07817
2972.29388,0.07745
2971.26362,0.07678
2970.23336,0.07624
2969.20310,0.07575
2968.17284,0.07540
2967.14259,0.07505
2966.11233,0.07446
2965.08207,0.07392
2964.05181,0.07366
2963.02156,0.07335
2961.99130,0.07270
2960.96104,0.07180
2959.93078,0.07094
2958.90052,0.07008
2957.87027,0.06937
2956.84001,0.06905
2955.80975,0.06874
2954.77949,0.06814
2953.74923,0.06759
2952.71898,0.06735
2951.68872,0.06685
2950.65846,0.06575
2949.62820,0.06485
2948.59795,0.06453
2947.56769,0.06438
2946.53743,0.06397
2945.50717,0.06312
2944.47691,0.06238
2943.44666,0.06228
2942.41640,0.06226
2941.38614,0.06147
2940.35588,0.06032
2939.32562,0.05967
2938.29537,0.05942
2937.26511,0.05909
2936.23485,0.05871
2935.20459,0.05841
2934.17434,0.05810
2933.14408,0.05752
2932.11382,0.05664
2931.08356,0.05585
2930.05330,0.05552
2929.02305,0.05554
2927.99279,0.05552
2926.96253,0.05527
2925.93227,0.05490
2924.90202,0.05435
2923.87176,0.05382
2922.84150,0.05363
2921.81124,0.05327
2920.78098,0.05256
2919.75073,0.05201
2918.72047,0.05172
2917.69021,0.05147
2916.65995,0.05113
2915.62969,0.05073
2914.59944,0.05021
2913.56918,0.04969
2912.53892,0.04926
2911.50866,0.04882
2910.47841,0.04858
2909.44815,0.04856
2908.41789,0.04828
2907.38763,0.04774
2906.35737,0.04745
2905.32712,0.04732
2904.29686,0.04696
2903.26660,0.04649
2902.23634,0.04620
2901.20608,0.04596
2900.17583,0.04552
2899.14557,0.04493
2898.11531,0.04446
2897.08505,0.04417
2896.05480,0.04385
2895.02454,0.04367
2893.99428,0.04368
2892.96402,0.04348
2891.93376,0.04308
2890.90351,0.04280
2889.87325,0.04241
2888.84299,0.04183
2887.81273,0.04149
2886.78247,0.04147
2885.75222,0.04129
2884.72196,0.04094
2883.69170,0.04071
2882.66144,0.04047
2881.63119,0.04023
2880.60093,0.04000
2879.57067,0.03962
2878.54041,0.03911
2877.51015,0.03874
2876.47990,0.03848
2875.44964,0.03815
2874.41938,0.03788
2873.38912,0.03766
2872.35887,0.03738
2871.32861,0.03700
2870.29835,0.03658
2869.26809,0.03625
2868.23783,0.03605
2867.20758,0.03587
2866.17732,0.03571
2865.14706,0.03564
2864.11680,0.03545
2863.08654,0.03496
2862.05629,0.03445
2861.02603,0.03412
2859.99577,0.03401
2858.96551,0.03421
2857.93526,0.03428
2856.90500,0.03379
2855.87474,0.03306
2854.84448,0.03257
2853.81422,0.03248
2852.78397,0.03253
2851.75371,0.03218
2850.72345,0.03177
2849.69319,0.03171
2848.66293,0.03146
2847.63268,0.03107
2846.60242,0.03107
2845.57216,0.03119
2844.54190,0.03095
2843.51165,0.03047
2842.48139,0.03009
2841.45113,0.03004
2840.42087,0.03014
2839.39061,0.02980
2838.36036,0.02924
2837.33010,0.02912
2836.29984,0.02930
2835.26958,0.02928
2834.23933,0.02902
2833.20907,0.02874
2832.17881,0.02849
2831.14855,0.02811
2830.11829,0.02769
2829.08804,0.02757
2828.05778,0.02766
2827.02752,0.02768
2825.99726,0.02741
2824.96700,0.02711
2823.93675,0.02715
2822.90649,0.02723
2821.87623,0.02702
2820.84597,0.02665
2819.81572,0.02621
2818.78546,0.02575
2817.75520,0.02550
2816.72494,0.02549
2815.69468,0.02568
2814.66443,0.02584
2813.63417,0.02565
2812.60391,0.02521
2811.57365,0.02485
2810.54339,0.02463
2809.51314,0.02443
2808.48288,0.02423
2807.45262,0.02423
2806.42236,0.02423
2805.39211,0.02389
2804.36185,0.02348
2803.33159,0.02326
2802.30133,0.02319
2801.27107,0.02311
2800.24082,0.02286
2799.21056,0.02261
2798.18030,0.02257
2797.15004,0.02267
2796.11978,0.02262
2795.08953,0.02232
2794.05927,0.02213
2793.02901,0.02218
2791.99875,0.02220
2790.96850,0.02221
2789.93824,0.02219
2788.90798,0.02202
2787.87772,0.02180
2786.84746,0.02156
2785.81721,0.02119
2784.78695,0.02098
2783.75669,0.02109
2782.72643,0.02116
2781.69618,0.02105
2780.66592,0.02081
2779.63566,0.02035
2778.60540,0.01998
2777.57514,0.01995
2776.54489,0.01998
2775.51463,0.01988
2774.48437,0.01986
2773.45411,0.02003
2772.42385,0.01990
2771.39360,0.01931
2770.36334,0.01901
2769.33308,0.01917
2768.30282,0.01926
2767.27257,0.01915
2766.24231,0.01897
2765.21205,0.01885
2764.18179,0.01878
2763.15153,0.01867
2762.12128,0.01859
2761.09102,0.01846
2760.06076,0.01832
2759.03050,0.01830
2758.00024,0.01834
2756.96999,0.01829
2755.93973,0.01796
2754.90947,0.01756
2753.87921,0.01748
2752.84896,0.01748
2751.81870,0.01748
2750.78844,0.01761
2749.75818,0.01755
2748.72792,0.01736
2747.69767,0.01727
2746.66741,0.01705
2745.63715,0.01666
2744.60689,0.01646
2743.57663,0.01659
2742.54638,0.01655
2741.51612,0.01625
2740.48586,0.01630
2739.45560,0.01663
2738.42535,0.01655
2737.39509,0.01635
2736.36483,0.01655
2735.33457,0.01674
2734.30431,0.01648
2733.27406,0.01595
2732.24380,0.01575
2731.21354,0.01593
2730.18328,0.01590
2729.15303,0.01554
2728.12277,0.01532
2727.09251,0.01535
2726.06225,0.01537
2725.03199,0.01522
2724.00174,0.01508
2722.97148,0.01522
2721.94122,0.01535
2720.91096,0.01519
2719.88070,0.01484
2718.85045,0.01449
2717.82019,0.01436
2716.78993,0.01456
2715.75967,0.01490
2714.72942,0.01492
2713.69916,0.01454
2712.66890,0.01430
2711.63864,0.01446
2710.60838,0.01480
2709.57813,0.01479
2708.54787,0.01449
2707.51761,0.01434
2706.48735,0.01427
2705.45709,0.01432
2704.42684,0.01445
2703.39658,0.01427
2702.36632,0.01391
2701.33606,0.01368
2700.30581,0.01360
2699.27555,0.01360
2698.24529,0.01347
2697.21503,0.01313
2696.18477,0.01307
2695.15452,0.01330
2694.12426,0.01347
2693.09400,0.01362
2692.06374,0.01382
2691.03348,0.01378
2690.00323,0.01334
2688.97297,0.01293
2687.94271,0.01297
2686.91245,0.01317
2685.88220,0.01317
2684.85194,0.01298
2683.82168,0.01275
2682.79142,0.01275
2681.76116,0.01287
2680.73091,0.01269
2679.70065,0.01237
2678.67039,0.01231
2677.64013,0.01240
2676.60988,0.01253
2675.57962,0.01262
2674.54936,0.01246
2673.51910,0.01217
2672.48884,0.01209
2671.45859,0.01209
2670.42833,0.01200
2669.39807,0.01200
2668.36781,0.01221
2667.33755,0.01255
2666.30730,0.01286
2665.27704,0.01281
2664.24678,0.01240
2663.21652,0.01201
2662.18627,0.01176
2661.15601,0.01177
2660.12575,0.01204
2659.09549,0.01228
2658.06523,0.01239
2657.03498,0.01233
2656.00472,0.01219
2654.97446,0.01211
2653.94420,0.01193
2652.91394,0.01163
2651.88369,0.01148
2650.85343,0.01151
2649.82317,0.01155
2648.79291,0.01151
2647.76266,0.01148
2646.73240,0.01146
2645.70214,0.01136
2644.67188,0.01127
2643.64162,0.01133
2642.61137,0.01139
2641.58111,0.01134
2640.55085,0.01131
2639.52059,0.01128
2638.49033,0.01122
2637.46008,0.01114
2636.42982,0.01110
2635.39956,0.01124
2634.36930,0.01134
2633.33905,0.01123
2632.30879,0.01113
2631.27853,0.01119
2630.24827,0.01133
2629.21801,0.01126
2628.18776,0.01095
2627.15750,0.01066
2626.12724,0.01033
2625.09698,0.01026
2624.06673,0.01063
2623.03647,0.01083
2622.00621,0.01078
2620.97595,0.01070
2619.94569,0.01075
2618.91544,0.01090
2617.88518,0.01081
2616.85492,0.01050
2615.82466,0.01030
2614.79440,0.01040
2613.76415,0.01059
2612.73389,0.01055
2611.70363,0.01050
2610.67337,0.01057
2609.64312,0.01034
2608.61286,0.00989
2607.58260,0.00979
2606.55234,0.01015
2605.52208,0.01064
2604.49183,0.01086
2603.46157,0.01054
2602.43131,0.00999
2601.40105,0.00992
2600.37079,0.01022
2599.34054,0.01028
2598.31028,0.01029
2597.28002,0.01048
2596.24976,0.01043
2595.21951,0.01025
2594.18925,0.01017
2593.15899,0.00973
2592.12873,0.00946
2591.09847,0.00998
2590.06822,0.01032
2589.03796,0.00996
2588.00770,0.00986
2586.97744,0.01023
2585.94718,0.01048
2584.91693,0.01071
2583.88667,0.01081
2582.85641,0.01031
2581.82615,0.00972
2580.79590,0.00942
2579.76564,0.00928
2578.73538,0.00959
2577.70512,0.01008
2576.67486,0.01020
2575.64461,0.00991
2574.61435,0.00945
2573.58409,0.00943
2572.55383,0.00958
2571.52358,0.00903
2570.49332,0.00847
2569.46306,0.00867
2568.43280,0.00937
2567.40254,0.01004
2566.37229,0.01011
2565.34203,0.00982
2564.31177,0.00957
2563.28151,0.00945
2562.25125,0.00977
2561.22100,0.01012
2560.19074,0.01049
2559.16048,0.01109
2558.13022,0.01115
2557.09997,0.01076
2556.06971,0.01045
2555.03945,0.01008
2554.00919,0.00977
2552.97893,0.00975
2551.94868,0.00985
2550.91842,0.00990
2549.88816,0.00986
2548.85790,0.00986
2547.82764,0.01007
2546.79739,0.01052
2545.76713,0.01107
2544.73687,0.01103
2543.70661,0.01018
2542.67636,0.00964
2541.64610,0.00995
2540.61584,0.01045
2539.58558,0.01059
2538.55532,0.01035
2537.52507,0.00999
2536.49481,0.00986
2535.46455,0.00976
2534.43429,0.00963
2533.40403,0.00964
2532.37378,0.00949
2531.34352,0.00917
2530.31326,0.00909
2529.28300,0.00903
2528.25275,0.00892
2527.22249,0.00944
2526.19223,0.01057
2525.16197,0.01129
2524.13171,0.01071
2523.10146,0.00963
2522.07120,0.00949
2521.04094,0.00995
2520.01068,0.01007
2518.98043,0.01012
2517.95017,0.01025
2516.91991,0.01021
2515.88965,0.01000
2514.85939,0.00970
2513.82914,0.00940
2512.79888,0.00903
2511.76862,0.00876
2510.73836,0.00923
2509.70810,0.00992
2508.67785,0.00965
2507.64759,0.00918
2506.61733,0.00984
2505.58707,0.01087
2504.55682,0.01118
2503.52656,0.01090
2502.49630,0.01062
2501.46604,0.01057
2500.43578,0.01033
2499.40553,0.01003
2498.37527,0.01027
2497.34501,0.01065
2496.31475,0.01043
2495.28449,0.00995
2494.25424,0.00986
2493.22398,0.01007
2492.19372,0.01041
2491.16346,0.01069
2490.13321,0.01062
2489.10295,0.01017
2488.07269,0.00999
2487.04243,0.01060
2486.01217,0.01116
2484.98192,0.01087
2483.95166,0.01043
2482.92140,0.01038
2481.89114,0.01057
2480.86088,0.01110
2479.83063,0.01132
2478.80037,0.01063
2477.77011,0.01012
2476.73985,0.01056
2475.70960,0.01122
2474.67934,0.01133
2473.64908,0.01127
2472.61882,0.01140
2471.58856,0.01134
2470.55831,0.01141
2469.52805,0.01167
2468.49779,0.01148
2467.46753,0.01127
2466.43728,0.01158
2465.40702,0.01206
2464.37676,0.01217
2463.34650,0.01204
2462.31624,0.01210
2461.28599,0.01221
2460.25573,0.01180
2459.22547,0.01096
2458.19521,0.01071
2457.16495,0.01113
2456.13470,0.01138
2455.10444,0.01158
2454.07418,0.01209
2453.04392,0.01235
2452.01367,0.01213
2450.98341,0.01187
2449.95315,0.01158
2448.92289,0.01127
2447.89263,0.01128
2446.86238,0.01141
2445.83212,0.01117
2444.80186,0.01102
2443.77160,0.01125
2442.74134,0.01153
2441.71109,0.01180
2440.68083,0.01196
2439.65057,0.01195
2438.62031,0.01165
2437.59006,0.01125
2436.55980,0.01107
2435.52954,0.01093
2434.49928,0.01085
2433.46902,0.01138
2432.43877,0.01232
2431.40851,0.01291
2430.37825,0.01302
2429.34799,0.01260
2428.31774,0.01198
2427.28748,0.01177
2426.25722,0.01193
2425.22696,0.01200
2424.19670,0.01175
2423.16645,0.01155
2422.13619,0.01168
2421.10593,0.01187
2420.07567,0.01184
2419.04541,0.01161
2418.01516,0.01167
2416.98490,0.01206
2415.95464,0.01239
2414.92438,0.01260
2413.89413,0.01253
2412.86387,0.01234
2411.83361,0.01236
2410.80335,0.01250
2409.77309,0.01255
2408.74284,0.01257
2407.71258,0.01291
2406.68232,0.01341
2405.65206,0.01340
2404.62180,0.01298
2403.59155,0.01291
2402.56129,0.01313
2401.53103,0.01296
2400.50077,0.01259
2399.47052,0.01275
2398.44026,0.01317
2397.41000,0.01321
2396.37974,0.01305
2395.34948,0.01309
2394.31923,0.01328
2393.28897,0.01332
2392.25871,0.01335
2391.22845,0.01353
2390.19819,0.01374
2389.16794,0.01384
2388.13768,0.01381
2387.10742,0.01361
2386.07716,0.01329
2385.04691,0.01307
2384.01665,0.01323
2382.98639,0.01371
2381.95613,0.01413
2380.92587,0.01434
2379.89562,0.01447
2378.86536,0.01459
2377.83510,0.01476
2376.80484,0.01476
2375.77459,0.01436
2374.74433,0.01438
2373.71407,0.01530
2372.68381,0.01625
2371.65355,0.01675
2370.62330,0.01686
2369.59304,0.01662
2368.56278,0.01609
2367.53252,0.01564
2366.50226,0.01545
2365.47201,0.01535
2364.44175,0.01528
2363.41149,0.01506
2362.38123,0.01541
2361.35098,0.01677
2360.32072,0.01761
2359.29046,0.01713
2358.26020,0.01628
2357.22994,0.01595
2356.19969,0.01646
2355.16943,0.01651
2354.13917,0.01556
2353.10891,0.01551
2352.07865,0.01621
2351.04840,0.01627
2350.01814,0.01605
2348.98788,0.01597
2347.95762,0.01574
2346.92737,0.01531
2345.89711,0.01523
2344.86685,0.01584
2343.83659,0.01656
2342.80633,0.01687
2341.77608,0.01685
2340.74582,0.01688
2339.71556,0.01694
2338.68530,0.01668
2337.65504,0.01670
2336.62479,0.01725
2335.59453,0.01769
2334.56427,0.01807
2333.53401,0.01808
2332.50376,0.01776
2331.47350,0.01796
2330.44324,0.01801
2329.41298,0.01764
2328.38272,0.01766
2327.35247,0.01778
2326.32221,0.01754
2325.29195,0.01704
2324.26169,0.01662
2323.23144,0.01676
2322.20118,0.01760
2321.17092,0.01820
2320.14066,0.01784
2319.11040,0.01707
2318.08015,0.01658
2317.04989,0.01684
2316.01963,0.01756
2314.98937,0.01793
2313.95911,0.01772
2312.92886,0.01756
2311.89860,0.01779
2310.86834,0.01829
2309.83808,0.01875
2308.80783,0.01848
2307.77757,0.01778
2306.74731,0.01733
2305.71705,0.01739
2304.68679,0.01784
2303.65654,0.01814
2302.62628,0.01812
2301.59602,0.01766
2300.56576,0.01721
2299.53550,0.01731
2298.50525,0.01752
2297.47499,0.01763
2296.44473,0.01780
2295.41447,0.01799
2294.38422,0.01818
2293.35396,0.01825
2292.32370,0.01817
2291.29344,0.01809
2290.26318,0.01794
2289.23293,0.01789
2288.20267,0.01829
2287.17241,0.01901
2286.14215,0.01964
2285.11189,0.01963
2284.08164,0.01896
2283.05138,0.01869
2282.02112,0.01903
2280.99086,0.01913
2279.96061,0.01891
2278.93035,0.01851
2277.90009,0.01832
2276.86983,0.01826
2275.83957,0.01800
2274.80932,0.01847
2273.77906,0.01969
2272.74880,0.02030
2271.71854,0.02051
2270.68829,0.02075
2269.65803,0.02061
2268.62777,0.02042
2267.59751,0.02026
2266.56725,0.01997
2265.53700,0.01950
2264.50674,0.01890
2263.47648,0.01868
2262.44622,0.01874
2261.41596,0.01871
2260.38571,0.01912
2259.35545,0.01996
2258.32519,0.02066
2257.29493,0.02134
2256.26468,0.02187
2255.23442,0.02165
2254.20416,0.02098
2253.17390,0.02094
2252.14364,0.02084
2251.11339,0.01995
2250.08313,0.01997
2249.05287,0.02140
2248.02261,0.02201
2246.99235,0.02101
2245.96210,0.02027
2244.93184,0.02046
2243.90158,0.02037
2242.87132,0.01966
2241.84107,0.01962
2240.81081,0.02027
2239.78055,0.02060
2238.75029,0.02118
2237.72003,0.02237
2236.68978,0.02274
2235.65952,0.02146
2234.62926,0.02040
2233.59900,0.02029
2232.56874,0.02066
2231.53849,0.02182
2230.50823,0.02234
2229.47797,0.02158
2228.44771,0.02076
2227.41746,0.01987
2226.38720,0.01880
2225.35694,0.01884
2224.32668,0.02036
2223.29642,0.02228
2222.26617,0.02334
2221.23591,0.02284
2220.20565,0.02179
2219.17539,0.02078
2218.14514,0.02013
2217.11488,0.02054
2216.08462,0.02159
2215.05436,0.02329
2214.02410,0.02497
2212.99385,0.02483
2211.96359,0.02266
2210.93333,0.02014
2209.90307,0.01945
2208.87281,0.02040
2207.84256,0.02071
2206.81230,0.02011
2205.78204,0.02060
2204.75178,0.02231
2203.72153,0.02328
2202.69127,0.02355
2201.66101,0.02422
2200.63075,0.02419
2199.60049,0.02303
2198.57024,0.02173
2197.53998,0.02110
2196.50972,0.02129
2195.47946,0.02107
2194.44920,0.02070
2193.41895,0.02174
2192.38869,0.02348
2191.35843,0.02415
2190.32817,0.02382
2189.29792,0.02340
2188.26766,0.02348
2187.23740,0.02374
2186.20714,0.02349
2185.17688,0.02424
2184.14663,0.02514
2183.11637,0.02374
2182.08611,0.02218
2181.05585,0.02224
2180.02559,0.02321
2178.99534,0.02412
2177.96508,0.02401
2176.93482,0.02339
2175.90456,0.02347
2174.87431,0.02409
2173.84405,0.02467
2172.81379,0.02491
2171.78353,0.02428
2170.75327,0.02371
2169.72302,0.02402
2168.69276,0.02429
2167.66250,0.02553
2166.63224,0.02739
2165.60199,0.02732
2164.57173,0.02686
2163.54147,0.02663
2162.51121,0.02380
2161.48095,0.02017
2160.45070,0.02079
2159.42044,0.02513
2158.39018,0.02725
2157.35992,0.02498
2156.32966,0.02265
2155.29941,0.02362
2154.26915,0.02526
2153.23889,0.02397
2152.20863,0.02160
2151.17838,0.02197
2150.14812,0.02416
2149.11786,0.02507
2148.08760,0.02550
2147.05734,0.02637
2146.02709,0.02548
2144.99683,0.02373
2143.96657,0.02412
2142.93631,0.02530
2141.90605,0.02544
2140.87580,0.02581
2139.84554,0.02610
2138.81528,0.02514
2137.78502,0.02452
2136.75477,0.02462
2135.72451,0.02392
2134.69425,0.02306
2133.66399,0.02355
2132.63373,0.02474
2131.60348,0.02477
2130.57322,0.02389
2129.54296,0.02362
2128.51270,0.02394
2127.48244,0.02449
2126.45219,0.02523
2125.42193,0.02552
2124.39167,0.02486
2123.36141,0.02391
2122.33116,0.02378
2121.30090,0.02462
2120.27064,0.02532
2119.24038,0.02487
2118.21012,0.02419
2117.17987,0.02447
2116.14961,0.02465
2115.11935,0.02421
2114.08909,0.02410
2113.05884,0.02406
2112.02858,0.02405
2110.99832,0.02465
2109.96806,0.02506
2108.93780,0.02437
2107.90755,0.02338
2106.87729,0.02354
2105.84703,0.02499
2104.81677,0.02569
2103.78651,0.02471
2102.75626,0.02446
2101.72600,0.02567
2100.69574,0.02582
2099.66548,0.02458
2098.63523,0.02336
2097.60497,0.02230
2096.57471,0.02183
2095.54445,0.02259
2094.51419,0.02429
2093.48394,0.02557
2092.45368,0.02582
2091.42342,0.02546
2090.39316,0.02453
2089.36290,0.02383
2088.33265,0.02385
2087.30239,0.02365
2086.27213,0.02296
2085.24187,0.02271
2084.21162,0.02309
2083.18136,0.02340
2082.15110,0.02362
2081.12084,0.02421
2080.09058,0.02467
2079.06033,0.02406
2078.03007,0.02311
2076.99981,0.02294
2075.96955,0.02312
2074.93930,0.02301
2073.90904,0.02265
2072.87878,0.02224
2071.84852,0.02211
2070.81826,0.02300
2069.78801,0.02455
2068.75775,0.02469
2067.72749,0.02255
2066.69723,0.02055
2065.66697,0.02095
2064.63672,0.02214
2063.60646,0.02217
2062.57620,0.02163
2061.54594,0.02132
2060.51569,0.02139
2059.48543,0.02141
2058.45517,0.02125
2057.42491,0.02152
2056.39465,0.02187
2055.36440,0.02166
2054.33414,0.02193
2053.30388,0.02286
2052.27362,0.02316
2051.24336,0.02235
2050.21311,0.02130
2049.18285,0.02116
2048.15259,0.02133
2047.12233,0.02095
2046.09208,0.02133
2045.06182,0.02294
2044.03156,0.02354
2043.00130,0.02217
2041.97104,0.02052
2040.94079,0.01998
2039.91053,0.01993
2038.88027,0.01928
2037.85001,0.01882
2036.81975,0.01908
2035.78950,0.01832
2034.75924,0.01687
2033.72898,0.01711
2032.69872,0.01846
2031.66847,0.01995
2030.63821,0.02197
2029.60795,0.02331
2028.57769,0.02357
2027.54743,0.02430
2026.51718,0.02434
2025.48692,0.02234
2024.45666,0.02120
2023.42640,0.02269
2022.39615,0.02351
2021.36589,0.02224
2020.33563,0.02149
2019.30537,0.02102
2018.27511,0.02026
2017.24486,0.02008
2016.21460,0.01880
2015.18434,0.01666
2014.15408,0.01670
2013.12382,0.01802
2012.09357,0.01695
2011.06331,0.01410
2010.03305,0.01334
2009.00279,0.01586
2007.97254,0.01950
2006.94228,0.02150
2005.91202,0.02076
2004.88176,0.01925
2003.85150,0.01844
2002.82125,0.01844
2001.79099,0.01907
2000.76073,0.01866
1999.73047,0.01765
1998.70021,0.01774
1997.66996,0.01777
1996.63970,0.01705
1995.60944,0.01683
1994.57918,0.01737
1993.54893,0.01745
1992.51867,0.01681
1991.48841,0.01770
1990.45815,0.01985
1989.42789,0.01932
1988.39764,0.01728
1987.36738,0.01706
1986.33712,0.01686
1985.30686,0.01550
1984.27660,0.01457
1983.24635,0.01434
1982.21609,0.01383
1981.18583,0.01377
1980.15557,0.01512
1979.12532,0.01562
1978.09506,0.01520
1977.06480,0.01561
1976.03454,0.01604
1975.00428,0.01727
1973.97403,0.01839
1972.94377,0.01765
1971.91351,0.01706
1970.88325,0.01767
1969.85300,0.01845
1968.82274,0.01898
1967.79248,0.01925
1966.76222,0.01856
1965.73196,0.01682
1964.70171,0.01580
1963.67145,0.01624
1962.64119,0.01681
1961.61093,0.01677
1960.58067,0.01674
1959.55042,0.01712
1958.52016,0.01744
1957.48990,0.01743
1956.45964,0.01690
1955.42939,0.01618
1954.39913,0.01608
1953.36887,0.01591
1952.33861,0.01566
1951.30835,0.01626
1950.27810,0.01680
1949.24784,0.01644
1948.21758,0.01509
1947.18732,0.01305
1946.15706,0.01212
1945.12681,0.01301
1944.09655,0.01415
1943.06629,0.01516
1942.03603,0.01584
1941.00578,0.01553
1939.97552,0.01533
1938.94526,0.01577
1937.91500,0.01589
1936.88474,0.01566
1935.85449,0.01542
1934.82423,0.01465
1933.79397,0.01364
1932.76371,0.01362
1931.73345,0.01464
1930.70320,0.01535
1929.67294,0.01540
1928.64268,0.01515
1927.61242,0.01475
1926.58217,0.01465
1925.55191,0.01486
1924.52165,0.01512
1923.49139,0.01506
1922.46113,0.01442
1921.43088,0.01440
1920.40062,0.01532
1919.37036,0.01568
1918.34010,0.01515
1917.30985,0.01489
1916.27959,0.01508
1915.24933,0.01566
1914.21907,0.01653
1913.18881,0.01612
1912.15856,0.01431
1911.12830,0.01339
1910.09804,0.01370
1909.06778,0.01407
1908.03752,0.01435
1907.00727,0.01462
1905.97701,0.01461
1904.94675,0.01438
1903.91649,0.01436
1902.88624,0.01464
1901.85598,0.01514
1900.82572,0.01561
1899.79546,0.01546
1898.76520,0.01482
1897.73495,0.01457
1896.70469,0.01470
1895.67443,0.01511
1894.64417,0.01570
1893.61391,0.01574
1892.58366,0.01556
1891.55340,0.01568
1890.52314,0.01575
1889.49288,0.01562
1888.46263,0.01595
1887.43237,0.01678
1886.40211,0.01727
1885.37185,0.01692
1884.34159,0.01605
1883.31134,0.01540
1882.28108,0.01504
1881.25082,0.01483
1880.22056,0.01499
1879.19030,0.01536
1878.16005,0.01547
1877.12979,0.01564
1876.09953,0.01611
1875.06927,0.01639
1874.03902,0.01661
1873.00876,0.01690
1871.97850,0.01666
1870.94824,0.01605
1869.91798,0.01580
1868.88773,0.01579
1867.85747,0.01581
1866.82721,0.01567
1865.79695,0.01518
1864.76670,0.01500
1863.73644,0.01533
1862.70618,0.01554
1861.67592,0.01548
1860.64566,0.01554
1859.61541,0.01551
1858.58515,0.01524
1857.55489,0.01511
1856.52463,0.01500
1855.49437,0.01483
1854.46412,0.01484
1853.43386,0.01503
1852.40360,0.01533
1851.37334,0.01571
1850.34309,0.01585
1849.31283,0.01571
1848.28257,0.01597
1847.25231,0.01651
1846.22205,0.01675
1845.19180,0.01675
1844.16154,0.01655
1843.13128,0.01621
1842.10102,0.01597
1841.07076,0.01585
1840.04051,0.01599
1839.01025,0.01648
1837.97999,0.01689
1836.94973,0.01691
1835.91948,0.01666
1834.88922,0.01639
1833.85896,0.01638
1832.82870,0.01650
1831.79844,0.01652
1830.76819,0.01627
1829.73793,0.01581
1828.70767,0.01578
1827.67741,0.01617
1826.64715,0.01665
1825.61690,0.01696
1824.58664,0.01691
1823.55638,0.01667
1822.52612,0.01653
1821.49587,0.01667
1820.46561,0.01685
1819.43535,0.01696
1818.40509,0.01721
1817.37483,0.01755
1816.34458,0.01775
1815.31432,0.01773
1814.28406,0.01773
1813.25380,0.01802
1812.22355,0.01849
1811.19329,0.01876
1810.16303,0.01857
1809.13277,0.01819
1808.10251,0.01816
1807.07226,0.01841
1806.04200,0.01844
1805.01174,0.01836
1803.98148,0.01841
1802.95122,0.01843
1801.92097,0.01849
1800.89071,0.01862
1799.86045,0.01878
1798.83019,0.01903
1797.79994,0.01928
1796.76968,0.01938
1795.73942,0.01937
1794.70916,0.01945
1793.67890,0.01966
1792.64865,0.01982
1791.61839,0.01977
1790.58813,0.01982
1789.55787,0.02015
1788.52761,0.02026
1787.49736,0.02004
1786.46710,0.01997
1785.43684,0.02000
1784.40658,0.01999
1783.37633,0.02015
1782.34607,0.02056
1781.31581,0.02114
1780.28555,0.02154
1779.25529,0.02163
1778.22504,0.02158
1777.19478,0.02155
1776.16452,0.02169
1775.13426,0.02194
1774.10400,0.02221
1773.07375,0.02248
1772.04349,0.02268
1771.01323,0.02276
1769.98297,0.02286
1768.95272,0.02324
1767.92246,0.02364
1766.89220,0.02371
1765.86194,0.02370
1764.83168,0.02365
1763.80143,0.02365
1762.77117,0.02399
1761.74091,0.02449
1760.71065,0.02488
1759.68040,0.02525
1758.65014,0.02568
1757.61988,0.02617
1756.58962,0.02677
1755.55936,0.02711
1754.52911,0.02709
1753.49885,0.02721
1752.46859,0.02763
1751.43833,0.02813
1750.40807,0.02857
1749.37782,0.02897
1748.34756,0.02931
1747.31730,0.02958
1746.28704,0.03012
1745.25679,0.03084
1744.22653,0.03110
1743.19627,0.03098
1742.16601,0.03119
1741.13575,0.03180
1740.10550,0.03241
1739.07524,0.03293
1738.04498,0.03351
1737.01472,0.03397
1735.98446,0.03427
1734.95421,0.03463
1733.92395,0.03531
1732.89369,0.03584
1731.86343,0.03617
1730.83318,0.03682
1729.80292,0.03778
1728.77266,0.03868
1727.74240,0.03941
1726.71214,0.04013
1725.68189,0.04098
1724.65163,0.04189
1723.62137,0.04280
1722.59111,0.04362
1721.56085,0.04427
1720.53060,0.04471
1719.50034,0.04504
1718.47008,0.04571
1717.43982,0.04697
1716.40957,0.04801
1715.37931,0.04875
1714.34905,0.04947
1713.31879,0.05037
1712.28853,0.05167
1711.25828,0.05332
1710.22802,0.05489
1709.19776,0.05599
1708.16750,0.05683
1707.13725,0.05797
1706.10699,0.05949
1705.07673,0.06082
1704.04647,0.06190
1703.01621,0.06305
1701.98596,0.06423
1700.95570,0.06557
1699.92544,0.06751
1698.89518,0.06911
1697.86492,0.07029
1696.83467,0.07162
1695.80441,0.07369
1694.77415,0.07600
1693.74389,0.07762
1692.71364,0.07898
1691.68338,0.08043
1690.65312,0.08206
1689.62286,0.08366
1688.59260,0.08527
1687.56235,0.08698
1686.53209,0.08876
1685.50183,0.09075
1684.47157,0.09323
1683.44131,0.09537
1682.41106,0.09692
1681.38080,0.09865
1680.35054,0.10061
1679.32028,0.10256
1678.29003,0.10431
1677.25977,0.10605
1676.22951,0.10786
1675.19925,0.10987
1674.16899,0.11199
1673.13874,0.11406
1672.10848,0.11608
1671.07822,0.11788
1670.04796,0.11967
1669.01771,0.12182
1667.98745,0.12384
1666.95719,0.12560
1665.92693,0.12762
1664.89667,0.12983
1663.86642,0.13198
1662.83616,0.13397
1661.80590,0.13582
1660.77564,0.13750
1659.74538,0.13898
1658.71513,0.14044
1657.68487,0.14219
1656.65461,0.14425
1655.62435,0.14638
1654.59410,0.14835
1653.56384,0.14976
1652.53358,0.15063
1651.50332,0.15228
1650.47306,0.15430
1649.44281,0.15601
1648.41255,0.15729
1647.38229,0.15849
1646.35203,0.15966
1645.32177,0.16035
1644.29152,0.16094
1643.26126,0.16174
1642.23100,0.16258
1641.20074,0.16318
1640.17049,0.16360
1639.14023,0.16408
1638.10997,0.16446
1637.07971,0.16486
1636.04945,0.16494
1635.01920,0.16380
1633.98894,0.16278
1632.95868,0.16230
1631.92842,0.16164
1630.89816,0.16088
1629.86791,0.16014
1628.83765,0.15920
1627.80739,0.15750
1626.77713,0.15540
1625.74688,0.15369
1624.71662,0.15228
1623.68636,0.15041
1622.65610,0.14795
1621.62584,0.14601
1620.59559,0.14418
1619.56533,0.14205
1618.53507,0.14023
1617.50481,0.13859
1616.47456,0.13560
1615.44430,0.13260
1614.41404,0.13068
1613.38378,0.12882
1612.35352,0.12678
1611.32327,0.12458
1610.29301,0.12228
1609.26275,0.11998
1608.23249,0.11776
1607.20223,0.11544
1606.17198,0.11323
1605.14172,0.11138
1604.11146,0.10966
1603.08120,0.10772
1602.05095,0.10557
1601.02069,0.10353
1599.99043,0.10177
1598.96017,0.10018
1597.92991,0.09869
1596.89966,0.09725
1595.86940,0.09577
1594.83914,0.09425
1593.80888,0.09287
1592.77862,0.09176
1591.74837,0.09048
1590.71811,0.08916
1589.68785,0.08796
1588.65759,0.08654
1587.62734,0.08510
1586.59708,0.08386
1585.56682,0.08278
1584.53656,0.08189
1583.50630,0.08105
1582.47605,0.08013
1581.44579,0.07930
1580.41553,0.07854
1579.38527,0.07769
1578.35501,0.07685
1577.32476,0.07603
1576.29450,0.07464
1575.26424,0.07317
1574.23398,0.07258
1573.20373,0.07220
1572.17347,0.07172
1571.14321,0.07136
1570.11295,0.07099
1569.08269,0.07004
1568.05244,0.06917
1567.02218,0.06885
1565.99192,0.06851
1564.96166,0.06792
1563.93141,0.06731
1562.90115,0.06662
1561.87089,0.06608
1560.84063,0.06598
1559.81037,0.06597
1558.78012,0.06508
1557.74986,0.06369
1556.71960,0.06315
1555.68934,0.06303
1554.65908,0.06287
1553.62883,0.06267
1552.59857,0.06235
1551.56831,0.06177
1550.53805,0.06116
1549.50780,0.06073
1548.47754,0.06038
1547.44728,0.05998
1546.41702,0.05970
1545.38676,0.05947
1544.35651,0.05885
1543.32625,0.05822
1542.29599,0.05816
1541.26573,0.05844
1540.23547,0.05819
1539.20522,0.05733
1538.17496,0.05686
1537.14470,0.05677
1536.11444,0.05679
1535.08419,0.05685
1534.05393,0.05666
1533.02367,0.05612
1531.99341,0.05579
1530.96315,0.05582
1529.93290,0.05593
1528.90264,0.05575
1527.87238,0.05525
1526.84212,0.05495
1525.81186,0.05479
1524.78161,0.05446
1523.75135,0.05435
1522.72109,0.05440
1521.69083,0.05425
1520.66058,0.05402
1519.63032,0.05396
1518.60006,0.05398
1517.56980,0.05381
1516.53954,0.05349
1515.50929,0.05344
1514.47903,0.05356
1513.44877,0.05356
1512.41851,0.05331
1511.38826,0.05305
1510.35800,0.05296
1509.32774,0.05292
1508.29748,0.05278
1507.26722,0.05228
1506.23697,0.05154
1505.20671,0.05142
1504.17645,0.05181
1503.14619,0.05220
1502.11593,0.05227
1501.08568,0.05220
1500.05542,0.05222
1499.02516,0.05203
1497.99490,0.05181
1496.96465,0.05185
1495.93439,0.05191
1494.90413,0.05190
1493.87387,0.05182
1492.84361,0.05176
1491.81336,0.05187
1490.78310,0.05225
1489.75284,0.05290
1488.72258,0.05365
1487.69232,0.05473
1486.66207,0.05639
1485.63181,0.05872
1484.60155,0.06212
1483.57129,0.06640
1482.54104,0.07017
1481.51078,0.07164
1480.48052,0.07016
1479.45026,0.06714
1478.42000,0.06415
1477.38975,0.06187
1476.35949,0.06019
1475.32923,0.05910
1474.29897,0.05878
1473.26871,0.05921
1472.23846,0.06025
1471.20820,0.06145
1470.17794,0.06265
1469.14768,0.06406
1468.11743,0.06547
1467.08717,0.06645
1466.05691,0.06686
1465.02665,0.06675
1463.99639,0.06636
1462.96614,0.06586
1461.93588,0.06503
1460.90562,0.06389
1459.87536,0.06277
1458.84511,0.06179
1457.81485,0.06095
1456.78459,0.06008
1455.75433,0.05944
1454.72407,0.05917
1453.69382,0.05882
1452.66356,0.05812
1451.63330,0.05730
1450.60304,0.05676
1449.57278,0.05659
1448.54253,0.05662
1447.51227,0.05653
1446.48201,0.05597
1445.45175,0.05521
1444.42150,0.05469
1443.39124,0.05449
1442.36098,0.05435
1441.33072,0.05419
1440.30046,0.05393
1439.27021,0.05362
1438.23995,0.05343
1437.20969,0.05305
1436.17943,0.05226
1435.14917,0.05179
1434.11892,0.05160
1433.08866,0.05128
1432.05840,0.05088
1431.02814,0.05058
1429.99789,0.05019
1428.96763,0.04989
1427.93737,0.04982
1426.90711,0.04980
1425.87685,0.04984
1424.84660,0.04968
1423.81634,0.04919
1422.78608,0.04886
1421.75582,0.04895
1420.72556,0.04924
1419.69531,0.04926
1418.66505,0.04905
1417.63479,0.04905
1416.60453,0.04892
1415.57428,0.04874
1414.54402,0.04872
1413.51376,0.04864
1412.48350,0.04859
1411.45324,0.04870
1410.42299,0.04898
1409.39273,0.04950
1408.36247,0.05013
1407.33221,0.05086
1406.30196,0.05185
1405.27170,0.05280
1404.24144,0.05325
1403.21118,0.05322
1402.18092,0.05295
1401.15067,0.05254
1400.12041,0.05185
1399.09015,0.05082
1398.05989,0.04991
1397.02963,0.04940
1395.99938,0.04908
1394.96912,0.04877
1393.93886,0.04825
1392.90860,0.04775
1391.87835,0.04762
1390.84809,0.04779
1389.81783,0.04798
1388.78757,0.04800
1387.75731,0.04785
1386.72706,0.04765
1385.69680,0.04752
1384.66654,0.04735
1383.63628,0.04725
1382.60602,0.04720
1381.57577,0.04701
1380.54551,0.04676
1379.51525,0.04669
1378.48499,0.04688
1377.45474,0.04716
1376.42448,0.04727
1375.39422,0.04731
1374.36396,0.04734
1373.33370,0.04712
1372.30345,0.04690
1371.27319,0.04689
1370.24293,0.04694
1369.21267,0.04699
1368.18241,0.04709
1367.15216,0.04704
1366.12190,0.04665
1365.09164,0.04619
1364.06138,0.04591
1363.03113,0.04607
1362.00087,0.04667
1360.97061,0.04718
1359.94035,0.04722
1358.91009,0.04695
1357.87984,0.04677
1356.84958,0.04683
1355.81932,0.04690
1354.78906,0.04684
1353.75881,0.04684
1352.72855,0.04681
1351.69829,0.04669
1350.66803,0.04660
1349.63777,0.04660
1348.60752,0.04661
1347.57726,0.04647
1346.54700,0.04625
1345.51674,0.04619
1344.48648,0.04624
1343.45623,0.04619
1342.42597,0.04605
1341.39571,0.04611
1340.36545,0.04648
1339.33520,0.04684
1338.30494,0.04676
1337.27468,0.04648
1336.24442,0.04650
1335.21416,0.04678
1334.18391,0.04693
1333.15365,0.04684
1332.12339,0.04667
1331.09313,0.04649
1330.06287,0.04635
1329.03262,0.04634
1328.00236,0.04631
1326.97210,0.04619
1325.94184,0.04625
1324.91159,0.04654
1323.88133,0.04675
1322.85107,0.04665
1321.82081,0.04648
1320.79055,0.04649
1319.76030,0.04650
1318.73004,0.04635
1317.69978,0.04634
1316.66952,0.04647
1315.63927,0.04647
1314.60901,0.04629
1313.57875,0.04622
1312.54849,0.04640
1311.51823,0.04636
1310.48798,0.04606
1309.45772,0.04602
1308.42746,0.04629
1307.39720,0.04652
1306.36694,0.04658
1305.33669,0.04653
1304.30643,0.04641
1303.27617,0.04622
1302.24591,0.04612
1301.21566,0.04616
1300.18540,0.04611
1299.15514,0.04599
1298.12488,0.04608
1297.09462,0.04635
1296.06437,0.04656
1295.03411,0.04657
1294.00385,0.04639
1292.97359,0.04622
1291.94333,0.04625
1290.91308,0.04628
1289.88282,0.04636
1288.85256,0.04660
1287.82230,0.04665
1286.79205,0.04644
1285.76179,0.04634
1284.73153,0.04646
1283.70127,0.04663
1282.67101,0.04666
1281.64076,0.04656
1280.61050,0.04638
1279.58024,0.04611
1278.54998,0.04586
1277.51972,0.04584
1276.48947,0.04609
1275.45921,0.04632
1274.42895,0.04644
1273.39869,0.04653
1272.36844,0.04646
1271.33818,0.04628
1270.30792,0.04629
1269.27766,0.04636
1268.24740,0.04626
1267.21715,0.04611
1266.18689,0.04615
1265.15663,0.04638
1264.12637,0.04670
1263.09612,0.04674
1262.06586,0.04625
1261.03560,0.04591
1260.00534,0.04616
1258.97508,0.04648
1257.94483,0.04664
1256.91457,0.04691
1255.88431,0.04709
1254.85405,0.04706
1253.82379,0.04718
1252.79354,0.04760
1251.76328,0.04805
1250.73302,0.04854
1249.70276,0.04911
1248.67251,0.04960
1247.64225,0.05011
1246.61199,0.05108
1245.58173,0.05237
1244.55147,0.05344
1243.52122,0.05442
1242.49096,0.05568
1241.46070,0.05698
1240.43044,0.05786
1239.40018,0.05821
1238.36993,0.05814
1237.33967,0.05758
1236.30941,0.05651
1235.27915,0.05529
1234.24890,0.05421
1233.21864,0.05325
1232.18838,0.05239
1231.15812,0.05152
1230.12786,0.05066
1229.09761,0.04994
1228.06735,0.04937
1227.03709,0.04890
1226.00683,0.04863
1224.97657,0.04851
1223.94632,0.04826
1222.91606,0.04796
1221.88580,0.04776
1220.85554,0.04757
1219.82529,0.04729
1218.79503,0.04706
1217.76477,0.04701
1216.73451,0.04693
1215.70425,0.04689
1214.67400,0.04714
1213.64374,0.04730
1212.61348,0.04718
1211.58322,0.04701
1210.55297,0.04677
1209.52271,0.04676
1208.49245,0.04708
1207.46219,0.04710
1206.43193,0.04668
1205.40168,0.04629
1204.37142,0.04613
1203.34116,0.04621
1202.31090,0.04636
1201.28064,0.04637
1200.25039,0.04633
1199.22013,0.04642
1198.18987,0.04653
1197.15961,0.04647
1196.12936,0.04633
1195.09910,0.04642
1194.06884,0.04673
1193.03858,0.04681
1192.00832,0.04659
1190.97807,0.04636
1189.94781,0.04629
1188.91755,0.04631
1187.88729,0.04633
1186.85703,0.04631
1185.82678,0.04634
1184.79652,0.04648
1183.76626,0.04658
1182.73600,0.04656
1181.70575,0.04652
1180.67549,0.04654
1179.64523,0.04654
1178.61497,0.04645
1177.58471,0.04635
1176.55446,0.04623
1175.52420,0.04608
1174.49394,0.04610
1173.46368,0.04635
1172.43342,0.04656
1171.40317,0.04646
1170.37291,0.04606
1169.34265,0.04582
1168.31239,0.04591
1167.28214,0.04599
1166.25188,0.04595
1165.22162,0.04585
1164.19136,0.04576
1163.16110,0.04587
1162.13085,0.04618
1161.10059,0.04623
1160.07033,0.04598
1159.04007,0.04597
1158.00982,0.04614
1156.97956,0.04621
1155.94930,0.04630
1154.91904,0.04644
1153.88878,0.04656
1152.85853,0.04661
1151.82827,0.04659
1150.79801,0.04666
1149.76775,0.04669
1148.73749,0.04646
1147.70724,0.04631
1146.67698,0.04634
1145.64672,0.04636
1144.61646,0.04636
1143.58621,0.04624
1142.55595,0.04610
1141.52569,0.04614
1140.49543,0.04627
1139.46517,0.04642
1138.43492,0.04641
1137.40466,0.04636
1136.37440,0.04657
1135.34414,0.04671
1134.31388,0.04665
1133.28363,0.04659
1132.25337,0.04638
1131.22311,0.04627
1130.19285,0.04650
1129.16260,0.04666
1128.13234,0.04688
1127.10208,0.04737
1126.07182,0.04769
1125.04156,0.04772
1124.01131,0.04766
1122.98105,0.04752
1121.95079,0.04749
1120.92053,0.04776
1119.89027,0.04788
1118.86002,0.04766
1117.82976,0.04735
1116.79950,0.04713
1115.76924,0.04706
1114.73899,0.04704
1113.70873,0.04704
1112.67847,0.04714
1111.64821,0.04719
1110.61795,0.04700
1109.58770,0.04675
1108.55744,0.04687
1107.52718,0.04739
1106.49692,0.04798
1105.46667,0.04826
1104.43641,0.04794
1103.40615,0.04748
1102.37589,0.04753
1101.34563,0.04781
1100.31538,0.04790
1099.28512,0.04777
1098.25486,0.04765
1097.22460,0.04777
1096.19434,0.04791
1095.16409,0.04792
1094.13383,0.04803
1093.10357,0.04813
1092.07331,0.04816
1091.04306,0.04817
1090.01280,0.04831
1088.98254,0.04868
1087.95228,0.04880
1086.92202,0.04873
1085.89177,0.04878
1084.86151,0.04881
1083.83125,0.04883
1082.80099,0.04914
1081.77073,0.04958
1080.74048,0.04965
1079.71022,0.04944
1078.67996,0.04929
1077.64970,0.04926
1076.61945,0.04945
1075.58919,0.04971
1074.55893,0.04984
1073.52867,0.04987
1072.49841,0.04980
1071.46816,0.04967
1070.43790,0.04955
1069.40764,0.04940
1068.37738,0.04931
1067.34712,0.04939
1066.31687,0.04950
1065.28661,0.04947
1064.25635,0.04914
1063.22609,0.04885
1062.19584,0.04915
1061.16558,0.04952
1060.13532,0.04939
1059.10506,0.04916
1058.07480,0.04931
1057.04455,0.04961
1056.01429,0.04970
1054.98403,0.04959
1053.95377,0.04958
1052.92352,0.04971
1051.89326,0.04975
1050.86300,0.04975
1049.83274,0.04975
1048.80248,0.04981
1047.77223,0.05002
1046.74197,0.05022
1045.71171,0.05029
1044.68145,0.05028
1043.65119,0.05021
1042.62094,0.05025
1041.59068,0.05040
1040.56042,0.05033
1039.53016,0.05006
1038.49991,0.04986
1037.46965,0.04996
1036.43939,0.05025
1035.40913,0.05058
1034.37887,0.05097
1033.34862,0.05118
1032.31836,0.05115
1031.28810,0.05093
1030.25784,0.05066
1029.22758,0.05064
1028.19733,0.05089
1027.16707,0.05113
1026.13681,0.05119
1025.10655,0.05125
1024.07630,0.05140
1023.04604,0.05168
1022.01578,0.05217
1020.98552,0.05240
1019.95526,0.05223
1018.92501,0.05217
1017.89475,0.05253
1016.86449,0.05302
1015.83423,0.05310
1014.80397,0.05295
1013.77372,0.05306
1012.74346,0.05333
1011.71320,0.05340
1010.68294,0.05322
1009.65269,0.05327
1008.62243,0.05355
1007.59217,0.05378
1006.56191,0.05395
1005.53165,0.05404
1004.50140,0.05400
1003.47114,0.05406
1002.44088,0.05446
1001.41062,0.05495
1000.38037,0.05520
999.35011,0.05528
998.31985,0.05557
997.28959,0.05608
996.25933,0.05642
995.22908,0.05654
994.19882,0.05680
993.16856,0.05731
992.13830,0.05758
991.10804,0.05747
990.07779,0.05761
989.04753,0.05812
988.01727,0.05851
986.98701,0.05873
985.95676,0.05909
984.92650,0.05939
983.89624,0.05948
982.86598,0.05965
981.83572,0.05993
980.80547,0.06015
979.77521,0.06014
978.74495,0.06003
977.71469,0.06047
976.68443,0.06132
975.65418,0.06187
974.62392,0.06206
973.59366,0.06236
972.56340,0.06299
971.53315,0.06364
970.50289,0.06416
969.47263,0.06466
968.44237,0.06510
967.41211,0.06548
966.38186,0.06612
965.35160,0.06710
964.32134,0.06823
963.29108,0.06942
962.26082,0.07063
961.23057,0.07208
960.20031,0.07394
959.17005,0.07598
958.13979,0.07833
957.10954,0.08124
956.07928,0.08452
955.04902,0.08787
954.01876,0.09109
952.98850,0.09394
951.95825,0.09599
950.92799,0.09689
949.89773,0.09697
948.86747,0.09698
947.83722,0.09695
946.80696,0.09613
945.77670,0.09423
944.74644,0.09187
943.71618,0.08962
942.68593,0.08751
941.65567,0.08573
940.62541,0.08450
939.59515,0.08373
938.56489,0.08324
937.53464,0.08273
936.50438,0.08215
935.47412,0.08176
934.44386,0.08170
933.41361,0.08192
932.38335,0.08222
931.35309,0.08258
930.32283,0.08302
929.29257,0.08312
928.26232,0.08298
927.23206,0.08336
926.20180,0.08408
925.17154,0.08468
924.14128,0.08507
923.11103,0.08545
922.08077,0.08595
921.05051,0.08634
920.02025,0.08675
918.99000,0.08749
917.95974,0.08823
916.92948,0.08896
915.89922,0.08993
914.86896,0.09094
913.83871,0.09173
912.80845,0.09242
911.77819,0.09316
910.74793,0.09368
909.71768,0.09392
908.68742,0.09433
907.65716,0.09514
906.62690,0.09632
905.59664,0.09752
904.56639,0.09859
903.53613,0.09975
902.50587,0.10063
901.47561,0.10120
900.44535,0.10185
899.41510,0.10240
898.38484,0.10298
897.35458,0.10373
896.32432,0.10467
895.29407,0.10599
894.26381,0.10729
893.23355,0.10801
892.20329,0.10852
891.17303,0.10933
890.14278,0.11030
889.11252,0.11125
888.08226,0.11230
887.05200,0.11329
886.02174,0.11405
884.99149,0.11500
883.96123,0.11634
882.93097,0.11752
881.90071,0.11840
880.87046,0.11940
879.84020,0.12044
878.80994,0.12124
877.77968,0.12212
876.74942,0.12359
875.71917,0.12522
874.68891,0.12649
873.65865,0.12719
872.62839,0.12750
871.59813,0.12809
870.56788,0.12907
869.53762,0.13024
868.50736,0.13194
867.47710,0.13365
866.44685,0.13448
865.41659,0.13501
864.38633,0.13606
863.35607,0.13739
862.32581,0.13854
861.29556,0.13972
860.26530,0.14096
859.23504,0.14181
858.20478,0.14241
857.17453,0.14340
856.14427,0.14524
855.11401,0.14720
854.08375,0.14831
853.05349,0.14877
852.02324,0.14935
850.99298,0.15050
849.96272,0.15211
848.93246,0.15384
847.90220,0.15535
846.87195,0.15639
845.84169,0.15716
844.81143,0.15849
843.78117,0.16039
842.75092,0.16169
841.72066,0.16231
840.69040,0.16322
839.66014,0.16460
838.62988,0.16562
837.59963,0.16651
836.56937,0.16831
835.53911,0.17012
834.50885,0.17112
833.47859,0.17230
832.44834,0.17388
831.41808,0.17520
830.38782,0.17642
829.35756,0.17793
828.32731,0.17924
827.29705,0.18016
826.26679,0.18157
825.23653,0.18331
824.20627,0.18471
823.17602,0.18615
822.14576,0.18802
821.11550,0.18942
820.08524,0.18973
819.05498,0.19011
818.02473,0.19137
816.99447,0.19305
815.96421,0.19462
814.93395,0.19566
813.90370,0.19658
812.87344,0.19785
811.84318,0.19900
810.81292,0.19988
809.78266,0.20120
808.75241,0.20284
807.72215,0.20427
806.69189,0.20587
805.66163,0.20771
804.63138,0.20927
803.60112,0.21029
802.57086,0.21144
801.54060,0.21323
800.51034,0.21473
799.48009,0.21581
798.44983,0.21722
797.41957,0.21869
796.38931,0.21998
795.35905,0.22119
794.32880,0.22250
793.29854,0.22390
792.26828,0.22499
791.23802,0.22631
790.20777,0.22838
789.17751,0.23037
788.14725,0.23157
787.11699,0.23220
786.08673,0.23312
785.05648,0.23475
784.02622,0.23662
782.99596,0.23833
781.96570,0.23985
780.93544,0.24100
779.90519,0.24211
778.87493,0.24366
777.84467,0.24521
776.81441,0.24652
775.78416,0.24812
774.75390,0.24998
773.72364,0.25133
772.69338,0.25208
771.66312,0.25292
770.63287,0.25431
769.60261,0.25637
768.57235,0.25878
767.54209,0.26084
766.51183,0.26248
765.48158,0.26419
764.45132,0.26601
763.42106,0.26764
762.39080,0.26965
761.36055,0.27231
760.33029,0.27478
759.30003,0.27727
758.26977,0.28005
757.23951,0.28221
756.20926,0.28341
755.17900,0.28430
754.14874,0.28501
753.11848,0.28587
752.08823,0.28715
751.05797,0.28833
750.02771,0.28929
748.99745,0.29019
747.96719,0.29125
746.93694,0.29250
745.90668,0.29338
744.87642,0.29427
743.84616,0.29546
742.81590,0.29668
741.78565,0.29817
740.75539,0.29916
739.72513,0.29958
738.69487,0.30084
737.66462,0.30277
736.63436,0.30420
735.60410,0.30529
734.57384,0.30659
733.54358,0.30798
732.51333,0.30923
731.48307,0.31035
730.45281,0.31179
729.42255,0.31371
728.39229,0.31548
727.36204,0.31686
726.33178,0.31797
725.30152,0.31870
724.27126,0.31987
723.24101,0.32168
722.21075,0.32320
721.18049,0.32486
720.15023,0.32694
719.11997,0.32866
718.08972,0.32953
717.05946,0.33005
716.02920,0.33093
714.99894,0.33236
713.96868,0.33411
712.93843,0.33584
711.90817,0.33678
710.87791,0.33692
709.84765,0.33802
708.81740,0.34041
707.78714,0.34262
706.75688,0.34439
705.72662,0.34614
704.69636,0.34775
703.66611,0.34972
702.63585,0.35158
701.60559,0.35176
700.57533,0.35122
699.54508,0.35160
698.51482,0.35297
697.48456,0.35507
696.45430,0.35693
695.42404,0.35779
694.39379,0.35857
693.36353,0.36005
692.33327,0.36195
691.30301,0.36380
690.27275,0.36499
689.24250,0.36548
688.21224,0.36661
687.18198,0.36894
686.15172,0.37053
685.12147,0.37098
684.09121,0.37222
683.06095,0.37425
682.03069,0.37564
681.00043,0.37649
679.97018,0.37749
678.93992,0.37845
677.90966,0.37983
676.87940,0.38233
675.84914,0.38415
674.81889,0.38412
673.78863,0.38405
672.75837,0.38492
671.72811,0.38603
670.69786,0.38778
669.66760,0.39122
668.63734,0.39465
667.60708,0.39381
666.57682,0.39389
665.54657,0.39625
664.51631,0.39818
663.48605,0.39872
662.45579,0.39866
661.42553,0.39897
660.39528,0.40033
659.36502,0.40173
658.33476,0.40181
657.30450,0.40119
656.27425,0.40241
655.24399,0.40593
654.21373,0.40828
653.18347,0.40885
652.15321,0.40954
651.12296,0.41028
650.09270,0.41172
649.06244,0.41437
648.03218,0.41591
647.00193,0.41647
645.97167,0.41815
644.94141,0.42000
643.91115,0.42113
642.88089,0.42242
641.85064,0.42390
640.82038,0.42397
639.79012,0.42306
638.75986,0.42375
637.72960,0.42615
636.69935,0.42815
635.66909,0.42827
634.63883,0.42810
633.60857,0.42963
632.57832,0.43164
631.54806,0.43304
630.51780,0.43407
629.48754,0.43487
628.45728,0.43575
627.42703,0.43684
626.39677,0.43804
625.36651,0.43942
624.33625,0.44112
623.30599,0.44350
622.27574,0.44580
621.24548,0.44660
620.21522,0.44613
619.18496,0.44571
618.15471,0.44515
617.12445,0.44388
616.09419,0.44405
615.06393,0.44681
614.03367,0.44993
613.00342,0.45174
611.97316,0.45192
610.94290,0.45138
609.91264,0.45176
608.88238,0.45249
607.85213,0.45289
606.82187,0.45399
605.79161,0.45629
604.76135,0.45968
603.73110,0.46211
602.70084,0.46233
601.67058,0.46199
600.64032,0.46237
599.61006,0.46387
598.57981,0.46509
597.54955,0.46477
596.51929,0.46372
595.48903,0.46365
594.45878,0.46537
593.42852,0.46802
592.39826,0.47057
591.36800,0.47117
590.33774,0.47041
589.30749,0.47128
588.27723,0.47239
587.24697,0.47210
586.21671,0.47237
585.18645,0.47425
584.15620,0.47759
583.12594,0.48021
582.09568,0.47965
581.06542,0.47879
580.03517,0.48001
579.00491,0.48174
577.97465,0.48289
576.94439,0.48236
575.91413,0.48052
574.88388,0.47980
573.85362,0.48127
572.82336,0.48439
571.79310,0.48708
570.76284,0.48693
569.73259,0.48613
568.70233,0.48709
567.67207,0.48632
566.64181,0.48384
565.61156,0.48397
564.58130,0.48576
563.55104,0.48677
562.52078,0.48769
561.49052,0.48759
560.46027,0.48653
559.43001,0.48742
558.39975,0.48946
557.36949,0.49017
556.33924,0.49157
555.30898,0.49620
554.27872,0.50023
553.24846,0.49949
552.21820,0.49563
551.18795,0.49296
550.15769,0.49368
549.12743,0.49576
548.09717,0.49754
547.06691,0.49861
546.03666,0.49852
545.00640,0.49914
543.97614,0.50187
542.94588,0.50423
541.91563,0.50366
540.88537,0.50163
539.85511,0.50111
538.82485,0.50146
537.79459,0.50106
536.76434,0.50120
535.73408,0.50301
534.70382,0.50511
533.67356,0.50539
532.64330,0.50461
531.61305,0.50478
530.58279,0.50655
529.55253,0.50935
528.52227,0.51193
527.49202,0.51290
526.46176,0.51244
525.43150,0.51092
524.40124,0.50811
523.37098,0.50718
522.34073,0.50915
521.31047,0.50976
520.28021,0.51012
519.24995,0.51426
518.21969,0.51784
517.18944,0.51683
516.15918,0.51631
515.12892,0.51900
514.09866,0.52141
513.06841,0.52356
512.03815,0.52731
511.00789,0.53056
509.97763,0.53353
508.94737,0.53664
507.91712,0.53594
506.88686,0.53205
505.85660,0.53200
504.82634,0.53747
503.79609,0.54106
502.76583,0.54082
501.73557,0.54083
500.70531,0.54299
499.67505,0.54596
498.64480,0.54538
497.61454,0.54296
496.58428,0.54275
495.55402,0.54614
494.52376,0.55215
493.49351,0.55569
492.46325,0.55216
491.43299,0.54389
490.40273,0.54070
489.37248,0.54260
488.34222,0.54076
487.31196,0.53794
486.28170,0.54011
485.25144,0.54238
484.22119,0.54406
483.19093,0.54599
482.16067,0.54326
481.13041,0.54033
480.10015,0.54131
479.06990,0.54207
478.03964,0.54104
477.00938,0.53805
475.97912,0.53336
474.94887,0.53151
473.91861,0.53509
472.88835,0.54093
471.85809,0.54387
470.82783,0.54370
469.79758,0.54318
468.76732,0.54612
467.73706,0.55212
466.70680,0.55539
465.67654,0.55942
464.64629,0.56417
463.61603,0.56288
462.58577,0.56097
461.55551,0.56723
460.52526,0.57688
459.49500,0.57830
458.46474,0.57265
457.43448,0.56785
456.40422,0.56668
455.37397,0.56856
454.34371,0.56817
453.31345,0.56281
452.28319,0.56042
451.25294,0.56135
450.22268,0.56007
449.19242,0.55886
448.16216,0.56006
447.13190,0.56199
446.10165,0.56209
445.07139,0.55908
444.04113,0.55613
443.01087,0.55532
441.98061,0.55429
440.95036,0.55493
439.92010,0.55664
438.88984,0.55102
437.85958,0.54054
436.82933,0.53892
435.79907,0.54864
434.76881,0.55976
433.73855,0.56228
432.70829,0.55807
431.67804,0.55682
430.64778,0.55553
429.61752,0.55066
428.58726,0.54782
427.55700,0.54897
426.52675,0.55028
425.49649,0.55166
424.46623,0.55540
423.43597,0.55525
422.40572,0.54690
421.37546,0.53710
420.34520,0.53107
419.31494,0.53309
418.28468,0.53779
417.25443,0.53560
416.22417,0.53592
415.19391,0.54165
414.16365,0.54513
413.13339,0.53925
412.10314,0.52944
411.07288,0.52792
410.04262,0.53857
409.01236,0.55361
407.98211,0.56453
406.95185,0.57080
405.92159,0.57277
404.89133,0.57070
403.86107,0.56088
402.83082,0.54628
401.80056,0.54148
400.77030,0.54728
399.74004,0.55189
