4998.81105,0.00255
4997.78079,0.00330
4996.75054,0.00373
4995.72028,0.00316
4994.69002,0.00252
4993.65976,0.00254
4992.62951,0.00268
4991.59925,0.00300
4990.56899,0.00367
4989.53873,0.00360
4988.50847,0.00285
4987.47822,0.00234
4986.44796,0.00207
4985.41770,0.00203
4984.38744,0.00243
4983.35718,0.00342
4982.32693,0.00427
4981.29667,0.00409
4980.26641,0.00400
4979.23615,0.00478
4978.20590,0.00540
4977.17564,0.00517
4976.14538,0.00429
4975.11512,0.00385
4974.08486,0.00442
4973.05461,0.00445
4972.02435,0.00340
4970.99409,0.00268
4969.96383,0.00256
4968.93357,0.00252
4967.90332,0.00279
4966.87306,0.00320
4965.84280,0.00344
4964.81254,0.00384
4963.78229,0.00403
4962.75203,0.00367
4961.72177,0.00325
4960.69151,0.00303
4959.66125,0.00320
4958.63100,0.00389
4957.60074,0.00464
4956.57048,0.00489
4955.54022,0.00470
4954.50997,0.00416
4953.47971,0.00358
4952.44945,0.00347
4951.41919,0.00379
4950.38893,0.00440
4949.35868,0.00513
4948.32842,0.00514
4947.29816,0.00406
4946.26790,0.00341
4945.23764,0.00322
4944.20739,0.00274
4943.17713,0.00253
4942.14687,0.00232
4941.11661,0.00219
4940.08636,0.00262
4939.05610,0.00301
4938.02584,0.00291
4936.99558,0.00276
4935.96532,0.00278
4934.93507,0.00235
4933.90481,0.00209
4932.87455,0.00266
4931.84429,0.00242
4930.81403,0.00160
4929.78378,0.00195
4928.75352,0.00277
4927.72326,0.00284
4926.69300,0.00240
4925.66275,0.00226
4924.63249,0.00262
4923.60223,0.00297
4922.57197,0.00321
4921.54171,0.00358
4920.51146,0.00407
4919.48120,0.00431
4918.45094,0.00394
4917.42068,0.00312
4916.39042,0.00266
4915.36017,0.00292
4914.32991,0.00264
4913.29965,0.00142
4912.26939,0.00075
4911.23914,0.00128
4910.20888,0.00226
4909.17862,0.00295
4908.14836,0.00365
4907.11810,0.00426
4906.08785,0.00374
4905.05759,0.00333
4904.02733,0.00404
4902.99707,0.00381
4901.96682,0.00306
4900.93656,0.00335
4899.90630,0.00376
4898.87604,0.00393
4897.84578,0.00380
4896.81553,0.00310
4895.78527,0.00257
4894.75501,0.00304
4893.72475,0.00383
4892.69449,0.00381
4891.66424,0.00311
4890.63398,0.00272
4889.60372,0.00290
4888.57346,0.00277
4887.54321,0.00243
4886.51295,0.00294
4885.48269,0.00408
4884.45243,0.00458
4883.42217,0.00422
4882.39192,0.00374
4881.36166,0.00351
4880.33140,0.00310
4879.30114,0.00254
4878.27088,0.00260
4877.24063,0.00304
4876.21037,0.00316
4875.18011,0.00313
4874.14985,0.00315
4873.11960,0.00270
4872.08934,0.00166
4871.05908,0.00080
4870.02882,0.00131
4868.99856,0.00271
4867.96831,0.00331
4866.93805,0.00318
4865.90779,0.00349
4864.87753,0.00388
4863.84727,0.00356
4862.81702,0.00302
4861.78676,0.00230
4860.75650,0.00145
4859.72624,0.00102
4858.69599,0.00093
4857.66573,0.00094
4856.63547,0.00100
4855.60521,0.00112
4854.57495,0.00125
4853.54470,0.00104
4852.51444,0.00083
4851.48418,0.00149
4850.45392,0.00211
4849.42367,0.00201
4848.39341,0.00212
4847.36315,0.00212
4846.33289,0.00171
4845.30263,0.00181
4844.27238,0.00274
4843.24212,0.00368
4842.21186,0.00394
4841.18160,0.00378
4840.15134,0.00335
4839.12109,0.00256
4838.09083,0.00197
4837.06057,0.00193
4836.03031,0.00213
4835.00006,0.00211
4833.96980,0.00159
4832.93954,0.00127
4831.90928,0.00174
4830.87902,0.00256
4829.84877,0.00318
4828.81851,0.00287
4827.78825,0.00176
4826.75799,0.00133
4825.72773,0.00176
4824.69748,0.00247
4823.66722,0.00317
4822.63696,0.00342
4821.60670,0.00292
4820.57645,0.00243
4819.54619,0.00285
4818.51593,0.00346
4817.48567,0.00353
4816.45541,0.00338
4815.42516,0.00347
4814.39490,0.00383
4813.36464,0.00407
4812.33438,0.00356
4811.30412,0.00229
4810.27387,0.00146
4809.24361,0.00181
4808.21335,0.00242
4807.18309,0.00231
4806.15284,0.00214
4805.12258,0.00251
4804.09232,0.00281
4803.06206,0.00259
4802.03180,0.00192
4801.00155,0.00189
4799.97129,0.00251
4798.94103,0.00271
4797.91077,0.00287
4796.88052,0.00265
4795.85026,0.00212
4794.82000,0.00225
4793.78974,0.00244
4792.75948,0.00250
4791.72923,0.00300
4790.69897,0.00352
4789.66871,0.00323
4788.63845,0.00188
4787.60819,0.00067
4786.57794,0.00067
4785.54768,0.00145
4784.51742,0.00259
4783.48716,0.00319
4782.45691,0.00229
4781.42665,0.00133
4780.39639,0.00170
4779.36613,0.00258
4778.33587,0.00260
4777.30562,0.00195
4776.27536,0.00164
4775.24510,0.00162
4774.21484,0.00172
4773.18458,0.00224
4772.15433,0.00298
4771.12407,0.00309
4770.09381,0.00246
4769.06355,0.00174
4768.03330,0.00161
4767.00304,0.00167
4765.97278,0.00126
4764.94252,0.00173
4763.91226,0.00293
4762.88201,0.00313
4761.85175,0.00271
4760.82149,0.00253
4759.79123,0.00244
4758.76098,0.00235
4757.73072,0.00275
4756.70046,0.00363
4755.67020,0.00403
4754.63994,0.00419
4753.60969,0.00436
4752.57943,0.00355
4751.54917,0.00280
4750.51891,0.00355
4749.48865,0.00419
4748.45840,0.00341
4747.42814,0.00271
4746.39788,0.00318
4745.36762,0.00383
4744.33737,0.00350
4743.30711,0.00231
4742.27685,0.00153
4741.24659,0.00175
4740.21633,0.00214
4739.18608,0.00238
4738.15582,0.00253
4737.12556,0.00230
4736.09530,0.00209
4735.06504,0.00233
4734.03479,0.00262
4733.00453,0.00280
4731.97427,0.00305
4730.94401,0.00317
4729.91376,0.00302
4728.88350,0.00264
4727.85324,0.00249
4726.82298,0.00304
4725.79272,0.00355
4724.76247,0.00285
4723.73221,0.00139
4722.70195,0.00042
4721.67169,0.00055
4720.64143,0.00175
4719.61118,0.00290
4718.58092,0.00263
4717.55066,0.00151
4716.52040,0.00121
4715.49015,0.00210
4714.45989,0.00319
4713.42963,0.00356
4712.39937,0.00350
4711.36911,0.00337
4710.33886,0.00269
4709.30860,0.00208
4708.27834,0.00186
4707.24808,0.00129
4706.21783,0.00080
4705.18757,0.00097
4704.15731,0.00146
4703.12705,0.00184
4702.09679,0.00188
4701.06654,0.00139
4700.03628,0.00102
4699.00602,0.00163
4697.97576,0.00257
4696.94550,0.00244
4695.91525,0.00155
4694.88499,0.00158
4693.85473,0.00235
4692.82447,0.00253
4691.79422,0.00215
4690.76396,0.00134
4689.73370,0.00088
4688.70344,0.00191
4687.67318,0.00286
4686.64293,0.00258
4685.61267,0.00237
4684.58241,0.00245
4683.55215,0.00215
4682.52189,0.00186
4681.49164,0.00225
4680.46138,0.00280
4679.43112,0.00282
4678.40086,0.00262
4677.37061,0.00289
4676.34035,0.00325
4675.31009,0.00305
4674.27983,0.00264
4673.24957,0.00270
4672.21932,0.00321
4671.18906,0.00356
4670.15880,0.00330
4669.12854,0.00263
4668.09828,0.00234
4667.06803,0.00281
4666.03777,0.00343
4665.00751,0.00362
4663.97725,0.00362
4662.94700,0.00398
4661.91674,0.00431
4660.88648,0.00408
4659.85622,0.00349
4658.82596,0.00256
4657.79571,0.00156
4656.76545,0.00122
4655.73519,0.00165
4654.70493,0.00232
4653.67468,0.00228
4652.64442,0.00156
4651.61416,0.00135
4650.58390,0.00164
4649.55364,0.00192
4648.52339,0.00226
4647.49313,0.00256
4646.46287,0.00256
4645.43261,0.00228
4644.40235,0.00236
4643.37210,0.00272
4642.34184,0.00253
4641.31158,0.00210
4640.28132,0.00186
4639.25107,0.00205
4638.22081,0.00290
4637.19055,0.00366
4636.16029,0.00340
4635.13003,0.00226
4634.09978,0.00153
4633.06952,0.00148
4632.03926,0.00146
4631.00900,0.00167
4629.97874,0.00214
4628.94849,0.00254
4627.91823,0.00298
4626.88797,0.00323
4625.85771,0.00294
4624.82746,0.00278
4623.79720,0.00296
4622.76694,0.00277
4621.73668,0.00214
4620.70642,0.00176
4619.67617,0.00213
4618.64591,0.00269
4617.61565,0.00279
4616.58539,0.00307
4615.55513,0.00305
4614.52488,0.00171
4613.49462,0.00089
4612.46436,0.00163
4611.43410,0.00224
4610.40385,0.00218
4609.37359,0.00170
4608.34333,0.00128
4607.31307,0.00190
4606.28281,0.00244
4605.25256,0.00189
4604.22230,0.00131
4603.19204,0.00132
4602.16178,0.00137
4601.13153,0.00117
4600.10127,0.00151
4599.07101,0.00221
4598.04075,0.00245
4597.01049,0.00267
4595.98024,0.00272
4594.94998,0.00206
4593.91972,0.00165
4592.88946,0.00169
4591.85920,0.00154
4590.82895,0.00169
4589.79869,0.00233
4588.76843,0.00287
4587.73817,0.00314
4586.70792,0.00343
4585.67766,0.00336
4584.64740,0.00281
4583.61714,0.00252
4582.58688,0.00224
4581.55663,0.00138
4580.52637,0.00103
4579.49611,0.00156
4578.46585,0.00202
4577.43559,0.00232
4576.40534,0.00250
4575.37508,0.00259
4574.34482,0.00248
4573.31456,0.00184
4572.28431,0.00127
4571.25405,0.00147
4570.22379,0.00218
4569.19353,0.00249
4568.16327,0.00200
4567.13302,0.00164
4566.10276,0.00188
4565.07250,0.00206
4564.04224,0.00206
4563.01198,0.00211
4561.98173,0.00213
4560.95147,0.00210
4559.92121,0.00191
4558.89095,0.00135
4557.86070,0.00083
4556.83044,0.00101
4555.80018,0.00172
4554.76992,0.00233
4553.73966,0.00269
4552.70941,0.00259
4551.67915,0.00214
4550.64889,0.00200
4549.61863,0.00220
4548.58838,0.00232
4547.55812,0.00214
4546.52786,0.00206
4545.49760,0.00234
4544.46734,0.00232
4543.43709,0.00208
4542.40683,0.00221
4541.37657,0.00238
4540.34631,0.00251
4539.31605,0.00290
4538.28580,0.00334
4537.25554,0.00351
4536.22528,0.00323
4535.19502,0.00277
4534.16477,0.00236
4533.13451,0.00192
4532.10425,0.00215
4531.07399,0.00270
4530.04373,0.00201
4529.01348,0.00075
4527.98322,0.00054
4526.95296,0.00141
4525.92270,0.00247
4524.89244,0.00292
4523.86219,0.00261
4522.83193,0.00233
4521.80167,0.00261
4520.77141,0.00274
4519.74116,0.00234
4518.71090,0.00182
4517.68064,0.00134
4516.65038,0.00143
4515.62012,0.00202
4514.58987,0.00219
4513.55961,0.00225
4512.52935,0.00287
4511.49909,0.00354
4510.46883,0.00354
4509.43858,0.00274
4508.40832,0.00167
4507.37806,0.00156
4506.34780,0.00232
4505.31755,0.00270
4504.28729,0.00252
4503.25703,0.00214
4502.22677,0.00202
4501.19651,0.00203
4500.16626,0.00153
4499.13600,0.00112
4498.10574,0.00138
4497.07548,0.00179
4496.04523,0.00190
4495.01497,0.00175
4493.98471,0.00152
4492.95445,0.00161
4491.92419,0.00197
4490.89394,0.00198
4489.86368,0.00176
4488.83342,0.00210
4487.80316,0.00281
4486.77290,0.00284
4485.74265,0.00203
4484.71239,0.00144
4483.68213,0.00168
4482.65187,0.00247
4481.62162,0.00299
4480.59136,0.00255
4479.56110,0.00213
4478.53084,0.00269
4477.50058,0.00357
4476.47033,0.00377
4475.44007,0.00293
4474.40981,0.00187
4473.37955,0.00146
4472.34929,0.00137
4471.31904,0.00139
4470.28878,0.00183
4469.25852,0.00213
4468.22826,0.00183
4467.19801,0.00189
4466.16775,0.00223
4465.13749,0.00218
4464.10723,0.00237
4463.07697,0.00266
4462.04672,0.00237
4461.01646,0.00208
4459.98620,0.00210
4458.95594,0.00200
4457.92568,0.00172
4456.89543,0.00124
4455.86517,0.00103
4454.83491,0.00173
4453.80465,0.00247
4452.77440,0.00274
4451.74414,0.00286
4450.71388,0.00279
4449.68362,0.00274
4448.65336,0.00249
4447.62311,0.00187
4446.59285,0.00145
4445.56259,0.00156
4444.53233,0.00190
4443.50208,0.00182
4442.47182,0.00130
4441.44156,0.00136
4440.41130,0.00222
4439.38104,0.00278
4438.35079,0.00247
4437.32053,0.00228
4436.29027,0.00289
4435.26001,0.00324
4434.22975,0.00265
4433.19950,0.00168
4432.16924,0.00137
4431.13898,0.00215
4430.10872,0.00291
4429.07847,0.00260
4428.04821,0.00180
4427.01795,0.00155
4425.98769,0.00180
4424.95743,0.00233
4423.92718,0.00273
4422.89692,0.00258
4421.86666,0.00248
4420.83640,0.00295
4419.80614,0.00366
4418.77589,0.00364
4417.74563,0.00297
4416.71537,0.00251
4415.68511,0.00256
4414.65486,0.00285
4413.62460,0.00272
4412.59434,0.00218
4411.56408,0.00182
4410.53382,0.00194
4409.50357,0.00246
4408.47331,0.00316
4407.44305,0.00350
4406.41279,0.00294
4405.38253,0.00206
4404.35228,0.00185
4403.32202,0.00217
4402.29176,0.00253
4401.26150,0.00278
4400.23125,0.00270
4399.20099,0.00220
4398.17073,0.00175
4397.14047,0.00218
4396.11021,0.00293
4395.07996,0.00294
4394.04970,0.00281
4393.01944,0.00281
4391.98918,0.00221
4390.95893,0.00159
4389.92867,0.00184
4388.89841,0.00219
4387.86815,0.00231
4386.83789,0.00283
4385.80764,0.00346
4384.77738,0.00378
4383.74712,0.00349
4382.71686,0.00242
4381.68660,0.00166
4380.65635,0.00220
4379.62609,0.00301
4378.59583,0.00303
4377.56557,0.00278
4376.53532,0.00252
4375.50506,0.00220
4374.47480,0.00232
4373.44454,0.00288
4372.41428,0.00298
4371.38403,0.00250
4370.35377,0.00252
4369.32351,0.00272
4368.29325,0.00245
4367.26299,0.00250
4366.23274,0.00299
4365.20248,0.00333
4364.17222,0.00330
4363.14196,0.00307
4362.11171,0.00273
4361.08145,0.00266
4360.05119,0.00304
4359.02093,0.00347
4357.99067,0.00363
4356.96042,0.00368
4355.93016,0.00357
4354.89990,0.00302
4353.86964,0.00249
4352.83939,0.00220
4351.80913,0.00216
4350.77887,0.00260
4349.74861,0.00302
4348.71835,0.00278
4347.68810,0.00190
4346.65784,0.00131
4345.62758,0.00164
4344.59732,0.00224
4343.56706,0.00253
4342.53681,0.00292
4341.50655,0.00331
4340.47629,0.00330
4339.44603,0.00305
4338.41578,0.00256
4337.38552,0.00206
4336.35526,0.00196
4335.32500,0.00239
4334.29474,0.00291
4333.26449,0.00291
4332.23423,0.00272
4331.20397,0.00271
4330.17371,0.00250
4329.14345,0.00214
4328.11320,0.00228
4327.08294,0.00282
4326.05268,0.00286
4325.02242,0.00246
4323.99217,0.00223
4322.96191,0.00211
4321.93165,0.00219
4320.90139,0.00248
4319.87113,0.00248
4318.84088,0.00207
4317.81062,0.00147
4316.78036,0.00136
4315.75010,0.00197
4314.71984,0.00260
4313.68959,0.00296
4312.65933,0.00303
4311.62907,0.00272
4310.59881,0.00241
4309.56856,0.00216
4308.53830,0.00187
4307.50804,0.00165
4306.47778,0.00177
4305.44752,0.00198
4304.41727,0.00192
4303.38701,0.00209
4302.35675,0.00267
4301.32649,0.00301
4300.29624,0.00265
4299.26598,0.00188
4298.23572,0.00144
4297.20546,0.00187
4296.17520,0.00243
4295.14495,0.00258
4294.11469,0.00250
4293.08443,0.00219
4292.05417,0.00235
4291.02391,0.00289
4289.99366,0.00288
4288.96340,0.00287
4287.93314,0.00301
4286.90288,0.00287
4285.87263,0.00289
4284.84237,0.00303
4283.81211,0.00304
4282.78185,0.00296
4281.75159,0.00302
4280.72134,0.00307
4279.69108,0.00260
4278.66082,0.00193
4277.63056,0.00170
4276.60030,0.00176
4275.57005,0.00195
4274.53979,0.00214
4273.50953,0.00207
4272.47927,0.00228
4271.44902,0.00311
4270.41876,0.00375
4269.38850,0.00359
4268.35824,0.00308
4267.32798,0.00264
4266.29773,0.00226
4265.26747,0.00194
4264.23721,0.00180
4263.20695,0.00229
4262.17669,0.00297
4261.14644,0.00315
4260.11618,0.00301
4259.08592,0.00287
4258.05566,0.00272
4257.02541,0.00258
4255.99515,0.00277
4254.96489,0.00296
4253.93463,0.00268
4252.90437,0.00233
4251.87412,0.00258
4250.84386,0.00340
4249.81360,0.00363
4248.78334,0.00281
4247.75309,0.00218
4246.72283,0.00242
4245.69257,0.00268
4244.66231,0.00273
4243.63205,0.00319
4242.60180,0.00386
4241.57154,0.00403
4240.54128,0.00358
4239.51102,0.00306
4238.48076,0.00289
4237.45051,0.00301
4236.42025,0.00302
4235.38999,0.00276
4234.35973,0.00263
4233.32948,0.00285
4232.29922,0.00318
4231.26896,0.00318
4230.23870,0.00300
4229.20844,0.00326
4228.17819,0.00342
4227.14793,0.00290
4226.11767,0.00249
4225.08741,0.00269
4224.05715,0.00333
4223.02690,0.00375
4221.99664,0.00341
4220.96638,0.00287
4219.93612,0.00265
4218.90587,0.00283
4217.87561,0.00302
4216.84535,0.00275
4215.81509,0.00264
4214.78483,0.00293
4213.75458,0.00282
4212.72432,0.00264
4211.69406,0.00290
4210.66380,0.00290
4209.63354,0.00266
4208.60329,0.00279
4207.57303,0.00316
4206.54277,0.00335
4205.51251,0.00314
4204.48226,0.00262
4203.45200,0.00224
4202.42174,0.00233
4201.39148,0.00283
4200.36122,0.00312
4199.33097,0.00291
4198.30071,0.00248
4197.27045,0.00214
4196.24019,0.00195
4195.20994,0.00188
4194.17968,0.00209
4193.14942,0.00248
4192.11916,0.00258
4191.08890,0.00236
4190.05865,0.00227
4189.02839,0.00273
4187.99813,0.00344
4186.96787,0.00364
4185.93761,0.00346
4184.90736,0.00355
4183.87710,0.00366
4182.84684,0.00354
4181.81658,0.00337
4180.78633,0.00324
4179.75607,0.00325
4178.72581,0.00314
4177.69555,0.00285
4176.66529,0.00292
4175.63504,0.00316
4174.60478,0.00307
4173.57452,0.00300
4172.54426,0.00310
4171.51400,0.00323
4170.48375,0.00320
4169.45349,0.00305
4168.42323,0.00295
4167.39297,0.00246
4166.36272,0.00202
4165.33246,0.00258
4164.30220,0.00348
4163.27194,0.00394
4162.24168,0.00410
4161.21143,0.00392
4160.18117,0.00351
4159.15091,0.00325
4158.12065,0.00300
4157.09039,0.00296
4156.06014,0.00335
4155.02988,0.00367
4153.99962,0.00380
4152.96936,0.00389
4151.93911,0.00376
4150.90885,0.00345
4149.87859,0.00323
4148.84833,0.00322
4147.81807,0.00312
4146.78782,0.00277
4145.75756,0.00272
4144.72730,0.00303
4143.69704,0.00321
4142.66679,0.00311
4141.63653,0.00300
4140.60627,0.00306
4139.57601,0.00317
4138.54575,0.00335
4137.51550,0.00362
4136.48524,0.00365
4135.45498,0.00349
4134.42472,0.00339
4133.39446,0.00327
4132.36421,0.00321
4131.33395,0.00328
4130.30369,0.00345
4129.27343,0.00356
4128.24318,0.00326
4127.21292,0.00294
4126.18266,0.00318
4125.15240,0.00355
4124.12214,0.00349
4123.09189,0.00330
4122.06163,0.00346
4121.03137,0.00373
4120.00111,0.00356
4118.97085,0.00308
4117.94060,0.00281
4116.91034,0.00273
4115.88008,0.00274
4114.84982,0.00276
4113.81957,0.00284
4112.78931,0.00330
4111.75905,0.00384
4110.72879,0.00380
4109.69853,0.00337
4108.66828,0.00323
4107.63802,0.00355
4106.60776,0.00392
4105.57750,0.00391
4104.54724,0.00355
4103.51699,0.00300
4102.48673,0.00252
4101.45647,0.00271
4100.42621,0.00327
4099.39596,0.00343
4098.36570,0.00335
4097.33544,0.00325
4096.30518,0.00320
4095.27492,0.00330
4094.24467,0.00350
4093.21441,0.00368
4092.18415,0.00373
4091.15389,0.00352
4090.12364,0.00331
4089.09338,0.00352
4088.06312,0.00347
4087.03286,0.00308
4086.00260,0.00330
4084.97235,0.00385
4083.94209,0.00392
4082.91183,0.00366
4081.88157,0.00344
4080.85131,0.00336
4079.82106,0.00351
4078.79080,0.00389
4077.76054,0.00423
4076.73028,0.00418
4075.70003,0.00404
4074.66977,0.00422
4073.63951,0.00422
4072.60925,0.00388
4071.57899,0.00384
4070.54874,0.00387
4069.51848,0.00366
4068.48822,0.00387
4067.45796,0.00430
4066.42770,0.00431
4065.39745,0.00407
4064.36719,0.00380
4063.33693,0.00376
4062.30667,0.00370
4061.27642,0.00347
4060.24616,0.00326
4059.21590,0.00325
4058.18564,0.00370
4057.15538,0.00418
4056.12513,0.00441
4055.09487,0.00462
4054.06461,0.00469
4053.03435,0.00459
4052.00409,0.00456
4050.97384,0.00459
4049.94358,0.00433
4048.91332,0.00371
4047.88306,0.00342
4046.85281,0.00361
4045.82255,0.00375
4044.79229,0.00391
4043.76203,0.00420
4042.73177,0.00425
4041.70152,0.00414
4040.67126,0.00433
4039.64100,0.00458
4038.61074,0.00452
4037.58049,0.00406
4036.55023,0.00359
4035.51997,0.00358
4034.48971,0.00367
4033.45945,0.00375
4032.42920,0.00413
4031.39894,0.00453
4030.36868,0.00473
4029.33842,0.00469
4028.30816,0.00418
4027.27791,0.00380
4026.24765,0.00397
4025.21739,0.00426
4024.18713,0.00442
4023.15688,0.00433
4022.12662,0.00383
4021.09636,0.00337
4020.06610,0.00354
4019.03584,0.00388
4018.00559,0.00383
4016.97533,0.00380
4015.94507,0.00426
4014.91481,0.00481
4013.88455,0.00481
4012.85430,0.00459
4011.82404,0.00462
4010.79378,0.00462
4009.76352,0.00444
4008.73327,0.00432
4007.70301,0.00431
4006.67275,0.00425
4005.64249,0.00414
4004.61223,0.00432
4003.58198,0.00431
4002.55172,0.00389
4001.52146,0.00383
4000.49120,0.00417
3999.46095,0.00455
3998.43069,0.00469
3997.40043,0.00455
3996.37017,0.00452
3995.33991,0.00474
3994.30966,0.00467
3993.27940,0.00397
3992.24914,0.00338
3991.21888,0.00360
3990.18862,0.00414
3989.15837,0.00414
3988.12811,0.00372
3987.09785,0.00377
3986.06759,0.00436
3985.03734,0.00479
3984.00708,0.00485
3982.97682,0.00457
3981.94656,0.00403
3980.91630,0.00365
3979.88605,0.00366
3978.85579,0.00389
3977.82553,0.00423
3976.79527,0.00460
3975.76501,0.00483
3974.73476,0.00479
3973.70450,0.00443
3972.67424,0.00375
3971.64398,0.00325
3970.61373,0.00349
3969.58347,0.00393
3968.55321,0.00405
3967.52295,0.00426
3966.49269,0.00468
3965.46244,0.00482
3964.43218,0.00457
3963.40192,0.00442
3962.37166,0.00441
3961.34140,0.00428
3960.31115,0.00411
3959.28089,0.00415
3958.25063,0.00449
3957.22037,0.00478
3956.19012,0.00473
3955.15986,0.00470
3954.12960,0.00501
3953.09934,0.00534
3952.06908,0.00533
3951.03883,0.00518
3950.00857,0.00520
3948.97831,0.00504
3947.94805,0.00469
3946.91780,0.00471
3945.88754,0.00484
3944.85728,0.00469
3943.82702,0.00444
3942.79676,0.00438
3941.76651,0.00446
3940.73625,0.00446
3939.70599,0.00441
3938.67573,0.00443
3937.64547,0.00449
3936.61522,0.00450
3935.58496,0.00434
3934.55470,0.00380
3933.52444,0.00309
3932.49419,0.00305
3931.46393,0.00371
3930.43367,0.00416
3929.40341,0.00421
3928.37315,0.00390
3927.34290,0.00344
3926.31264,0.00348
3925.28238,0.00398
3924.25212,0.00422
3923.22186,0.00406
3922.19161,0.00378
3921.16135,0.00380
3920.13109,0.00418
3919.10083,0.00429
3918.07058,0.00430
3917.04032,0.00453
3916.01006,0.00446
3914.97980,0.00417
3913.94954,0.00402
3912.91929,0.00417
3911.88903,0.00449
3910.85877,0.00458
3909.82851,0.00446
3908.79825,0.00431
3907.76800,0.00411
3906.73774,0.00398
3905.70748,0.00397
3904.67722,0.00382
3903.64697,0.00379
3902.61671,0.00430
3901.58645,0.00463
3900.55619,0.00443
3899.52593,0.00438
3898.49568,0.00445
3897.46542,0.00426
3896.43516,0.00394
3895.40490,0.00375
3894.37465,0.00366
3893.34439,0.00347
3892.31413,0.00335
3891.28387,0.00346
3890.25361,0.00371
3889.22336,0.00383
3888.19310,0.00374
3887.16284,0.00402
3886.13258,0.00469
3885.10232,0.00527
3884.07207,0.00544
3883.04181,0.00517
3882.01155,0.00489
3880.98129,0.00500
3879.95104,0.00510
3878.92078,0.00477
3877.89052,0.00460
3876.86026,0.00479
3875.83000,0.00483
3874.79975,0.00462
3873.76949,0.00454
3872.73923,0.00454
3871.70897,0.00444
3870.67871,0.00450
3869.64846,0.00456
3868.61820,0.00460
3867.58794,0.00473
3866.55768,0.00455
3865.52743,0.00412
3864.49717,0.00417
3863.46691,0.00430
3862.43665,0.00382
3861.40639,0.00339
3860.37614,0.00346
3859.34588,0.00353
3858.31562,0.00358
3857.28536,0.00392
3856.25510,0.00407
3855.22485,0.00414
3854.19459,0.00480
3853.16433,0.00501
3852.13407,0.00465
3851.10382,0.00469
3850.07356,0.00454
3849.04330,0.00426
3848.01304,0.00443
3846.98278,0.00484
3845.95253,0.00488
3844.92227,0.00445
3843.89201,0.00388
3842.86175,0.00377
3841.83150,0.00452
3840.80124,0.00526
3839.77098,0.00509
3838.74072,0.00486
3837.71046,0.00485
3836.68021,0.00484
3835.64995,0.00488
3834.61969,0.00466
3833.58943,0.00416
3832.55917,0.00362
3831.52892,0.00349
3830.49866,0.00410
3829.46840,0.00484
3828.43814,0.00527
3827.40789,0.00545
3826.37763,0.00547
3825.34737,0.00543
3824.31711,0.00517
3823.28685,0.00453
3822.25660,0.00394
3821.22634,0.00427
3820.19608,0.00469
3819.16582,0.00434
3818.13556,0.00427
3817.10531,0.00441
3816.07505,0.00396
3815.04479,0.00350
3814.01453,0.00389
3812.98428,0.00456
3811.95402,0.00489
3810.92376,0.00484
3809.89350,0.00490
3808.86324,0.00536
3807.83299,0.00570
3806.80273,0.00526
3805.77247,0.00467
3804.74221,0.00473
3803.71195,0.00504
3802.68170,0.00501
3801.65144,0.00474
3800.62118,0.00502
3799.59092,0.00555
3798.56067,0.00575
3797.53041,0.00575
3796.50015,0.00569
3795.46989,0.00530
3794.43963,0.00479
3793.40938,0.00474
3792.37912,0.00488
3791.34886,0.00498
3790.31860,0.00517
3789.28835,0.00514
3788.25809,0.00489
3787.22783,0.00510
3786.19757,0.00560
3785.16731,0.00566
3784.13706,0.00564
3783.10680,0.00592
3782.07654,0.00600
3781.04628,0.00565
3780.01602,0.00531
3778.98577,0.00544
3777.95551,0.00610
3776.92525,0.00646
3775.89499,0.00589
3774.86474,0.00531
3773.83448,0.00540
3772.80422,0.00566
3771.77396,0.00550
3770.74370,0.00492
3769.71345,0.00475
3768.68319,0.00535
3767.65293,0.00577
3766.62267,0.00574
3765.59241,0.00553
3764.56216,0.00527
3763.53190,0.00553
3762.50164,0.00655
3761.47138,0.00741
3760.44113,0.00755
3759.41087,0.00750
3758.38061,0.00725
3757.35035,0.00656
3756.32009,0.00615
3755.28984,0.00629
3754.25958,0.00650
3753.22932,0.00664
3752.19906,0.00650
3751.16880,0.00639
3750.13855,0.00700
3749.10829,0.00784
3748.07803,0.00775
3747.04777,0.00701
3746.01752,0.00656
3744.98726,0.00697
3743.95700,0.00735
3742.92674,0.00696
3741.89648,0.00687
3740.86623,0.00722
3739.83597,0.00777
3738.80571,0.00821
3737.77545,0.00825
3736.74520,0.00779
3735.71494,0.00712
3734.68468,0.00685
3733.65442,0.00724
3732.62416,0.00763
3731.59391,0.00754
3730.56365,0.00754
3729.53339,0.00818
3728.50313,0.00881
3727.47287,0.00880
3726.44262,0.00894
3725.41236,0.00953
3724.38210,0.00962
3723.35184,0.00917
3722.32159,0.00870
3721.29133,0.00876
3720.26107,0.00935
3719.23081,0.00991
3718.20055,0.00990
3717.17030,0.00959
3716.14004,0.00975
3715.10978,0.01034
3714.07952,0.01095
3713.04926,0.01129
3712.01901,0.01091
3710.98875,0.01047
3709.95849,0.01061
3708.92823,0.01074
3707.89798,0.01097
3706.86772,0.01141
3705.83746,0.01164
3704.80720,0.01149
3703.77694,0.01109
3702.74669,0.01116
3701.71643,0.01192
3700.68617,0.01250
3699.65591,0.01272
3698.62565,0.01301
3697.59540,0.01335
3696.56514,0.01367
3695.53488,0.01417
3694.50462,0.01462
3693.47437,0.01502
3692.44411,0.01558
3691.41385,0.01588
3690.38359,0.01621
3689.35333,0.01686
3688.32308,0.01708
3687.29282,0.01765
3686.26256,0.01879
3685.23230,0.01936
3684.20205,0.01936
3683.17179,0.01933
3682.14153,0.01961
3681.11127,0.02038
3680.08101,0.02144
3679.05076,0.02231
3678.02050,0.02305
3676.99024,0.02386
3675.95998,0.02457
3674.92972,0.02480
3673.89947,0.02527
3672.86921,0.02623
3671.83895,0.02720
3670.80869,0.02840
3669.77844,0.02990
3668.74818,0.03091
3667.71792,0.03147
3666.68766,0.03202
3665.65740,0.03251
3664.62715,0.03317
3663.59689,0.03432
3662.56663,0.03558
3661.53637,0.03678
3660.50611,0.03800
3659.47586,0.03884
3658.44560,0.03920
3657.41534,0.03982
3656.38508,0.04086
3655.35483,0.04175
3654.32457,0.04274
3653.29431,0.04422
3652.26405,0.04588
3651.23379,0.04711
3650.20354,0.04782
3649.17328,0.04834
3648.14302,0.04879
3647.11276,0.04930
3646.08250,0.05038
3645.05225,0.05161
3644.02199,0.05238
3642.99173,0.05300
3641.96147,0.05389
3640.93122,0.05500
3639.90096,0.05599
3638.87070,0.05657
3637.84044,0.05689
3636.81018,0.05776
3635.77993,0.05932
3634.74967,0.06106
3633.71941,0.06255
3632.68915,0.06343
3631.65890,0.06412
3630.62864,0.06516
3629.59838,0.06608
3628.56812,0.06592
3627.53786,0.06628
3626.50761,0.06792
3625.47735,0.06921
3624.44709,0.06999
3623.41683,0.07102
3622.38657,0.07180
3621.35632,0.07240
3620.32606,0.07352
3619.29580,0.07418
3618.26554,0.07438
3617.23529,0.07552
3616.20503,0.07656
3615.17477,0.07705
3614.14451,0.07762
3613.11425,0.07816
3612.08400,0.07918
3611.05374,0.08072
3610.02348,0.08225
3608.99322,0.08359
3607.96296,0.08419
3606.93271,0.08463
3605.90245,0.08569
3604.87219,0.08661
3603.84193,0.08703
3602.81168,0.08773
3601.78142,0.08870
3600.75116,0.08977
3599.72090,0.09127
3598.69064,0.09234
3597.66039,0.09271
3596.63013,0.09343
3595.59987,0.09442
3594.56961,0.09510
3593.53936,0.09573
3592.50910,0.09671
3591.47884,0.09814
3590.44858,0.09958
3589.41832,0.10093
3588.38807,0.10222
3587.35781,0.10288
3586.32755,0.10331
3585.29729,0.10411
3584.26703,0.10500
3583.23678,0.10609
3582.20652,0.10736
3581.17626,0.10830
3580.14600,0.10880
3579.11575,0.10935
3578.08549,0.11039
3577.05523,0.11176
3576.02497,0.11312
3574.99471,0.11423
3573.96446,0.11489
3572.93420,0.11569
3571.90394,0.11715
3570.87368,0.11872
3569.84342,0.12007
3568.81317,0.12123
3567.78291,0.12184
3566.75265,0.12238
3565.72239,0.12362
3564.69214,0.12522
3563.66188,0.12661
3562.63162,0.12754
3561.60136,0.12828
3560.57110,0.12910
3559.54085,0.13007
3558.51059,0.13094
3557.48033,0.13178
3556.45007,0.13284
3555.41981,0.13400
3554.38956,0.13520
3553.35930,0.13641
3552.32904,0.13729
3551.29878,0.13808
3550.26853,0.13929
3549.23827,0.14051
3548.20801,0.14163
3547.17775,0.14297
3546.14749,0.14425
3545.11724,0.14535
3544.08698,0.14707
3543.05672,0.14904
3542.02646,0.15022
3540.99621,0.15078
3539.96595,0.15133
3538.93569,0.15247
3537.90543,0.15406
3536.87517,0.15560
3535.84492,0.15710
3534.81466,0.15838
3533.78440,0.15927
3532.75414,0.16022
3531.72388,0.16143
3530.69363,0.16248
3529.66337,0.16345
3528.63311,0.16476
3527.60285,0.16634
3526.57260,0.16783
3525.54234,0.16894
3524.51208,0.16964
3523.48182,0.17025
3522.45156,0.17089
3521.42131,0.17177
3520.39105,0.17319
3519.36079,0.17476
3518.33053,0.17642
3517.30027,0.17799
3516.27002,0.17886
3515.23976,0.17917
3514.20950,0.17977
3513.17924,0.18141
3512.14899,0.18357
3511.11873,0.18497
3510.08847,0.18587
3509.05821,0.18697
3508.02795,0.18817
3506.99770,0.18964
3505.96744,0.19103
3504.93718,0.19205
3503.90692,0.19323
3502.87666,0.19455
3501.84641,0.19614
3500.81615,0.19811
3499.78589,0.19944
3498.75563,0.19987
3497.72538,0.20040
3496.69512,0.20137
3495.66486,0.20224
3494.63460,0.20322
3493.60434,0.20474
3492.57409,0.20627
3491.54383,0.20762
3490.51357,0.20908
3489.48331,0.21067
3488.45306,0.21215
3487.42280,0.21300
3486.39254,0.21334
3485.36228,0.21417
3484.33202,0.21566
3483.30177,0.21747
3482.27151,0.21926
3481.24125,0.22029
3480.21099,0.22088
3479.18073,0.22202
3478.15048,0.22347
3477.12022,0.22461
3476.08996,0.22541
3475.05970,0.22616
3474.02945,0.22741
3472.99919,0.22911
3471.96893,0.23033
3470.93867,0.23097
3469.90841,0.23189
3468.87816,0.23350
3467.84790,0.23512
3466.81764,0.23643
3465.78738,0.23814
3464.75712,0.23975
3463.72687,0.24044
3462.69661,0.24128
3461.66635,0.24282
3460.63609,0.24402
3459.60584,0.24509
3458.57558,0.24707
3457.54532,0.24930
3456.51506,0.25052
3455.48480,0.25102
3454.45455,0.25204
3453.42429,0.25361
3452.39403,0.25497
3451.36377,0.25636
3450.33351,0.25785
3449.30326,0.25860
3448.27300,0.25913
3447.24274,0.26080
3446.21248,0.26313
3445.18223,0.26446
3444.15197,0.26496
3443.12171,0.26605
3442.09145,0.26777
3441.06119,0.26945
3440.03094,0.27069
3439.00068,0.27137
3437.97042,0.27207
3436.94016,0.27288
3435.90991,0.27339
3434.87965,0.27407
3433.84939,0.27563
3432.81913,0.27742
3431.78887,0.27872
3430.75862,0.27994
3429.72836,0.28130
3428.69810,0.28308
3427.66784,0.28558
3426.63758,0.28767
3425.60733,0.28861
3424.57707,0.28945
3423.54681,0.29044
3422.51655,0.29133
3421.48630,0.29212
3420.45604,0.29275
3419.42578,0.29384
3418.39552,0.29535
3417.36526,0.29674
3416.33501,0.29803
3415.30475,0.29939
3414.27449,0.30045
3413.24423,0.30106
3412.21397,0.30197
3411.18372,0.30357
3410.15346,0.30531
3409.12320,0.30617
3408.09294,0.30648
3407.06269,0.30725
3406.03243,0.30828
3405.00217,0.30935
3403.97191,0.31015
3402.94165,0.31045
3401.91140,0.31085
3400.88114,0.31166
3399.85088,0.31296
3398.82062,0.31450
3397.79036,0.31531
3396.76011,0.31563
3395.72985,0.31680
3394.69959,0.31872
3393.66933,0.32015
3392.63908,0.32058
3391.60882,0.32062
3390.57856,0.32122
3389.54830,0.32249
3388.51804,0.32336
3387.48779,0.32375
3386.45753,0.32455
3385.42727,0.32549
3384.39701,0.32606
3383.36676,0.32681
3382.33650,0.32768
3381.30624,0.32787
3380.27598,0.32804
3379.24572,0.32919
3378.21547,0.33036
3377.18521,0.33036
3376.15495,0.33041
3375.12469,0.33137
3374.09443,0.33225
3373.06418,0.33270
3372.03392,0.33288
3371.00366,0.33285
3369.97340,0.33270
3368.94315,0.33234
3367.91289,0.33192
3366.88263,0.33209
3365.85237,0.33312
3364.82211,0.33459
3363.79186,0.33544
3362.76160,0.33557
3361.73134,0.33603
3360.70108,0.33692
3359.67082,0.33746
3358.64057,0.33728
3357.61031,0.33716
3356.58005,0.33700
3355.54979,0.33641
3354.51954,0.33652
3353.48928,0.33721
3352.45902,0.33740
3351.42876,0.33704
3350.39850,0.33688
3349.36825,0.33758
3348.33799,0.33846
3347.30773,0.33883
3346.27747,0.33891
3345.24721,0.33873
3344.21696,0.33844
3343.18670,0.33842
3342.15644,0.33875
3341.12618,0.33962
3340.09593,0.34062
3339.06567,0.34066
3338.03541,0.33996
3337.00515,0.33919
3335.97489,0.33844
3334.94464,0.33797
3333.91438,0.33772
3332.88412,0.33739
3331.85386,0.33701
3330.82361,0.33671
3329.79335,0.33671
3328.76309,0.33738
3327.73283,0.33768
3326.70257,0.33680
3325.67232,0.33637
3324.64206,0.33698
3323.61180,0.33737
3322.58154,0.33720
3321.55128,0.33699
3320.52103,0.33728
3319.49077,0.33775
3318.46051,0.33745
3317.43025,0.33666
3316.40000,0.33632
3315.36974,0.33619
3314.33948,0.33597
3313.30922,0.33596
3312.27896,0.33591
3311.24871,0.33564
3310.21845,0.33555
3309.18819,0.33537
3308.15793,0.33476
3307.12767,0.33406
3306.09742,0.33396
3305.06716,0.33471
3304.03690,0.33565
3303.00664,0.33613
3301.97639,0.33589
3300.94613,0.33491
3299.91587,0.33414
3298.88561,0.33410
3297.85535,0.33440
3296.82510,0.33503
3295.79484,0.33558
3294.76458,0.33540
3293.73432,0.33473
3292.70406,0.33422
3291.67381,0.33414
3290.64355,0.33425
3289.61329,0.33432
3288.58303,0.33440
3287.55278,0.33480
3286.52252,0.33555
3285.49226,0.33590
3284.46200,0.33524
3283.43174,0.33438
3282.40149,0.33396
3281.37123,0.33348
3280.34097,0.33318
3279.31071,0.33369
3278.28046,0.33442
3277.25020,0.33452
3276.21994,0.33398
3275.18968,0.33360
3274.15942,0.33351
3273.12917,0.33298
3272.09891,0.33225
3271.06865,0.33184
3270.03839,0.33172
3269.00813,0.33213
3267.97788,0.33295
3266.94762,0.33298
3265.91736,0.33215
3264.88710,0.33164
3263.85685,0.33162
3262.82659,0.33124
3261.79633,0.33026
3260.76607,0.32950
3259.73581,0.32927
3258.70556,0.32921
3257.67530,0.32950
3256.64504,0.32982
3255.61478,0.32981
3254.58452,0.32997
3253.55427,0.33031
3252.52401,0.33026
3251.49375,0.32961
3250.46349,0.32933
3249.43324,0.32959
3248.40298,0.32893
3247.37272,0.32768
3246.34246,0.32690
3245.31220,0.32642
3244.28195,0.32632
3243.25169,0.32655
3242.22143,0.32637
3241.19117,0.32559
3240.16092,0.32491
3239.13066,0.32463
3238.10040,0.32451
3237.07014,0.32446
3236.03988,0.32444
3235.00963,0.32413
3233.97937,0.32326
3232.94911,0.32187
3231.91885,0.32078
3230.88859,0.32045
3229.85834,0.31985
3228.82808,0.31887
3227.79782,0.31827
3226.76756,0.31788
3225.73731,0.31728
3224.70705,0.31629
3223.67679,0.31499
3222.64653,0.31371
3221.61627,0.31311
3220.58602,0.31306
3219.55576,0.31271
3218.52550,0.31213
3217.49524,0.31138
3216.46498,0.31023
3215.43473,0.30895
3214.40447,0.30769
3213.37421,0.30634
3212.34395,0.30518
3211.31370,0.30469
3210.28344,0.30415
3209.25318,0.30298
3208.22292,0.30200
3207.19266,0.30111
3206.16241,0.29991
3205.13215,0.29883
3204.10189,0.29764
3203.07163,0.29614
3202.04137,0.29478
3201.01112,0.29340
3199.98086,0.29215
3198.95060,0.29155
3197.92034,0.29098
3196.89009,0.28985
3195.85983,0.28830
3194.82957,0.28645
3193.79931,0.28486
3192.76905,0.28369
3191.73880,0.28237
3190.70854,0.28102
3189.67828,0.27984
3188.64802,0.27866
3187.61777,0.27758
3186.58751,0.27602
3185.55725,0.27393
3184.52699,0.27243
3183.49673,0.27147
3182.46648,0.27030
3181.43622,0.26869
3180.40596,0.26675
3179.37570,0.26496
3178.34544,0.26334
3177.31519,0.26172
3176.28493,0.26000
3175.25467,0.25853
3174.22441,0.25777
3173.19416,0.25681
3172.16390,0.25507
3171.13364,0.25319
3170.10338,0.25112
3169.07312,0.24889
3168.04287,0.24715
3167.01261,0.24603
3165.98235,0.24522
3164.95209,0.24425
3163.92183,0.24287
3162.89158,0.24125
3161.86132,0.23960
3160.83106,0.23774
3159.80080,0.23582
3158.77055,0.23424
3157.74029,0.23252
3156.71003,0.23065
3155.67977,0.22920
3154.64951,0.22776
3153.61926,0.22606
3152.58900,0.22445
3151.55874,0.22293
3150.52848,0.22148
3149.49822,0.22012
3148.46797,0.21860
3147.43771,0.21690
3146.40745,0.21523
3145.37719,0.21365
3144.34694,0.21209
3143.31668,0.21039
3142.28642,0.20846
3141.25616,0.20653
3140.22590,0.20510
3139.19565,0.20371
3138.16539,0.20189
3137.13513,0.20017
3136.10487,0.19870
3135.07462,0.19721
3134.04436,0.19556
3133.01410,0.19402
3131.98384,0.19274
3130.95358,0.19128
3129.92333,0.18931
3128.89307,0.18716
3127.86281,0.18538
3126.83255,0.18408
3125.80229,0.18335
3124.77204,0.18271
3123.74178,0.18130
3122.71152,0.17919
3121.68126,0.17687
3120.65101,0.17484
3119.62075,0.17334
3118.59049,0.17193
3117.56023,0.17031
3116.52997,0.16887
3115.49972,0.16782
3114.46946,0.16670
3113.43920,0.16539
3112.40894,0.16383
3111.37868,0.16193
3110.34843,0.16017
3109.31817,0.15862
3108.28791,0.15722
3107.25765,0.15611
3106.22740,0.15523
3105.19714,0.15426
3104.16688,0.15276
3103.13662,0.15112
3102.10636,0.14987
3101.07611,0.14859
3100.04585,0.14705
3099.01559,0.14545
3097.98533,0.14382
3096.95507,0.14236
3095.92482,0.14126
3094.89456,0.14037
3093.86430,0.13918
3092.83404,0.13751
3091.80379,0.13595
3090.77353,0.13506
3089.74327,0.13449
3088.71301,0.13317
3087.68275,0.13124
3086.65250,0.13016
3085.62224,0.12976
3084.59198,0.12876
3083.56172,0.12746
3082.53147,0.12637
3081.50121,0.12533
3080.47095,0.12423
3079.44069,0.12296
3078.41043,0.12143
3077.38018,0.11977
3076.34992,0.11851
3075.31966,0.11766
3074.28940,0.11643
3073.25914,0.11494
3072.22889,0.11406
3071.19863,0.11335
3070.16837,0.11218
3069.13811,0.11094
3068.10786,0.10978
3067.07760,0.10853
3066.04734,0.10740
3065.01708,0.10632
3063.98682,0.10502
3062.95657,0.10366
3061.92631,0.10260
3060.89605,0.10196
3059.86579,0.10148
3058.83553,0.10086
3057.80528,0.09995
3056.77502,0.09893
3055.74476,0.09793
3054.71450,0.09691
3053.68425,0.09591
3052.65399,0.09501
3051.62373,0.09417
3050.59347,0.09334
3049.56321,0.09271
3048.53296,0.09206
3047.50270,0.09108
3046.47244,0.09003
3045.44218,0.08923
3044.41192,0.08852
3043.38167,0.08753
3042.35141,0.08650
3041.32115,0.08560
3040.29089,0.08459
3039.26064,0.08370
3038.23038,0.08307
3037.20012,0.08228
3036.16986,0.08127
3035.13960,0.08031
3034.10935,0.07959
3033.07909,0.07914
3032.04883,0.07876
3031.01857,0.07805
3029.98832,0.07679
3028.95806,0.07576
3027.92780,0.07531
3026.89754,0.07460
3025.86728,0.07369
3024.83703,0.07322
3023.80677,0.07273
3022.77651,0.07186
3021.74625,0.07099
3020.71599,0.07022
3019.68574,0.06960
3018.65548,0.06923
3017.62522,0.06876
3016.59496,0.06800
3015.56471,0.06696
3014.53445,0.06583
3013.50419,0.06495
3012.47393,0.06458
3011.44367,0.06454
3010.41342,0.06428
3009.38316,0.06370
3008.35290,0.06317
3007.32264,0.06279
3006.29238,0.06217
3005.26213,0.06111
3004.23187,0.06015
3003.20161,0.05944
3002.17135,0.05882
3001.14110,0.05861
3000.11084,0.05868
2999.08058,0.05831
2998.05032,0.05739
2997.02006,0.05654
2995.98981,0.05597
2994.95955,0.05561
2993.92929,0.05517
2992.89903,0.05463
2991.86877,0.05427
2990.83852,0.05399
2989.80826,0.05371
2988.77800,0.05353
2987.74774,0.05322
2986.71749,0.05278
2985.68723,0.05262
2984.65697,0.05257
2983.62671,0.05223
2982.59645,0.05180
2981.56620,0.05164
2980.53594,0.05175
2979.50568,0.05186
2978.47542,0.05178
2977.44517,0.05168
2976.41491,0.05167
2975.38465,0.05144
2974.35439,0.05087
2973.32413,0.05026
2972.29388,0.04983
2971.26362,0.04957
2970.23336,0.04980
2969.20310,0.05039
2968.17284,0.05068
2967.14259,0.05059
2966.11233,0.05033
2965.08207,0.05010
2964.05181,0.05002
2963.02156,0.04998
2961.99130,0.04985
2960.96104,0.04968
2959.93078,0.04939
2958.90052,0.04901
2957.87027,0.04892
2956.84001,0.04924
2955.80975,0.04957
2954.77949,0.04935
2953.74923,0.04872
2952.71898,0.04849
2951.68872,0.04854
2950.65846,0.04822
2949.62820,0.04790
2948.59795,0.04817
2947.56769,0.04869
2946.53743,0.04893
2945.50717,0.04874
2944.47691,0.04831
2943.44666,0.04803
2942.41640,0.04811
2941.38614,0.04806
2940.35588,0.04757
2939.32562,0.04728
2938.29537,0.04746
2937.26511,0.04746
2936.23485,0.04726
2935.20459,0.04728
2934.17434,0.04731
2933.14408,0.04704
2932.11382,0.04673
2931.08356,0.04668
2930.05330,0.04672
2929.02305,0.04682
2927.99279,0.04708
2926.96253,0.04724
2925.93227,0.04721
2924.90202,0.04703
2923.87176,0.04670
2922.84150,0.04629
2921.81124,0.04557
2920.78098,0.04489
2919.75073,0.04469
2918.72047,0.04474
2917.69021,0.04476
2916.65995,0.04445
2915.62969,0.04379
2914.59944,0.04321
2913.56918,0.04283
2912.53892,0.04231
2911.50866,0.04185
2910.47841,0.04179
2909.44815,0.04178
2908.41789,0.04135
2907.38763,0.04053
2906.35737,0.03989
2905.32712,0.03946
2904.29686,0.03887
2903.26660,0.03844
2902.23634,0.03823
2901.20608,0.03790
2900.17583,0.03760
2899.14557,0.03732
2898.11531,0.03704
2897.08505,0.03713
2896.05480,0.03728
2895.02454,0.03705
2893.99428,0.03682
2892.96402,0.03678
2891.93376,0.03676
2890.90351,0.03693
2889.87325,0.03717
2888.84299,0.03707
2887.81273,0.03671
2886.78247,0.03662
2885.75222,0.03685
2884.72196,0.03695
2883.69170,0.03683
2882.66144,0.03660
2881.63119,0.03642
2880.60093,0.03635
2879.57067,0.03601
2878.54041,0.03535
2877.51015,0.03470
2876.47990,0.03408
2875.44964,0.03337
2874.41938,0.03275
2873.38912,0.03248
2872.35887,0.03228
2871.32861,0.03167
2870.29835,0.03067
2869.26809,0.02979
2868.23783,0.02926
2867.20758,0.02879
2866.17732,0.02823
2865.14706,0.02772
2864.11680,0.02723
2863.08654,0.02672
2862.05629,0.02624
2861.02603,0.02572
2859.99577,0.02524
2858.96551,0.02500
2857.93526,0.02491
2856.90500,0.02464
2855.87474,0.02411
2854.84448,0.02348
2853.81422,0.02292
2852.78397,0.02249
2851.75371,0.02213
2850.72345,0.02190
2849.69319,0.02177
2848.66293,0.02133
2847.63268,0.02082
2846.60242,0.02070
2845.57216,0.02074
2844.54190,0.02065
2843.51165,0.02046
2842.48139,0.02012
2841.45113,0.01980
2840.42087,0.01982
2839.39061,0.01994
2838.36036,0.01979
2837.33010,0.01951
2836.29984,0.01925
2835.26958,0.01889
2834.23933,0.01864
2833.20907,0.01869
2832.17881,0.01865
2831.14855,0.01825
2830.11829,0.01784
2829.08804,0.01769
2828.05778,0.01772
2827.02752,0.01783
2825.99726,0.01781
2824.96700,0.01760
2823.93675,0.01733
2822.90649,0.01706
2821.87623,0.01695
2820.84597,0.01703
2819.81572,0.01699
2818.78546,0.01665
2817.75520,0.01627
2816.72494,0.01599
2815.69468,0.01587
2814.66443,0.01582
2813.63417,0.01569
2812.60391,0.01575
2811.57365,0.01592
2810.54339,0.01568
2809.51314,0.01510
2808.48288,0.01459
2807.45262,0.01449
2806.42236,0.01480
2805.39211,0.01495
2804.36185,0.01459
2803.33159,0.01408
2802.30133,0.01381
2801.27107,0.01377
2800.24082,0.01369
2799.21056,0.01343
2798.18030,0.01322
2797.15004,0.01342
2796.11978,0.01361
2795.08953,0.01332
2794.05927,0.01306
2793.02901,0.01323
2791.99875,0.01344
2790.96850,0.01356
2789.93824,0.01351
2788.90798,0.01331
2787.87772,0.01311
2786.84746,0.01287
2785.81721,0.01259
2784.78695,0.01246
2783.75669,0.01256
2782.72643,0.01263
2781.69618,0.01256
2780.66592,0.01235
2779.63566,0.01186
2778.60540,0.01157
2777.57514,0.01177
2776.54489,0.01186
2775.51463,0.01164
2774.48437,0.01163
2773.45411,0.01197
2772.42385,0.01203
2771.39360,0.01171
2770.36334,0.01152
2769.33308,0.01156
2768.30282,0.01152
2767.27257,0.01145
2766.24231,0.01142
2765.21205,0.01126
2764.18179,0.01097
2763.15153,0.01084
2762.12128,0.01089
2761.09102,0.01078
2760.06076,0.01055
2759.03050,0.01062
2758.00024,0.01110
2756.96999,0.01145
2755.93973,0.01112
2754.90947,0.01060
2753.87921,0.01047
2752.84896,0.01051
2751.81870,0.01057
2750.78844,0.01055
2749.75818,0.01028
2748.72792,0.01019
2747.69767,0.01053
2746.66741,0.01069
2745.63715,0.01044
2744.60689,0.01013
2743.57663,0.00997
2742.54638,0.00993
2741.51612,0.00999
2740.48586,0.01023
2739.45560,0.01046
2738.42535,0.01037
2737.39509,0.01022
2736.36483,0.01021
2735.33457,0.01006
2734.30431,0.00963
2733.27406,0.00940
2732.24380,0.00967
2731.21354,0.00992
2730.18328,0.00975
2729.15303,0.00950
2728.12277,0.00943
2727.09251,0.00942
2726.06225,0.00929
2725.03199,0.00909
2724.00174,0.00893
2722.97148,0.00892
2721.94122,0.00890
2720.91096,0.00878
2719.88070,0.00864
2718.85045,0.00853
2717.82019,0.00862
2716.78993,0.00883
2715.75967,0.00891
2714.72942,0.00876
2713.69916,0.00858
2712.66890,0.00858
2711.63864,0.00865
2710.60838,0.00876
2709.57813,0.00880
2708.54787,0.00882
2707.51761,0.00882
2706.48735,0.00861
2705.45709,0.00838
2704.42684,0.00832
2703.39658,0.00820
2702.36632,0.00816
2701.33606,0.00832
2700.30581,0.00836
2699.27555,0.00830
2698.24529,0.00819
2697.21503,0.00803
2696.18477,0.00806
2695.15452,0.00819
2694.12426,0.00824
2693.09400,0.00831
2692.06374,0.00832
2691.03348,0.00817
2690.00323,0.00798
2688.97297,0.00795
2687.94271,0.00811
2686.91245,0.00818
2685.88220,0.00788
2684.85194,0.00750
2683.82168,0.00743
2682.79142,0.00770
2681.76116,0.00800
2680.73091,0.00794
2679.70065,0.00766
2678.67039,0.00761
2677.64013,0.00772
2676.60988,0.00778
2675.57962,0.00779
2674.54936,0.00771
2673.51910,0.00759
2672.48884,0.00749
2671.45859,0.00750
2670.42833,0.00747
2669.39807,0.00729
2668.36781,0.00739
2667.33755,0.00783
2666.30730,0.00821
2665.27704,0.00828
2664.24678,0.00798
2663.21652,0.00776
2662.18627,0.00785
2661.15601,0.00796
2660.12575,0.00804
2659.09549,0.00806
2658.06523,0.00799
2657.03498,0.00783
2656.00472,0.00772
2654.97446,0.00779
2653.94420,0.00762
2652.91394,0.00726
2651.88369,0.00723
2650.85343,0.00741
2649.82317,0.00749
2648.79291,0.00742
2647.76266,0.00720
2646.73240,0.00700
2645.70214,0.00713
2644.67188,0.00727
2643.64162,0.00720
2642.61137,0.00725
2641.58111,0.00744
2640.55085,0.00759
2639.52059,0.00767
2638.49033,0.00757
2637.46008,0.00725
2636.42982,0.00694
2635.39956,0.00685
2634.36930,0.00700
2633.33905,0.00711
2632.30879,0.00719
2631.27853,0.00745
2630.24827,0.00770
2629.21801,0.00752
2628.18776,0.00714
2627.15750,0.00690
2626.12724,0.00669
2625.09698,0.00661
2624.06673,0.00681
2623.03647,0.00725
2622.00621,0.00751
2620.97595,0.00711
2619.94569,0.00669
2618.91544,0.00683
2617.88518,0.00673
2616.85492,0.00630
2615.82466,0.00630
2614.79440,0.00663
2613.76415,0.00670
2612.73389,0.00659
2611.70363,0.00677
2610.67337,0.00702
2609.64312,0.00708
2608.61286,0.00712
2607.58260,0.00701
2606.55234,0.00682
2605.52208,0.00685
2604.49183,0.00684
2603.46157,0.00667
2602.43131,0.00658
2601.40105,0.00643
2600.37079,0.00643
2599.34054,0.00687
2598.31028,0.00708
2597.28002,0.00687
2596.24976,0.00674
2595.21951,0.00677
2594.18925,0.00689
2593.15899,0.00675
2592.12873,0.00654
2591.09847,0.00696
2590.06822,0.00729
2589.03796,0.00689
2588.00770,0.00664
2586.97744,0.00664
2585.94718,0.00648
2584.91693,0.00651
2583.88667,0.00663
2582.85641,0.00652
2581.82615,0.00652
2580.79590,0.00639
2579.76564,0.00601
2578.73538,0.00619
2577.70512,0.00667
2576.67486,0.00662
2575.64461,0.00649
2574.61435,0.00679
2573.58409,0.00723
2572.55383,0.00722
2571.52358,0.00655
2570.49332,0.00610
2569.46306,0.00631
2568.43280,0.00654
2567.40254,0.00651
2566.37229,0.00621
2565.34203,0.00592
2564.31177,0.00586
2563.28151,0.00586
2562.25125,0.00593
2561.22100,0.00621
2560.19074,0.00675
2559.16048,0.00718
2558.13022,0.00720
2557.09997,0.00711
2556.06971,0.00712
2555.03945,0.00709
2554.00919,0.00706
2552.97893,0.00728
2551.94868,0.00746
2550.91842,0.00741
2549.88816,0.00755
2548.85790,0.00781
2547.82764,0.00790
2546.79739,0.00792
2545.76713,0.00789
2544.73687,0.00776
2543.70661,0.00758
2542.67636,0.00764
2541.64610,0.00785
2540.61584,0.00788
2539.58558,0.00772
2538.55532,0.00739
2537.52507,0.00701
2536.49481,0.00698
2535.46455,0.00727
2534.43429,0.00732
2533.40403,0.00698
2532.37378,0.00657
2531.34352,0.00656
2530.31326,0.00672
2529.28300,0.00655
2528.25275,0.00636
2527.22249,0.00664
2526.19223,0.00738
2525.16197,0.00798
2524.13171,0.00763
2523.10146,0.00679
2522.07120,0.00681
2521.04094,0.00728
2520.01068,0.00727
2518.98043,0.00714
2517.95017,0.00743
2516.91991,0.00786
2515.88965,0.00771
2514.85939,0.00715
2513.82914,0.00685
2512.79888,0.00684
2511.76862,0.00710
2510.73836,0.00748
2509.70810,0.00745
2508.67785,0.00709
2507.64759,0.00725
2506.61733,0.00804
2505.58707,0.00879
2504.55682,0.00870
2503.52656,0.00766
2502.49630,0.00707
2501.46604,0.00744
2500.43578,0.00741
2499.40553,0.00681
2498.37527,0.00672
2497.34501,0.00729
2496.31475,0.00764
2495.28449,0.00726
2494.25424,0.00700
2493.22398,0.00750
2492.19372,0.00805
2491.16346,0.00822
2490.13321,0.00834
2489.10295,0.00827
2488.07269,0.00805
2487.04243,0.00803
2486.01217,0.00777
2484.98192,0.00713
2483.95166,0.00709
2482.92140,0.00756
2481.89114,0.00788
2480.86088,0.00833
2479.83063,0.00880
2478.80037,0.00870
2477.77011,0.00828
2476.73985,0.00823
2475.70960,0.00834
2474.67934,0.00832
2473.64908,0.00852
2472.61882,0.00870
2471.58856,0.00832
2470.55831,0.00798
2469.52805,0.00805
2468.49779,0.00801
2467.46753,0.00791
2466.43728,0.00787
2465.40702,0.00794
2464.37676,0.00814
2463.34650,0.00835
2462.31624,0.00843
2461.28599,0.00838
2460.25573,0.00821
2459.22547,0.00796
2458.19521,0.00827
2457.16495,0.00898
2456.13470,0.00921
2455.10444,0.00934
2454.07418,0.00958
2453.04392,0.00926
2452.01367,0.00878
2450.98341,0.00850
2449.95315,0.00847
2448.92289,0.00877
2447.89263,0.00884
2446.86238,0.00841
2445.83212,0.00803
2444.80186,0.00842
2443.77160,0.00897
2442.74134,0.00894
2441.71109,0.00881
2440.68083,0.00883
2439.65057,0.00868
2438.62031,0.00849
2437.59006,0.00871
2436.55980,0.00899
2435.52954,0.00866
2434.49928,0.00821
2433.46902,0.00830
2432.43877,0.00880
2431.40851,0.00922
2430.37825,0.00931
2429.34799,0.00946
2428.31774,0.00982
2427.28748,0.01007
2426.25722,0.00993
2425.22696,0.00935
2424.19670,0.00898
2423.16645,0.00927
2422.13619,0.00982
2421.10593,0.00986
2420.07567,0.00951
2419.04541,0.00940
2418.01516,0.00947
2416.98490,0.00944
2415.95464,0.00930
2414.92438,0.00930
2413.89413,0.00944
2412.86387,0.00943
2411.83361,0.00940
2410.80335,0.00959
2409.77309,0.00974
2408.74284,0.00979
2407.71258,0.00997
2406.68232,0.01008
2405.65206,0.00979
2404.62180,0.00948
2403.59155,0.00961
2402.56129,0.00976
2401.53103,0.00964
2400.50077,0.00973
2399.47052,0.01019
2398.44026,0.01052
2397.41000,0.01066
2396.37974,0.01083
2395.34948,0.01090
2394.31923,0.01059
2393.28897,0.01008
2392.25871,0.01003
2391.22845,0.01031
2390.19819,0.01043
2389.16794,0.01043
2388.13768,0.01029
2387.10742,0.01025
2386.07716,0.01030
2385.04691,0.01017
2384.01665,0.01024
2382.98639,0.01049
2381.95613,0.01069
2380.92587,0.01106
2379.89562,0.01138
2378.86536,0.01145
2377.83510,0.01169
2376.80484,0.01210
2375.77459,0.01210
2374.74433,0.01211
2373.71407,0.01265
2372.68381,0.01316
2371.65355,0.01365
2370.62330,0.01450
2369.59304,0.01529
2368.56278,0.01521
2367.53252,0.01439
2366.50226,0.01393
2365.47201,0.01417
2364.44175,0.01424
2363.41149,0.01403
2362.38123,0.01435
2361.35098,0.01473
2360.32072,0.01420
2359.29046,0.01341
2358.26020,0.01304
2357.22994,0.01263
2356.19969,0.01254
2355.16943,0.01304
2354.13917,0.01316
2353.10891,0.01296
2352.07865,0.01293
2351.04840,0.01303
2350.01814,0.01344
2348.98788,0.01385
2347.95762,0.01379
2346.92737,0.01353
2345.89711,0.01359
2344.86685,0.01376
2343.83659,0.01366
2342.80633,0.01347
2341.77608,0.01372
2340.74582,0.01439
2339.71556,0.01439
2338.68530,0.01351
2337.65504,0.01323
2336.62479,0.01375
2335.59453,0.01382
2334.56427,0.01306
2333.53401,0.01265
2332.50376,0.01337
2331.47350,0.01426
2330.44324,0.01456
2329.41298,0.01450
2328.38272,0.01446
2327.35247,0.01443
2326.32221,0.01415
2325.29195,0.01388
2324.26169,0.01403
2323.23144,0.01426
2322.20118,0.01430
2321.17092,0.01462
2320.14066,0.01498
2319.11040,0.01463
2318.08015,0.01393
2317.04989,0.01347
2316.01963,0.01334
2314.98937,0.01363
2313.95911,0.01387
2312.92886,0.01389
2311.89860,0.01415
2310.86834,0.01446
2309.83808,0.01457
2308.80783,0.01453
2307.77757,0.01454
2306.74731,0.01457
2305.71705,0.01464
2304.68679,0.01481
2303.65654,0.01436
2302.62628,0.01325
2301.59602,0.01254
2300.56576,0.01268
2299.53550,0.01313
2298.50525,0.01365
2297.47499,0.01400
2296.44473,0.01373
2295.41447,0.01349
2294.38422,0.01367
2293.35396,0.01386
2292.32370,0.01411
2291.29344,0.01448
2290.26318,0.01463
2289.23293,0.01475
2288.20267,0.01527
2287.17241,0.01603
2286.14215,0.01646
2285.11189,0.01615
2284.08164,0.01537
2283.05138,0.01494
2282.02112,0.01495
2280.99086,0.01509
2279.96061,0.01503
2278.93035,0.01447
2277.90009,0.01418
2276.86983,0.01450
2275.83957,0.01469
2274.80932,0.01556
2273.77906,0.01704
2272.74880,0.01712
2271.71854,0.01616
2270.68829,0.01578
2269.65803,0.01593
2268.62777,0.01636
2267.59751,0.01666
2266.56725,0.01641
2265.53700,0.01560
2264.50674,0.01447
2263.47648,0.01377
2262.44622,0.01423
2261.41596,0.01583
2260.38571,0.01733
2259.35545,0.01740
2258.32519,0.01668
2257.29493,0.01675
2256.26468,0.01757
2255.23442,0.01781
2254.20416,0.01694
2253.17390,0.01578
2252.14364,0.01514
2251.11339,0.01523
2250.08313,0.01597
2249.05287,0.01691
2248.02261,0.01755
2246.99235,0.01764
2245.96210,0.01732
2244.93184,0.01698
2243.90158,0.01664
2242.87132,0.01615
2241.84107,0.01559
2240.81081,0.01524
2239.78055,0.01582
2238.75029,0.01726
2237.72003,0.01841
2236.68978,0.01863
2235.65952,0.01846
2234.62926,0.01850
2233.59900,0.01767
2232.56874,0.01619
2231.53849,0.01610
2230.50823,0.01642
2229.47797,0.01618
2228.44771,0.01631
2227.41746,0.01647
2226.38720,0.01609
2225.35694,0.01572
2224.32668,0.01578
2223.29642,0.01640
2222.26617,0.01734
2221.23591,0.01785
2220.20565,0.01768
2219.17539,0.01710
2218.14514,0.01629
2217.11488,0.01588
2216.08462,0.01645
2215.05436,0.01759
2214.02410,0.01849
2212.99385,0.01864
2211.96359,0.01779
2210.93333,0.01697
2209.90307,0.01754
2208.87281,0.01826
2207.84256,0.01757
2206.81230,0.01665
2205.78204,0.01752
2204.75178,0.01918
2203.72153,0.01944
2202.69127,0.01949
2201.66101,0.02006
2200.63075,0.01945
2199.60049,0.01845
2198.57024,0.01789
2197.53998,0.01744
2196.50972,0.01759
2195.47946,0.01714
2194.44920,0.01631
2193.41895,0.01713
2192.38869,0.01813
2191.35843,0.01763
2190.32817,0.01759
2189.29792,0.01910
2188.26766,0.02012
2187.23740,0.01914
2186.20714,0.01753
2185.17688,0.01730
2184.14663,0.01753
2183.11637,0.01726
2182.08611,0.01738
2181.05585,0.01718
2180.02559,0.01592
2178.99534,0.01576
2177.96508,0.01724
2176.93482,0.01815
2175.90456,0.01863
2174.87431,0.01967
2173.84405,0.02038
2172.81379,0.01988
2171.78353,0.01884
2170.75327,0.01860
2169.72302,0.01965
2168.69276,0.02020
2167.66250,0.01962
2166.63224,0.02033
2165.60199,0.02124
2164.57173,0.02032
2163.54147,0.01856
2162.51121,0.01633
2161.48095,0.01475
2160.45070,0.01601
2159.42044,0.01897
2158.39018,0.01940
2157.35992,0.01731
2156.32966,0.01736
2155.29941,0.02005
2154.26915,0.02088
2153.23889,0.01857
2152.20863,0.01608
2151.17838,0.01654
2150.14812,0.01914
2149.11786,0.02076
2148.08760,0.02170
2147.05734,0.02307
2146.02709,0.02342
2144.99683,0.02185
2143.96657,0.02039
2142.93631,0.02077
2141.90605,0.02174
2140.87580,0.02252
2139.84554,0.02353
2138.81528,0.02353
2137.78502,0.02183
2136.75477,0.01988
2135.72451,0.01877
2134.69425,0.01866
2133.66399,0.01912
2132.63373,0.01935
2131.60348,0.01938
2130.57322,0.01946
2129.54296,0.01948
2128.51270,0.02038
2127.48244,0.02193
2126.45219,0.02268
2125.42193,0.02242
2124.39167,0.02167
2123.36141,0.02135
2122.33116,0.02161
2121.30090,0.02162
2120.27064,0.02154
2119.24038,0.02181
2118.21012,0.02193
2117.17987,0.02213
2116.14961,0.02283
2115.11935,0.02331
2114.08909,0.02329
2113.05884,0.02311
2112.02858,0.02291
2110.99832,0.02270
2109.96806,0.02230
2108.93780,0.02163
2107.90755,0.02098
2106.87729,0.02101
2105.84703,0.02185
2104.81677,0.02233
2103.78651,0.02217
2102.75626,0.02237
2101.72600,0.02265
2100.69574,0.02228
2099.66548,0.02193
2098.63523,0.02149
2097.60497,0.02044
2096.57471,0.02021
2095.54445,0.02120
2094.51419,0.02223
2093.48394,0.02282
2092.45368,0.02281
2091.42342,0.02268
2090.39316,0.02263
2089.36290,0.02218
2088.33265,0.02156
2087.30239,0.02140
2086.27213,0.02132
2085.24187,0.02127
2084.21162,0.02170
2083.18136,0.02212
2082.15110,0.02224
2081.12084,0.02227
2080.09058,0.02200
2079.06033,0.02159
2078.03007,0.02150
2076.99981,0.02152
2075.96955,0.02160
2074.93930,0.02153
2073.90904,0.02116
2072.87878,0.02127
2071.84852,0.02129
2070.81826,0.02088
2069.78801,0.02167
2068.75775,0.02274
2067.72749,0.02179
2066.69723,0.01991
2065.66697,0.01926
2064.63672,0.01954
2063.60646,0.01943
2062.57620,0.01918
2061.54594,0.01965
2060.51569,0.02041
2059.48543,0.02048
2058.45517,0.02003
2057.42491,0.02005
2056.39465,0.02059
2055.36440,0.02073
2054.33414,0.02040
2053.30388,0.02019
2052.27362,0.01976
2051.24336,0.01894
2050.21311,0.01852
2049.18285,0.01902
2048.15259,0.01988
2047.12233,0.02018
2046.09208,0.02037
2045.06182,0.02081
2044.03156,0.02023
2043.00130,0.01874
2041.97104,0.01768
2040.94079,0.01762
2039.91053,0.01836
2038.88027,0.01888
2037.85001,0.01881
2036.81975,0.01847
2035.78950,0.01769
2034.75924,0.01688
2033.72898,0.01750
2032.69872,0.01888
2031.66847,0.01930
2030.63821,0.01949
2029.60795,0.01910
2028.57769,0.01761
2027.54743,0.01662
2026.51718,0.01610
2025.48692,0.01561
2024.45666,0.01623
2023.42640,0.01787
2022.39615,0.01865
2021.36589,0.01858
2020.33563,0.01874
2019.30537,0.01865
2018.27511,0.01830
2017.24486,0.01837
2016.21460,0.01823
2015.18434,0.01714
2014.15408,0.01604
2013.12382,0.01544
2012.09357,0.01464
2011.06331,0.01390
2010.03305,0.01389
2009.00279,0.01537
2007.97254,0.01792
2006.94228,0.01840
2005.91202,0.01677
2004.88176,0.01674
2003.85150,0.01784
2002.82125,0.01785
2001.79099,0.01733
2000.76073,0.01628
1999.73047,0.01487
1998.70021,0.01484
1997.66996,0.01544
1996.63970,0.01458
1995.60944,0.01339
1994.57918,0.01419
1993.54893,0.01584
1992.51867,0.01557
1991.48841,0.01561
1990.45815,0.01810
1989.42789,0.01917
1988.39764,0.01865
1987.36738,0.01900
1986.33712,0.01849
1985.30686,0.01674
1984.27660,0.01585
1983.24635,0.01538
1982.21609,0.01373
1981.18583,0.01242
1980.15557,0.01325
1979.12532,0.01462
1978.09506,0.01565
1977.06480,0.01634
1976.03454,0.01631
1975.00428,0.01759
1973.97403,0.01941
1972.94377,0.01898
1971.91351,0.01676
1970.88325,0.01431
1969.85300,0.01369
1968.82274,0.01458
1967.79248,0.01521
1966.76222,0.01482
1965.73196,0.01307
1964.70171,0.01145
1963.67145,0.01120
1962.64119,0.01218
1961.61093,0.01362
1960.58067,0.01481
1959.55042,0.01485
1958.52016,0.01369
1957.48990,0.01293
1956.45964,0.01310
1955.42939,0.01369
1954.39913,0.01415
1953.36887,0.01393
1952.33861,0.01366
1951.30835,0.01397
1950.27810,0.01481
1949.24784,0.01557
1948.21758,0.01512
1947.18732,0.01417
1946.15706,0.01442
1945.12681,0.01468
1944.09655,0.01336
1943.06629,0.01249
1942.03603,0.01316
1941.00578,0.01314
1939.97552,0.01266
1938.94526,0.01327
1937.91500,0.01414
1936.88474,0.01435
1935.85449,0.01420
1934.82423,0.01375
1933.79397,0.01299
1932.76371,0.01241
1931.73345,0.01232
1930.70320,0.01300
1929.67294,0.01377
1928.64268,0.01356
1927.61242,0.01327
1926.58217,0.01363
1925.55191,0.01388
1924.52165,0.01384
1923.49139,0.01382
1922.46113,0.01374
1921.43088,0.01328
1920.40062,0.01280
1919.37036,0.01290
1918.34010,0.01348
1917.30985,0.01401
1916.27959,0.01389
1915.24933,0.01368
1914.21907,0.01379
1913.18881,0.01324
1912.15856,0.01211
1911.12830,0.01183
1910.09804,0.01235
1909.06778,0.01309
1908.03752,0.01363
1907.00727,0.01357
1905.97701,0.01314
1904.94675,0.01282
1903.91649,0.01293
1902.88624,0.01308
1901.85598,0.01301
1900.82572,0.01322
1899.79546,0.01350
1898.76520,0.01331
1897.73495,0.01325
1896.70469,0.01323
1895.67443,0.01265
1894.64417,0.01259
1893.61391,0.01315
1892.58366,0.01333
1891.55340,0.01318
1890.52314,0.01307
1889.49288,0.01324
1888.46263,0.01374
1887.43237,0.01418
1886.40211,0.01429
1885.37185,0.01395
1884.34159,0.01337
1883.31134,0.01311
1882.28108,0.01283
1881.25082,0.01228
1880.22056,0.01224
1879.19030,0.01286
1878.16005,0.01337
1877.12979,0.01365
1876.09953,0.01406
1875.06927,0.01445
1874.03902,0.01447
1873.00876,0.01425
1871.97850,0.01413
1870.94824,0.01420
1869.91798,0.01424
1868.88773,0.01392
1867.85747,0.01328
1866.82721,0.01269
1865.79695,0.01232
1864.76670,0.01239
1863.73644,0.01298
1862.70618,0.01350
1861.67592,0.01345
1860.64566,0.01305
1859.61541,0.01271
1858.58515,0.01276
1857.55489,0.01314
1856.52463,0.01333
1855.49437,0.01352
1854.46412,0.01398
1853.43386,0.01415
1852.40360,0.01377
1851.37334,0.01333
1850.34309,0.01313
1849.31283,0.01330
1848.28257,0.01391
1847.25231,0.01426
1846.22205,0.01401
1845.19180,0.01374
1844.16154,0.01382
1843.13128,0.01378
1842.10102,0.01337
1841.07076,0.01325
1840.04051,0.01379
1839.01025,0.01423
1837.97999,0.01406
1836.94973,0.01405
1835.91948,0.01439
1834.88922,0.01461
1833.85896,0.01477
1832.82870,0.01473
1831.79844,0.01435
1830.76819,0.01398
1829.73793,0.01397
1828.70767,0.01421
1827.67741,0.01440
1826.64715,0.01454
1825.61690,0.01460
1824.58664,0.01453
1823.55638,0.01437
1822.52612,0.01428
1821.49587,0.01426
1820.46561,0.01421
1819.43535,0.01439
1818.40509,0.01477
1817.37483,0.01499
1816.34458,0.01505
1815.31432,0.01522
1814.28406,0.01557
1813.25380,0.01599
1812.22355,0.01618
1811.19329,0.01595
1810.16303,0.01561
1809.13277,0.01539
1808.10251,0.01543
1807.07226,0.01577
1806.04200,0.01592
1805.01174,0.01579
1803.98148,0.01567
1802.95122,0.01580
1801.92097,0.01632
1800.89071,0.01666
1799.86045,0.01660
1798.83019,0.01658
1797.79994,0.01672
1796.76968,0.01684
1795.73942,0.01693
1794.70916,0.01720
1793.67890,0.01756
1792.64865,0.01757
1791.61839,0.01719
1790.58813,0.01716
1789.55787,0.01748
1788.52761,0.01742
1787.49736,0.01723
1786.46710,0.01737
1785.43684,0.01750
1784.40658,0.01748
1783.37633,0.01753
1782.34607,0.01778
1781.31581,0.01825
1780.28555,0.01855
1779.25529,0.01856
1778.22504,0.01864
1777.19478,0.01877
1776.16452,0.01884
1775.13426,0.01896
1774.10400,0.01919
1773.07375,0.01929
1772.04349,0.01905
1771.01323,0.01884
1769.98297,0.01926
1768.95272,0.02000
1767.92246,0.02046
1766.89220,0.02064
1765.86194,0.02078
1764.83168,0.02094
1763.80143,0.02121
1762.77117,0.02140
1761.74091,0.02152
1760.71065,0.02192
1759.68040,0.02249
1758.65014,0.02299
1757.61988,0.02320
1756.58962,0.02330
1755.55936,0.02354
1754.52911,0.02365
1753.49885,0.02363
1752.46859,0.02367
1751.43833,0.02388
1750.40807,0.02451
1749.37782,0.02513
1748.34756,0.02557
1747.31730,0.02600
1746.28704,0.02640
1745.25679,0.02674
1744.22653,0.02703
1743.19627,0.02739
1742.16601,0.02802
1741.13575,0.02866
1740.10550,0.02911
1739.07524,0.02951
1738.04498,0.02995
1737.01472,0.03030
1735.98446,0.03059
1734.95421,0.03106
1733.92395,0.03185
1732.89369,0.03241
1731.86343,0.03273
1730.83318,0.03315
1729.80292,0.03370
1728.77266,0.03438
1727.74240,0.03509
1726.71214,0.03573
1725.68189,0.03647
1724.65163,0.03724
1723.62137,0.03784
1722.59111,0.03849
1721.56085,0.03923
1720.53060,0.03988
1719.50034,0.04070
1718.47008,0.04184
1717.43982,0.04292
1716.40957,0.04353
1715.37931,0.04419
1714.34905,0.04512
1713.31879,0.04606
1712.28853,0.04696
1711.25828,0.04799
1710.22802,0.04923
1709.19776,0.05057
1708.16750,0.05175
1707.13725,0.05268
1706.10699,0.05371
1705.07673,0.05491
1704.04647,0.05604
1703.01621,0.05720
1701.98596,0.05841
1700.95570,0.05969
1699.92544,0.06168
1698.89518,0.06366
1697.86492,0.06500
1696.83467,0.06620
1695.80441,0.06808
1694.77415,0.07042
1693.74389,0.07212
1692.71364,0.07358
1691.68338,0.07510
1690.65312,0.07677
1689.62286,0.07854
1688.59260,0.08034
1687.56235,0.08208
1686.53209,0.08379
1685.50183,0.08565
1684.47157,0.08790
1683.44131,0.09024
1682.41106,0.09208
1681.38080,0.09380
1680.35054,0.09557
1679.32028,0.09754
1678.29003,0.09980
1677.25977,0.10198
1676.22951,0.10381
1675.19925,0.10576
1674.16899,0.10786
1673.13874,0.10973
1672.10848,0.11172
1671.07822,0.11394
1670.04796,0.11611
1669.01771,0.11833
1667.98745,0.12052
1666.95719,0.12252
1665.92693,0.12461
1664.89667,0.12676
1663.86642,0.12894
1662.83616,0.13126
1661.80590,0.13344
1660.77564,0.13526
1659.74538,0.13700
1658.71513,0.13888
1657.68487,0.14085
1656.65461,0.14278
1655.62435,0.14469
1654.59410,0.14639
1653.56384,0.14744
1652.53358,0.14866
1651.50332,0.15107
1650.47306,0.15365
1649.44281,0.15575
1648.41255,0.15712
1647.38229,0.15818
1646.35203,0.15935
1645.32177,0.16032
1644.29152,0.16125
1643.26126,0.16209
1642.23100,0.16278
1641.20074,0.16349
1640.17049,0.16436
1639.14023,0.16520
1638.10997,0.16560
1637.07971,0.16560
1636.04945,0.16491
1635.01920,0.16352
1633.98894,0.16328
1632.95868,0.16351
1631.92842,0.16287
1630.89816,0.16166
1629.86791,0.16056
1628.83765,0.15965
1627.80739,0.15812
1626.77713,0.15585
1625.74688,0.15397
1624.71662,0.15256
1623.68636,0.15054
1622.65610,0.14778
1621.62584,0.14572
1620.59559,0.14395
1619.56533,0.14185
1618.53507,0.13991
1617.50481,0.13797
1616.47456,0.13453
1615.44430,0.13122
1614.41404,0.12916
1613.38378,0.12723
1612.35352,0.12501
1611.32327,0.12235
1610.29301,0.11952
1609.26275,0.11700
1608.23249,0.11492
1607.20223,0.11274
1606.17198,0.11040
1605.14172,0.10829
1604.11146,0.10646
1603.08120,0.10455
1602.05095,0.10232
1601.02069,0.09999
1599.99043,0.09788
1598.96017,0.09608
1597.92991,0.09465
1596.89966,0.09337
1595.86940,0.09182
1594.83914,0.09010
1593.80888,0.08844
1592.77862,0.08687
1591.74837,0.08538
1590.71811,0.08410
1589.68785,0.08284
1588.65759,0.08146
1587.62734,0.08012
1586.59708,0.07890
1585.56682,0.07782
1584.53656,0.07687
1583.50630,0.07588
1582.47605,0.07475
1581.44579,0.07375
1580.41553,0.07299
1579.38527,0.07227
1578.35501,0.07159
1577.32476,0.07079
1576.29450,0.06915
1575.26424,0.06745
1574.23398,0.06690
1573.20373,0.06670
1572.17347,0.06642
1571.14321,0.06607
1570.11295,0.06537
1569.08269,0.06429
1568.05244,0.06370
1567.02218,0.06340
1565.99192,0.06284
1564.96166,0.06208
1563.93141,0.06143
1562.90115,0.06089
1561.87089,0.06054
1560.84063,0.06053
1559.81037,0.06054
1558.78012,0.05970
1557.74986,0.05840
1556.71960,0.05786
1555.68934,0.05768
1554.65908,0.05753
1553.62883,0.05739
1552.59857,0.05707
1551.56831,0.05650
1550.53805,0.05598
1549.50780,0.05570
1548.47754,0.05537
1547.44728,0.05486
1546.41702,0.05455
1545.38676,0.05439
1544.35651,0.05392
1543.32625,0.05351
1542.29599,0.05327
1541.26573,0.05280
1540.23547,0.05206
1539.20522,0.05164
1538.17496,0.05193
1537.14470,0.05215
1536.11444,0.05199
1535.08419,0.05162
1534.05393,0.05128
1533.02367,0.05116
1531.99341,0.05125
1530.96315,0.05102
1529.93290,0.05047
1528.90264,0.05008
1527.87238,0.04996
1526.84212,0.05003
1525.81186,0.04996
1524.78161,0.04965
1523.75135,0.04934
1522.72109,0.04887
1521.69083,0.04829
1520.66058,0.04842
1519.63032,0.04885
1518.60006,0.04883
1517.56980,0.04848
1516.53954,0.04818
1515.50929,0.04815
1514.47903,0.04835
1513.44877,0.04860
1512.41851,0.04860
1511.38826,0.04819
1510.35800,0.04769
1509.32774,0.04757
1508.29748,0.04780
1507.26722,0.04759
1506.23697,0.04707
1505.20671,0.04706
1504.17645,0.04719
1503.14619,0.04731
1502.11593,0.04718
1501.08568,0.04688
1500.05542,0.04684
1499.02516,0.04693
1497.99490,0.04698
1496.96465,0.04699
1495.93439,0.04691
1494.90413,0.04689
1493.87387,0.04689
1492.84361,0.04690
1491.81336,0.04712
1490.78310,0.04739
1489.75284,0.04744
1488.72258,0.04759
1487.69232,0.04782
1486.66207,0.04786
1485.63181,0.04794
1484.60155,0.04822
1483.57129,0.04855
1482.54104,0.04878
1481.51078,0.04906
1480.48052,0.04965
1479.45026,0.05046
1478.42000,0.05146
1477.38975,0.05256
1476.35949,0.05347
1475.32923,0.05412
1474.29897,0.05478
1473.26871,0.05540
1472.23846,0.05556
1471.20820,0.05526
1470.17794,0.05497
1469.14768,0.05479
1468.11743,0.05473
1467.08717,0.05471
1466.05691,0.05470
1465.02665,0.05478
1463.99639,0.05499
1462.96614,0.05504
1461.93588,0.05507
1460.90562,0.05539
1459.87536,0.05573
1458.84511,0.05585
1457.81485,0.05583
1456.78459,0.05579
1455.75433,0.05588
1454.72407,0.05567
1453.69382,0.05502
1452.66356,0.05420
1451.63330,0.05348
1450.60304,0.05301
1449.57278,0.05273
1448.54253,0.05256
1447.51227,0.05242
1446.48201,0.05202
1445.45175,0.05143
1444.42150,0.05091
1443.39124,0.05059
1442.36098,0.05021
1441.33072,0.04964
1440.30046,0.04915
1439.27021,0.04892
1438.23995,0.04881
1437.20969,0.04863
1436.17943,0.04810
1435.14917,0.04765
1434.11892,0.04747
1433.08866,0.04732
1432.05840,0.04717
1431.02814,0.04709
1429.99789,0.04686
1428.96763,0.04668
1427.93737,0.04681
1426.90711,0.04685
1425.87685,0.04662
1424.84660,0.04634
1423.81634,0.04627
1422.78608,0.04642
1421.75582,0.04654
1420.72556,0.04654
1419.69531,0.04637
1418.66505,0.04612
1417.63479,0.04607
1416.60453,0.04609
1415.57428,0.04614
1414.54402,0.04606
1413.51376,0.04586
1412.48350,0.04595
1411.45324,0.04626
1410.42299,0.04633
1409.39273,0.04617
1408.36247,0.04598
1407.33221,0.04590
1406.30196,0.04607
1405.27170,0.04643
1404.24144,0.04659
1403.21118,0.04647
1402.18092,0.04638
1401.15067,0.04647
1400.12041,0.04653
1399.09015,0.04648
1398.05989,0.04644
1397.02963,0.04644
1395.99938,0.04648
1394.96912,0.04643
1393.93886,0.04614
1392.90860,0.04590
1391.87835,0.04583
1390.84809,0.04587
1389.81783,0.04603
1388.78757,0.04619
1387.75731,0.04636
1386.72706,0.04645
1385.69680,0.04641
1384.66654,0.04638
1383.63628,0.04638
1382.60602,0.04637
1381.57577,0.04647
1380.54551,0.04655
1379.51525,0.04645
1378.48499,0.04654
1377.45474,0.04693
1376.42448,0.04723
1375.39422,0.04734
1374.36396,0.04746
1373.33370,0.04757
1372.30345,0.04772
1371.27319,0.04810
1370.24293,0.04868
1369.21267,0.04917
1368.18241,0.04944
1367.15216,0.04965
1366.12190,0.04988
1365.09164,0.05015
1364.06138,0.05043
1363.03113,0.05101
1362.00087,0.05219
1360.97061,0.05347
1359.94035,0.05443
1358.91009,0.05528
1357.87984,0.05612
1356.84958,0.05700
1355.81932,0.05799
1354.78906,0.05897
1353.75881,0.06016
1352.72855,0.06144
1351.69829,0.06237
1350.66803,0.06308
1349.63777,0.06350
1348.60752,0.06284
1347.57726,0.06091
1346.54700,0.05846
1345.51674,0.05602
1344.48648,0.05388
1343.45623,0.05213
1342.42597,0.05060
1341.39571,0.04954
1340.36545,0.04913
1339.33520,0.04902
1338.30494,0.04894
1337.27468,0.04891
1336.24442,0.04886
1335.21416,0.04877
1334.18391,0.04871
1333.15365,0.04879
1332.12339,0.04886
1331.09313,0.04865
1330.06287,0.04822
1329.03262,0.04787
1328.00236,0.04760
1326.97210,0.04726
1325.94184,0.04709
1324.91159,0.04726
1323.88133,0.04743
1322.85107,0.04732
1321.82081,0.04730
1320.79055,0.04759
1319.76030,0.04775
1318.73004,0.04771
1317.69978,0.04784
1316.66952,0.04816
1315.63927,0.04838
1314.60901,0.04856
1313.57875,0.04900
1312.54849,0.04964
1311.51823,0.05007
1310.48798,0.05040
1309.45772,0.05092
1308.42746,0.05154
1307.39720,0.05208
1306.36694,0.05242
1305.33669,0.05262
1304.30643,0.05284
1303.27617,0.05316
1302.24591,0.05343
1301.21566,0.05342
1300.18540,0.05332
1299.15514,0.05343
1298.12488,0.05366
1297.09462,0.05378
1296.06437,0.05377
1295.03411,0.05367
1294.00385,0.05347
1292.97359,0.05338
1291.94333,0.05354
1290.91308,0.05368
1289.88282,0.05369
1288.85256,0.05369
1287.82230,0.05351
1286.79205,0.05337
1285.76179,0.05335
1284.73153,0.05318
1283.70127,0.05292
1282.67101,0.05263
1281.64076,0.05220
1280.61050,0.05178
1279.58024,0.05150
1278.54998,0.05127
1277.51972,0.05087
1276.48947,0.05035
1275.45921,0.05006
1274.42895,0.05010
1273.39869,0.05020
1272.36844,0.05010
1271.33818,0.04995
1270.30792,0.04997
1269.27766,0.05004
1268.24740,0.05013
1267.21715,0.05030
1266.18689,0.05059
1265.15663,0.05105
1264.12637,0.05157
1263.09612,0.05211
1262.06586,0.05256
1261.03560,0.05296
1260.00534,0.05353
1258.97508,0.05408
1257.94483,0.05449
1256.91457,0.05501
1255.88431,0.05543
1254.85405,0.05558
1253.82379,0.05565
1252.79354,0.05576
1251.76328,0.05590
1250.73302,0.05609
1249.70276,0.05610
1248.67251,0.05560
1247.64225,0.05486
1246.61199,0.05430
1245.58173,0.05387
1244.55147,0.05322
1243.52122,0.05244
1242.49096,0.05194
1241.46070,0.05158
1240.43044,0.05117
1239.40018,0.05085
1238.36993,0.05062
1237.33967,0.05029
1236.30941,0.04991
1235.27915,0.04954
1234.24890,0.04912
1233.21864,0.04884
1232.18838,0.04865
1231.15812,0.04838
1230.12786,0.04818
1229.09761,0.04798
1228.06735,0.04762
1227.03709,0.04729
1226.00683,0.04713
1224.97657,0.04706
1223.94632,0.04693
1222.91606,0.04672
1221.88580,0.04649
1220.85554,0.04635
1219.82529,0.04622
1218.79503,0.04621
1217.76477,0.04635
1216.73451,0.04627
1215.70425,0.04594
1214.67400,0.04573
1213.64374,0.04571
1212.61348,0.04573
1211.58322,0.04563
1210.55297,0.04545
1209.52271,0.04531
1208.49245,0.04535
1207.46219,0.04551
1206.43193,0.04555
1205.40168,0.04543
1204.37142,0.04523
1203.34116,0.04510
1202.31090,0.04513
1201.28064,0.04511
1200.25039,0.04495
1199.22013,0.04495
1198.18987,0.04524
1197.15961,0.04556
1196.12936,0.04566
1195.09910,0.04571
1194.06884,0.04581
1193.03858,0.04584
1192.00832,0.04585
1190.97807,0.04567
1189.94781,0.04537
1188.91755,0.04525
1187.88729,0.04523
1186.85703,0.04527
1185.82678,0.04544
1184.79652,0.04561
1183.76626,0.04561
1182.73600,0.04560
1181.70575,0.04579
1180.67549,0.04602
1179.64523,0.04609
1178.61497,0.04605
1177.58471,0.04585
1176.55446,0.04560
1175.52420,0.04568
1174.49394,0.04599
1173.46368,0.04622
1172.43342,0.04638
1171.40317,0.04647
1170.37291,0.04644
1169.34265,0.04659
1168.31239,0.04699
1167.28214,0.04733
1166.25188,0.04756
1165.22162,0.04778
1164.19136,0.04810
1163.16110,0.04862
1162.13085,0.04928
1161.10059,0.04990
1160.07033,0.05049
1159.04007,0.05126
1158.00982,0.05212
1156.97956,0.05284
1155.94930,0.05351
1154.91904,0.05434
1153.88878,0.05544
1152.85853,0.05679
1151.82827,0.05818
1150.79801,0.05962
1149.76775,0.06110
1148.73749,0.06227
1147.70724,0.06347
1146.67698,0.06509
1145.64672,0.06670
1144.61646,0.06803
1143.58621,0.06935
1142.55595,0.07068
1141.52569,0.07189
1140.49543,0.07307
1139.46517,0.07427
1138.43492,0.07519
1137.40466,0.07581
1136.37440,0.07650
1135.34414,0.07735
1134.31388,0.07821
1133.28363,0.07889
1132.25337,0.07922
1131.22311,0.07975
1130.19285,0.08066
1129.16260,0.08147
1128.13234,0.08233
1127.10208,0.08345
1126.07182,0.08438
1125.04156,0.08506
1124.01131,0.08593
1122.98105,0.08714
1121.95079,0.08863
1120.92053,0.09015
1119.89027,0.09152
1118.86002,0.09272
1117.82976,0.09353
1116.79950,0.09425
1115.76924,0.09550
1114.73899,0.09699
1113.70873,0.09826
1112.67847,0.09943
1111.64821,0.10057
1110.61795,0.10173
1109.58770,0.10289
1108.55744,0.10409
1107.52718,0.10543
1106.49692,0.10684
1105.46667,0.10810
1104.43641,0.10913
1103.40615,0.11029
1102.37589,0.11179
1101.34563,0.11320
1100.31538,0.11450
1099.28512,0.11566
1098.25486,0.11647
1097.22460,0.11739
1096.19434,0.11856
1095.16409,0.11970
1094.13383,0.12060
1093.10357,0.12114
1092.07331,0.12161
1091.04306,0.12196
1090.01280,0.12228
1088.98254,0.12283
1087.95228,0.12331
1086.92202,0.12373
1085.89177,0.12416
1084.86151,0.12423
1083.83125,0.12394
1082.80099,0.12383
1081.77073,0.12397
1080.74048,0.12378
1079.71022,0.12317
1078.67996,0.12246
1077.64970,0.12167
1076.61945,0.12092
1075.58919,0.12033
1074.55893,0.11973
1073.52867,0.11893
1072.49841,0.11775
1071.46816,0.11631
1070.43790,0.11489
1069.40764,0.11368
1068.37738,0.11260
1067.34712,0.11140
1066.31687,0.11006
1065.28661,0.10836
1064.25635,0.10614
1063.22609,0.10391
1062.19584,0.10198
1061.16558,0.10002
1060.13532,0.09765
1059.10506,0.09515
1058.07480,0.09321
1057.04455,0.09153
1056.01429,0.08920
1054.98403,0.08656
1053.95377,0.08441
1052.92352,0.08245
1051.89326,0.08021
1050.86300,0.07809
1049.83274,0.07636
1048.80248,0.07519
1047.77223,0.07453
1046.74197,0.07363
1045.71171,0.07238
1044.68145,0.07141
1043.65119,0.07089
1042.62094,0.07070
1041.59068,0.07062
1040.56042,0.07033
1039.53016,0.06990
1038.49991,0.06961
1037.46965,0.06943
1036.43939,0.06912
1035.40913,0.06874
1034.37887,0.06865
1033.34862,0.06875
1032.31836,0.06858
1031.28810,0.06807
1030.25784,0.06747
1029.22758,0.06718
1028.19733,0.06716
1027.16707,0.06684
1026.13681,0.06629
1025.10655,0.06577
1024.07630,0.06511
1023.04604,0.06446
1022.01578,0.06393
1020.98552,0.06330
1019.95526,0.06266
1018.92501,0.06220
1017.89475,0.06185
1016.86449,0.06151
1015.83423,0.06115
1014.80397,0.06094
1013.77372,0.06085
1012.74346,0.06066
1011.71320,0.06009
1010.68294,0.05938
1009.65269,0.05925
1008.62243,0.05954
1007.59217,0.05953
1006.56191,0.05928
1005.53165,0.05916
1004.50140,0.05910
1003.47114,0.05916
1002.44088,0.05944
1001.41062,0.05952
1000.38037,0.05922
999.35011,0.05911
998.31985,0.05946
997.28959,0.05967
996.25933,0.05944
995.22908,0.05931
994.19882,0.05955
993.16856,0.05988
992.13830,0.06006
991.10804,0.06007
990.07779,0.06023
989.04753,0.06068
988.01727,0.06103
986.98701,0.06103
985.95676,0.06091
984.92650,0.06098
983.89624,0.06127
982.86598,0.06152
981.83572,0.06157
980.80547,0.06151
979.77521,0.06126
978.74495,0.06088
977.71469,0.06097
976.68443,0.06156
975.65418,0.06195
974.62392,0.06213
973.59366,0.06240
972.56340,0.06272
971.53315,0.06313
970.50289,0.06360
969.47263,0.06404
968.44237,0.06462
967.41211,0.06535
966.38186,0.06595
965.35160,0.06652
964.32134,0.06741
963.29108,0.06869
962.26082,0.06999
961.23057,0.07115
960.20031,0.07247
959.17005,0.07391
958.13979,0.07544
957.10954,0.07741
956.07928,0.07958
955.04902,0.08146
954.01876,0.08325
952.98850,0.08493
951.95825,0.08611
950.92799,0.08685
949.89773,0.08756
948.86747,0.08839
947.83722,0.08931
946.80696,0.08991
945.77670,0.09003
944.74644,0.09016
943.71618,0.09038
942.68593,0.09025
941.65567,0.08983
940.62541,0.08964
939.59515,0.08979
938.56489,0.08989
937.53464,0.08971
936.50438,0.08946
935.47412,0.08931
934.44386,0.08918
933.41361,0.08917
932.38335,0.08924
931.35309,0.08911
930.32283,0.08883
929.29257,0.08851
928.26232,0.08828
927.23206,0.08829
926.20180,0.08846
925.17154,0.08859
924.14128,0.08849
923.11103,0.08855
922.08077,0.08900
921.05051,0.08933
920.02025,0.08962
918.99000,0.09019
917.95974,0.09059
916.92948,0.09075
915.89922,0.09124
914.86896,0.09208
913.83871,0.09274
912.80845,0.09327
911.77819,0.09367
910.74793,0.09351
909.71768,0.09311
908.68742,0.09314
907.65716,0.09367
906.62690,0.09451
905.59664,0.09549
904.56639,0.09637
903.53613,0.09689
902.50587,0.09697
901.47561,0.09706
900.44535,0.09762
899.41510,0.09842
898.38484,0.09943
897.35458,0.10056
896.32432,0.10150
895.29407,0.10220
894.26381,0.10282
893.23355,0.10375
892.20329,0.10506
891.17303,0.10627
890.14278,0.10725
889.11252,0.10826
888.08226,0.10933
887.05200,0.11050
886.02174,0.11162
884.99149,0.11234
883.96123,0.11274
882.93097,0.11314
881.90071,0.11376
880.87046,0.11448
879.84020,0.11521
878.80994,0.11612
877.77968,0.11723
876.74942,0.11861
875.71917,0.12002
874.68891,0.12092
873.65865,0.12116
872.62839,0.12128
871.59813,0.12187
870.56788,0.12302
869.53762,0.12465
868.50736,0.12646
867.47710,0.12792
866.44685,0.12885
865.41659,0.12924
864.38633,0.12945
863.35607,0.13026
862.32581,0.13167
861.29556,0.13323
860.26530,0.13474
859.23504,0.13605
858.20478,0.13726
857.17453,0.13833
856.14427,0.13961
855.11401,0.14117
854.08375,0.14264
853.05349,0.14407
852.02324,0.14549
850.99298,0.14697
849.96272,0.14839
848.93246,0.14965
847.90220,0.15107
846.87195,0.15253
845.84169,0.15348
844.81143,0.15446
843.78117,0.15614
842.75092,0.15775
841.72066,0.15902
840.69040,0.16051
839.66014,0.16191
838.62988,0.16279
837.59963,0.16379
836.56937,0.16550
835.53911,0.16730
834.50885,0.16850
833.47859,0.16966
832.44834,0.17118
831.41808,0.17243
830.38782,0.17342
829.35756,0.17468
828.32731,0.17573
827.29705,0.17616
826.26679,0.17662
825.23653,0.17769
824.20627,0.17943
823.17602,0.18165
822.14576,0.18387
821.11550,0.18547
820.08524,0.18625
819.05498,0.18667
818.02473,0.18716
816.99447,0.18795
815.96421,0.18924
814.93395,0.19095
813.90370,0.19243
812.87344,0.19337
811.84318,0.19466
810.81292,0.19651
809.78266,0.19792
808.75241,0.19873
807.72215,0.19963
806.69189,0.20088
805.66163,0.20179
804.63138,0.20234
803.60112,0.20346
802.57086,0.20514
801.54060,0.20657
800.51034,0.20803
799.48009,0.21011
798.44983,0.21195
797.41957,0.21275
796.38931,0.21324
795.35905,0.21422
794.32880,0.21556
793.29854,0.21724
792.26828,0.21900
791.23802,0.22014
790.20777,0.22132
789.17751,0.22308
788.14725,0.22489
787.11699,0.22623
786.08673,0.22711
785.05648,0.22816
784.02622,0.22986
782.99596,0.23164
781.96570,0.23275
780.93544,0.23350
779.90519,0.23474
778.87493,0.23645
777.84467,0.23779
776.81441,0.23851
775.78416,0.23936
774.75390,0.24071
773.72364,0.24217
772.69338,0.24385
771.66312,0.24567
770.63287,0.24711
769.60261,0.24842
768.57235,0.24966
767.54209,0.25082
766.51183,0.25236
765.48158,0.25440
764.45132,0.25645
763.42106,0.25754
762.39080,0.25782
761.36055,0.25851
760.33029,0.25997
759.30003,0.26153
758.26977,0.26311
757.23951,0.26529
756.20926,0.26692
755.17900,0.26787
754.14874,0.26967
753.11848,0.27135
752.08823,0.27218
751.05797,0.27369
750.02771,0.27583
748.99745,0.27726
747.96719,0.27843
746.93694,0.27979
745.90668,0.28084
744.87642,0.28218
743.84616,0.28373
742.81590,0.28531
741.78565,0.28777
740.75539,0.29032
739.72513,0.29170
738.69487,0.29268
737.66462,0.29409
736.63436,0.29548
735.60410,0.29644
734.57384,0.29714
733.54358,0.29834
732.51333,0.30002
731.48307,0.30139
730.45281,0.30337
729.42255,0.30607
728.39229,0.30723
727.36204,0.30689
726.33178,0.30727
725.30152,0.30874
724.27126,0.31060
723.24101,0.31265
722.21075,0.31486
721.18049,0.31692
720.15023,0.31830
719.11997,0.31876
718.08972,0.31933
717.05946,0.32108
716.02920,0.32338
714.99894,0.32504
713.96868,0.32602
712.93843,0.32694
711.90817,0.32771
710.87791,0.32914
709.84765,0.33173
708.81740,0.33403
707.78714,0.33546
706.75688,0.33697
705.72662,0.33872
704.69636,0.33977
703.66611,0.34025
702.63585,0.34047
701.60559,0.34092
700.57533,0.34241
699.54508,0.34404
698.51482,0.34541
697.48456,0.34773
696.45430,0.35033
695.42404,0.35157
694.39379,0.35204
693.36353,0.35335
692.33327,0.35584
691.30301,0.35791
690.27275,0.35816
689.24250,0.35838
688.21224,0.36069
687.18198,0.36349
686.15172,0.36477
685.12147,0.36481
684.09121,0.36541
683.06095,0.36733
682.03069,0.36900
681.00043,0.36945
679.97018,0.36974
678.93992,0.37089
677.90966,0.37274
676.87940,0.37498
675.84914,0.37728
674.81889,0.37855
673.78863,0.37880
672.75837,0.37958
671.72811,0.38101
670.69786,0.38239
669.66760,0.38453
668.63734,0.38696
667.60708,0.38625
666.57682,0.38671
665.54657,0.38955
664.51631,0.39225
663.48605,0.39400
662.45579,0.39475
661.42553,0.39462
660.39528,0.39499
659.36502,0.39545
658.33476,0.39565
657.30450,0.39727
656.27425,0.39945
655.24399,0.40047
654.21373,0.40154
653.18347,0.40358
652.15321,0.40602
651.12296,0.40827
650.09270,0.41039
649.06244,0.41183
648.03218,0.41158
647.00193,0.41076
645.97167,0.41130
644.94141,0.41368
643.91115,0.41657
642.88089,0.41879
641.85064,0.41985
640.82038,0.41985
639.79012,0.41982
638.75986,0.42026
637.72960,0.42117
636.69935,0.42187
635.66909,0.42221
634.63883,0.42344
633.60857,0.42504
632.57832,0.42573
631.54806,0.42651
630.51780,0.42802
629.48754,0.42897
628.45728,0.42897
627.42703,0.42940
626.39677,0.43168
625.36651,0.43502
624.33625,0.43707
623.30599,0.43812
622.27574,0.43915
621.24548,0.43940
620.21522,0.44017
619.18496,0.44211
618.15471,0.44349
617.12445,0.44298
616.09419,0.44161
615.06393,0.44354
614.03367,0.44839
613.00342,0.44984
611.97316,0.44695
610.94290,0.44503
609.91264,0.44641
608.88238,0.44964
607.85213,0.45220
606.82187,0.45293
605.79161,0.45399
604.76135,0.45630
603.73110,0.45864
602.70084,0.46028
601.67058,0.46093
600.64032,0.46111
599.61006,0.46123
598.57981,0.46126
597.54955,0.46215
596.51929,0.46393
595.48903,0.46459
594.45878,0.46447
593.42852,0.46562
592.39826,0.46781
591.36800,0.46926
590.33774,0.46980
589.30749,0.47149
588.27723,0.47372
587.24697,0.47421
586.21671,0.47408
585.18645,0.47430
584.15620,0.47414
583.12594,0.47311
582.09568,0.47248
581.06542,0.47510
580.03517,0.47864
579.00491,0.47818
577.97465,0.47700
576.94439,0.47975
575.91413,0.48270
574.88388,0.48254
573.85362,0.48291
572.82336,0.48584
571.79310,0.48817
570.76284,0.48713
569.73259,0.48540
568.70233,0.48511
567.67207,0.48473
566.64181,0.48442
565.61156,0.48559
564.58130,0.48812
563.55104,0.49075
562.52078,0.49272
561.49052,0.49376
560.46027,0.49463
559.43001,0.49675
558.39975,0.49909
557.36949,0.49983
556.33924,0.49894
555.30898,0.49722
554.27872,0.49642
553.24846,0.49839
552.21820,0.50260
551.18795,0.50745
550.15769,0.51055
549.12743,0.50952
548.09717,0.50586
547.06691,0.50266
546.03666,0.50207
545.00640,0.50343
543.97614,0.50213
542.94588,0.49982
541.91563,0.50216
540.88537,0.50702
539.85511,0.50972
538.82485,0.51055
537.79459,0.51122
536.76434,0.51218
535.73408,0.51387
534.70382,0.51530
533.67356,0.51568
532.64330,0.51489
531.61305,0.51325
530.58279,0.51314
529.55253,0.51437
528.52227,0.51551
527.49202,0.51594
526.46176,0.51700
525.43150,0.52076
524.40124,0.52399
523.37098,0.52491
522.34073,0.52460
521.31047,0.52382
520.28021,0.52374
519.24995,0.52342
518.21969,0.52281
517.18944,0.52188
516.15918,0.52093
515.12892,0.52146
514.09866,0.52250
513.06841,0.52489
512.03815,0.52717
511.00789,0.52501
509.97763,0.52196
508.94737,0.52152
507.91712,0.52375
506.88686,0.52996
505.85660,0.53534
504.82634,0.53424
503.79609,0.53037
502.76583,0.52986
501.73557,0.53333
500.70531,0.53611
499.67505,0.53717
498.64480,0.53906
497.61454,0.54045
496.58428,0.53977
495.55402,0.54057
494.52376,0.54365
493.49351,0.54487
492.46325,0.54219
491.43299,0.53836
490.40273,0.53407
489.37248,0.52952
488.34222,0.53104
487.31196,0.53653
486.28170,0.53854
485.25144,0.54055
484.22119,0.54259
483.19093,0.54000
482.16067,0.53833
481.13041,0.54067
480.10015,0.54065
479.06990,0.53775
478.03964,0.53747
477.00938,0.53916
475.97912,0.53983
474.94887,0.54262
473.91861,0.54951
472.88835,0.55611
471.85809,0.55516
470.82783,0.54850
469.79758,0.54558
468.76732,0.54863
467.73706,0.55104
466.70680,0.54990
465.67654,0.55035
464.64629,0.54948
463.61603,0.54216
462.58577,0.53703
461.55551,0.54314
460.52526,0.55100
459.49500,0.54719
458.46474,0.54084
457.43448,0.54414
456.40422,0.55078
455.37397,0.55159
454.34371,0.54724
453.31345,0.54415
452.28319,0.54361
451.25294,0.54220
450.22268,0.54082
449.19242,0.54257
448.16216,0.54692
447.13190,0.54904
446.10165,0.54830
445.07139,0.55065
444.04113,0.55353
443.01087,0.55125
441.98061,0.55099
440.95036,0.55489
439.92010,0.55142
438.88984,0.54230
437.85958,0.54128
436.82933,0.54777
435.79907,0.55184
434.76881,0.55328
433.73855,0.55383
432.70829,0.55197
431.67804,0.55089
430.64778,0.55187
429.61752,0.55821
428.58726,0.56918
427.55700,0.56568
426.52675,0.55011
425.49649,0.54622
424.46623,0.54978
423.43597,0.55030
422.40572,0.55571
421.37546,0.56210
420.34520,0.56061
419.31494,0.55378
418.28468,0.55009
417.25443,0.55181
416.22417,0.55783
415.19391,0.56674
414.16365,0.57139
413.13339,0.56712
412.10314,0.55657
411.07288,0.55139
410.04262,0.55762
409.01236,0.56543
407.98211,0.56798
406.95185,0.57572
405.92159,0.58853
404.89133,0.58581
403.86107,0.57437
402.83082,0.57255
401.80056,0.56992
400.77030,0.56071
399.74004,0.55505
