4998.81105,0.00368
4997.78079,0.00361
4996.75054,0.00352
4995.72028,0.00346
4994.69002,0.00335
4993.65976,0.00271
4992.62951,0.00163
4991.59925,0.00132
4990.56899,0.00242
4989.53873,0.00350
4988.50847,0.00339
4987.47822,0.00279
4986.44796,0.00242
4985.41770,0.00202
4984.38744,0.00145
4983.35718,0.00140
4982.32693,0.00224
4981.29667,0.00268
4980.26641,0.00241
4979.23615,0.00270
4978.20590,0.00350
4977.17564,0.00420
4976.14538,0.00446
4975.11512,0.00434
4974.08486,0.00403
4973.05461,0.00274
4972.02435,0.00125
4970.99409,0.00154
4969.96383,0.00256
4968.93357,0.00273
4967.90332,0.00297
4966.87306,0.00351
4965.84280,0.00342
4964.81254,0.00282
4963.78229,0.00286
4962.75203,0.00399
4961.72177,0.00465
4960.69151,0.00408
4959.66125,0.00368
4958.63100,0.00399
4957.60074,0.00374
4956.57048,0.00268
4955.54022,0.00253
4954.50997,0.00323
4953.47971,0.00331
4952.44945,0.00314
4951.41919,0.00332
4950.38893,0.00339
4949.35868,0.00315
4948.32842,0.00277
4947.29816,0.00257
4946.26790,0.00296
4945.23764,0.00310
4944.20739,0.00254
4943.17713,0.00250
4942.14687,0.00317
4941.11661,0.00398
4940.08636,0.00477
4939.05610,0.00493
4938.02584,0.00393
4936.99558,0.00289
4935.96532,0.00308
4934.93507,0.00344
4933.90481,0.00278
4932.87455,0.00196
4931.84429,0.00135
4930.81403,0.00088
4929.78378,0.00126
4928.75352,0.00225
4927.72326,0.00307
4926.69300,0.00324
4925.66275,0.00252
4924.63249,0.00178
4923.60223,0.00161
4922.57197,0.00166
4921.54171,0.00216
4920.51146,0.00316
4919.48120,0.00372
4918.45094,0.00341
4917.42068,0.00264
4916.39042,0.00241
4915.36017,0.00302
4914.32991,0.00298
4913.29965,0.00191
4912.26939,0.00158
4911.23914,0.00209
4910.20888,0.00218
4909.17862,0.00226
4908.14836,0.00286
4907.11810,0.00339
4906.08785,0.00384
4905.05759,0.00456
4904.02733,0.00454
4902.99707,0.00311
4901.96682,0.00241
4900.93656,0.00275
4899.90630,0.00273
4898.87604,0.00266
4897.84578,0.00256
4896.81553,0.00235
4895.78527,0.00239
4894.75501,0.00298
4893.72475,0.00399
4892.69449,0.00413
4891.66424,0.00338
4890.63398,0.00365
4889.60372,0.00420
4888.57346,0.00322
4887.54321,0.00214
4886.51295,0.00276
4885.48269,0.00406
4884.45243,0.00459
4883.42217,0.00415
4882.39192,0.00312
4881.36166,0.00284
4880.33140,0.00287
4879.30114,0.00216
4878.27088,0.00196
4877.24063,0.00217
4876.21037,0.00173
4875.18011,0.00148
4874.14985,0.00177
4873.11960,0.00177
4872.08934,0.00164
4871.05908,0.00198
4870.02882,0.00265
4868.99856,0.00303
4867.96831,0.00346
4866.93805,0.00423
4865.90779,0.00425
4864.87753,0.00330
4863.84727,0.00241
4862.81702,0.00219
4861.78676,0.00219
4860.75650,0.00194
4859.72624,0.00185
4858.69599,0.00215
4857.66573,0.00212
4856.63547,0.00177
4855.60521,0.00180
4854.57495,0.00171
4853.54470,0.00106
4852.51444,0.00072
4851.48418,0.00157
4850.45392,0.00282
4849.42367,0.00355
4848.39341,0.00385
4847.36315,0.00362
4846.33289,0.00289
4845.30263,0.00252
4844.27238,0.00274
4843.24212,0.00295
4842.21186,0.00319
4841.18160,0.00391
4840.15134,0.00451
4839.12109,0.00424
4838.09083,0.00351
4837.06057,0.00255
4836.03031,0.00203
4835.00006,0.00210
4833.96980,0.00162
4832.93954,0.00111
4831.90928,0.00153
4830.87902,0.00252
4829.84877,0.00348
4828.81851,0.00353
4827.78825,0.00275
4826.75799,0.00251
4825.72773,0.00266
4824.69748,0.00221
4823.66722,0.00181
4822.63696,0.00207
4821.60670,0.00252
4820.57645,0.00276
4819.54619,0.00286
4818.51593,0.00319
4817.48567,0.00352
4816.45541,0.00309
4815.42516,0.00220
4814.39490,0.00202
4813.36464,0.00255
4812.33438,0.00256
4811.30412,0.00225
4810.27387,0.00226
4809.24361,0.00230
4808.21335,0.00212
4807.18309,0.00177
4806.15284,0.00186
4805.12258,0.00260
4804.09232,0.00360
4803.06206,0.00389
4802.03180,0.00322
4801.00155,0.00314
4799.97129,0.00345
4798.94103,0.00297
4797.91077,0.00253
4796.88052,0.00257
4795.85026,0.00269
4794.82000,0.00280
4793.78974,0.00269
4792.75948,0.00244
4791.72923,0.00275
4790.69897,0.00382
4789.66871,0.00403
4788.63845,0.00281
4787.60819,0.00145
4786.57794,0.00083
4785.54768,0.00111
4784.51742,0.00191
4783.48716,0.00235
4782.45691,0.00185
4781.42665,0.00170
4780.39639,0.00244
4779.36613,0.00270
4778.33587,0.00224
4777.30562,0.00160
4776.27536,0.00139
4775.24510,0.00157
4774.21484,0.00153
4773.18458,0.00193
4772.15433,0.00280
4771.12407,0.00318
4770.09381,0.00335
4769.06355,0.00314
4768.03330,0.00255
4767.00304,0.00213
4765.97278,0.00147
4764.94252,0.00144
4763.91226,0.00230
4762.88201,0.00258
4761.85175,0.00271
4760.82149,0.00314
4759.79123,0.00281
4758.76098,0.00241
4757.73072,0.00325
4756.70046,0.00453
4755.67020,0.00485
4754.63994,0.00438
4753.60969,0.00383
4752.57943,0.00312
4751.54917,0.00299
4750.51891,0.00411
4749.48865,0.00497
4748.45840,0.00419
4747.42814,0.00255
4746.39788,0.00168
4745.36762,0.00197
4744.33737,0.00242
4743.30711,0.00215
4742.27685,0.00141
4741.24659,0.00111
4740.21633,0.00169
4739.18608,0.00246
4738.15582,0.00251
4737.12556,0.00168
4736.09530,0.00069
4735.06504,0.00046
4734.03479,0.00104
4733.00453,0.00227
4731.97427,0.00342
4730.94401,0.00345
4729.91376,0.00276
4728.88350,0.00220
4727.85324,0.00237
4726.82298,0.00290
4725.79272,0.00283
4724.76247,0.00247
4723.73221,0.00221
4722.70195,0.00170
4721.67169,0.00103
4720.64143,0.00107
4719.61118,0.00183
4718.58092,0.00215
4717.55066,0.00197
4716.52040,0.00198
4715.49015,0.00250
4714.45989,0.00336
4713.42963,0.00409
4712.39937,0.00407
4711.36911,0.00332
4710.33886,0.00281
4709.30860,0.00281
4708.27834,0.00254
4707.24808,0.00177
4706.21783,0.00132
4705.18757,0.00158
4704.15731,0.00178
4703.12705,0.00126
4702.09679,0.00086
4701.06654,0.00086
4700.03628,0.00064
4699.00602,0.00056
4697.97576,0.00094
4696.94550,0.00131
4695.91525,0.00147
4694.88499,0.00167
4693.85473,0.00206
4692.82447,0.00240
4691.79422,0.00230
4690.76396,0.00195
4689.73370,0.00211
4688.70344,0.00263
4687.67318,0.00293
4686.64293,0.00294
4685.61267,0.00271
4684.58241,0.00253
4683.55215,0.00266
4682.52189,0.00266
4681.49164,0.00202
4680.46138,0.00140
4679.43112,0.00137
4678.40086,0.00142
4677.37061,0.00172
4676.34035,0.00219
4675.31009,0.00218
4674.27983,0.00196
4673.24957,0.00212
4672.21932,0.00244
4671.18906,0.00247
4670.15880,0.00241
4669.12854,0.00232
4668.09828,0.00213
4667.06803,0.00228
4666.03777,0.00259
4665.00751,0.00244
4663.97725,0.00242
4662.94700,0.00311
4661.91674,0.00358
4660.88648,0.00334
4659.85622,0.00330
4658.82596,0.00345
4657.79571,0.00279
4656.76545,0.00199
4655.73519,0.00250
4654.70493,0.00379
4653.67468,0.00400
4652.64442,0.00289
4651.61416,0.00188
4650.58390,0.00184
4649.55364,0.00258
4648.52339,0.00311
4647.49313,0.00282
4646.46287,0.00206
4645.43261,0.00131
4644.40235,0.00148
4643.37210,0.00248
4642.34184,0.00284
4641.31158,0.00228
4640.28132,0.00161
4639.25107,0.00197
4638.22081,0.00340
4637.19055,0.00400
4636.16029,0.00279
4635.13003,0.00142
4634.09978,0.00144
4633.06952,0.00175
4632.03926,0.00152
4631.00900,0.00136
4629.97874,0.00152
4628.94849,0.00204
4627.91823,0.00286
4626.88797,0.00340
4625.85771,0.00317
4624.82746,0.00281
4623.79720,0.00294
4622.76694,0.00355
4621.73668,0.00394
4620.70642,0.00387
4619.67617,0.00402
4618.64591,0.00413
4617.61565,0.00377
4616.58539,0.00347
4615.55513,0.00322
4614.52488,0.00242
4613.49462,0.00181
4612.46436,0.00216
4611.43410,0.00269
4610.40385,0.00278
4609.37359,0.00241
4608.34333,0.00208
4607.31307,0.00234
4606.28281,0.00258
4605.25256,0.00234
4604.22230,0.00182
4603.19204,0.00130
4602.16178,0.00134
4601.13153,0.00195
4600.10127,0.00243
4599.07101,0.00246
4598.04075,0.00245
4597.01049,0.00259
4595.98024,0.00235
4594.94998,0.00168
4593.91972,0.00135
4592.88946,0.00146
4591.85920,0.00172
4590.82895,0.00201
4589.79869,0.00235
4588.76843,0.00287
4587.73817,0.00341
4586.70792,0.00351
4585.67766,0.00286
4584.64740,0.00192
4583.61714,0.00157
4582.58688,0.00145
4581.55663,0.00091
4580.52637,0.00100
4579.49611,0.00194
4578.46585,0.00221
4577.43559,0.00184
4576.40534,0.00189
4575.37508,0.00257
4574.34482,0.00313
4573.31456,0.00298
4572.28431,0.00269
4571.25405,0.00259
4570.22379,0.00259
4569.19353,0.00251
4568.16327,0.00231
4567.13302,0.00224
4566.10276,0.00249
4565.07250,0.00298
4564.04224,0.00294
4563.01198,0.00254
4561.98173,0.00218
4560.95147,0.00153
4559.92121,0.00121
4558.89095,0.00144
4557.86070,0.00148
4556.83044,0.00121
4555.80018,0.00118
4554.76992,0.00179
4553.73966,0.00258
4552.70941,0.00257
4551.67915,0.00222
4550.64889,0.00271
4549.61863,0.00322
4548.58838,0.00278
4547.55812,0.00224
4546.52786,0.00221
4545.49760,0.00249
4544.46734,0.00286
4543.43709,0.00296
4542.40683,0.00290
4541.37657,0.00311
4540.34631,0.00352
4539.31605,0.00391
4538.28580,0.00397
4537.25554,0.00350
4536.22528,0.00280
4535.19502,0.00228
4534.16477,0.00211
4533.13451,0.00210
4532.10425,0.00251
4531.07399,0.00298
4530.04373,0.00227
4529.01348,0.00126
4527.98322,0.00151
4526.95296,0.00251
4525.92270,0.00332
4524.89244,0.00386
4523.86219,0.00362
4522.83193,0.00267
4521.80167,0.00221
4520.77141,0.00236
4519.74116,0.00269
4518.71090,0.00278
4517.68064,0.00246
4516.65038,0.00233
4515.62012,0.00246
4514.58987,0.00274
4513.55961,0.00307
4512.52935,0.00317
4511.49909,0.00305
4510.46883,0.00284
4509.43858,0.00285
4508.40832,0.00283
4507.37806,0.00260
4506.34780,0.00245
4505.31755,0.00241
4504.28729,0.00239
4503.25703,0.00191
4502.22677,0.00118
4501.19651,0.00106
4500.16626,0.00122
4499.13600,0.00105
4498.10574,0.00073
4497.07548,0.00107
4496.04523,0.00216
4495.01497,0.00285
4493.98471,0.00269
4492.95445,0.00253
4491.92419,0.00275
4490.89394,0.00288
4489.86368,0.00257
4488.83342,0.00236
4487.80316,0.00265
4486.77290,0.00270
4485.74265,0.00198
4484.71239,0.00142
4483.68213,0.00166
4482.65187,0.00251
4481.62162,0.00338
4480.59136,0.00329
4479.56110,0.00257
4478.53084,0.00238
4477.50058,0.00272
4476.47033,0.00292
4475.44007,0.00269
4474.40981,0.00217
4473.37955,0.00171
4472.34929,0.00172
4471.31904,0.00234
4470.28878,0.00311
4469.25852,0.00309
4468.22826,0.00244
4467.19801,0.00223
4466.16775,0.00258
4465.13749,0.00278
4464.10723,0.00275
4463.07697,0.00285
4462.04672,0.00284
4461.01646,0.00266
4459.98620,0.00274
4458.95594,0.00274
4457.92568,0.00221
4456.89543,0.00145
4455.86517,0.00112
4454.83491,0.00170
4453.80465,0.00233
4452.77440,0.00230
4451.74414,0.00218
4450.71388,0.00261
4449.68362,0.00307
4448.65336,0.00269
4447.62311,0.00201
4446.59285,0.00182
4445.56259,0.00208
4444.53233,0.00263
4443.50208,0.00277
4442.47182,0.00215
4441.44156,0.00187
4440.41130,0.00228
4439.38104,0.00263
4438.35079,0.00283
4437.32053,0.00318
4436.29027,0.00372
4435.26001,0.00387
4434.22975,0.00300
4433.19950,0.00183
4432.16924,0.00167
4431.13898,0.00232
4430.10872,0.00281
4429.07847,0.00286
4428.04821,0.00275
4427.01795,0.00258
4425.98769,0.00237
4424.95743,0.00248
4423.92718,0.00265
4422.89692,0.00238
4421.86666,0.00211
4420.83640,0.00217
4419.80614,0.00217
4418.77589,0.00219
4417.74563,0.00255
4416.71537,0.00276
4415.68511,0.00265
4414.65486,0.00265
4413.62460,0.00265
4412.59434,0.00236
4411.56408,0.00193
4410.53382,0.00165
4409.50357,0.00182
4408.47331,0.00248
4407.44305,0.00297
4406.41279,0.00246
4405.38253,0.00151
4404.35228,0.00117
4403.32202,0.00138
4402.29176,0.00179
4401.26150,0.00222
4400.23125,0.00258
4399.20099,0.00265
4398.17073,0.00233
4397.14047,0.00219
4396.11021,0.00227
4395.07996,0.00203
4394.04970,0.00203
4393.01944,0.00241
4391.98918,0.00232
4390.95893,0.00176
4389.92867,0.00133
4388.89841,0.00104
4387.86815,0.00098
4386.83789,0.00126
4385.80764,0.00154
4384.77738,0.00211
4383.74712,0.00278
4382.71686,0.00255
4381.68660,0.00187
4380.65635,0.00183
4379.62609,0.00236
4378.59583,0.00269
4377.56557,0.00282
4376.53532,0.00319
4375.50506,0.00357
4374.47480,0.00322
4373.44454,0.00236
4372.41428,0.00180
4371.38403,0.00178
4370.35377,0.00209
4369.32351,0.00212
4368.29325,0.00206
4367.26299,0.00240
4366.23274,0.00281
4365.20248,0.00280
4364.17222,0.00247
4363.14196,0.00248
4362.11171,0.00281
4361.08145,0.00296
4360.05119,0.00296
4359.02093,0.00320
4357.99067,0.00385
4356.96042,0.00436
4355.93016,0.00409
4354.89990,0.00315
4353.86964,0.00231
4352.83939,0.00195
4351.80913,0.00209
4350.77887,0.00260
4349.74861,0.00303
4348.71835,0.00286
4347.68810,0.00216
4346.65784,0.00167
4345.62758,0.00168
4344.59732,0.00194
4343.56706,0.00243
4342.53681,0.00314
4341.50655,0.00357
4340.47629,0.00323
4339.44603,0.00243
4338.41578,0.00187
4337.38552,0.00186
4336.35526,0.00208
4335.32500,0.00240
4334.29474,0.00258
4333.26449,0.00248
4332.23423,0.00258
4331.20397,0.00272
4330.17371,0.00236
4329.14345,0.00199
4328.11320,0.00210
4327.08294,0.00225
4326.05268,0.00210
4325.02242,0.00208
4323.99217,0.00244
4322.96191,0.00249
4321.93165,0.00237
4320.90139,0.00261
4319.87113,0.00292
4318.84088,0.00324
4317.81062,0.00311
4316.78036,0.00243
4315.75010,0.00220
4314.71984,0.00241
4313.68959,0.00240
4312.65933,0.00225
4311.62907,0.00234
4310.59881,0.00263
4309.56856,0.00275
4308.53830,0.00239
4307.50804,0.00193
4306.47778,0.00198
4305.44752,0.00229
4304.41727,0.00252
4303.38701,0.00273
4302.35675,0.00297
4301.32649,0.00316
4300.29624,0.00291
4299.26598,0.00225
4298.23572,0.00178
4297.20546,0.00192
4296.17520,0.00223
4295.14495,0.00258
4294.11469,0.00297
4293.08443,0.00269
4292.05417,0.00238
4291.02391,0.00279
4289.99366,0.00310
4288.96340,0.00306
4287.93314,0.00305
4286.90288,0.00311
4285.87263,0.00300
4284.84237,0.00277
4283.81211,0.00289
4282.78185,0.00312
4281.75159,0.00293
4280.72134,0.00231
4279.69108,0.00162
4278.66082,0.00142
4277.63056,0.00178
4276.60030,0.00193
4275.57005,0.00179
4274.53979,0.00186
4273.50953,0.00236
4272.47927,0.00304
4271.44902,0.00342
4270.41876,0.00322
4269.38850,0.00261
4268.35824,0.00209
4267.32798,0.00171
4266.29773,0.00140
4265.26747,0.00143
4264.23721,0.00168
4263.20695,0.00210
4262.17669,0.00246
4261.14644,0.00256
4260.11618,0.00279
4259.08592,0.00296
4258.05566,0.00256
4257.02541,0.00227
4255.99515,0.00284
4254.96489,0.00347
4253.93463,0.00334
4252.90437,0.00294
4251.87412,0.00294
4250.84386,0.00315
4249.81360,0.00286
4248.78334,0.00220
4247.75309,0.00217
4246.72283,0.00278
4245.69257,0.00309
4244.66231,0.00306
4243.63205,0.00325
4242.60180,0.00318
4241.57154,0.00276
4240.54128,0.00285
4239.51102,0.00319
4238.48076,0.00324
4237.45051,0.00345
4236.42025,0.00355
4235.38999,0.00301
4234.35973,0.00249
4233.32948,0.00259
4232.29922,0.00298
4231.26896,0.00315
4230.23870,0.00322
4229.20844,0.00345
4228.17819,0.00326
4227.14793,0.00287
4226.11767,0.00313
4225.08741,0.00353
4224.05715,0.00352
4223.02690,0.00338
4221.99664,0.00325
4220.96638,0.00306
4219.93612,0.00296
4218.90587,0.00319
4217.87561,0.00334
4216.84535,0.00313
4215.81509,0.00302
4214.78483,0.00286
4213.75458,0.00232
4212.72432,0.00202
4211.69406,0.00260
4210.66380,0.00326
4209.63354,0.00307
4208.60329,0.00270
4207.57303,0.00277
4206.54277,0.00270
4205.51251,0.00212
4204.48226,0.00151
4203.45200,0.00140
4202.42174,0.00211
4201.39148,0.00308
4200.36122,0.00332
4199.33097,0.00274
4198.30071,0.00204
4197.27045,0.00197
4196.24019,0.00237
4195.20994,0.00237
4194.17968,0.00209
4193.14942,0.00210
4192.11916,0.00228
4191.08890,0.00248
4190.05865,0.00275
4189.02839,0.00301
4187.99813,0.00307
4186.96787,0.00278
4185.93761,0.00267
4184.90736,0.00317
4183.87710,0.00387
4182.84684,0.00406
4181.81658,0.00362
4180.78633,0.00302
4179.75607,0.00257
4178.72581,0.00258
4177.69555,0.00308
4176.66529,0.00365
4175.63504,0.00370
4174.60478,0.00317
4173.57452,0.00291
4172.54426,0.00320
4171.51400,0.00363
4170.48375,0.00349
4169.45349,0.00291
4168.42323,0.00269
4167.39297,0.00247
4166.36272,0.00221
4165.33246,0.00252
4164.30220,0.00309
4163.27194,0.00366
4162.24168,0.00407
4161.21143,0.00383
4160.18117,0.00313
4159.15091,0.00263
4158.12065,0.00262
4157.09039,0.00314
4156.06014,0.00384
4155.02988,0.00391
4153.99962,0.00356
4152.96936,0.00342
4151.93911,0.00336
4150.90885,0.00347
4149.87859,0.00366
4148.84833,0.00346
4147.81807,0.00303
4146.78782,0.00290
4145.75756,0.00301
4144.72730,0.00294
4143.69704,0.00253
4142.66679,0.00232
4141.63653,0.00272
4140.60627,0.00307
4139.57601,0.00294
4138.54575,0.00294
4137.51550,0.00337
4136.48524,0.00357
4135.45498,0.00305
4134.42472,0.00248
4133.39446,0.00274
4132.36421,0.00333
4131.33395,0.00354
4130.30369,0.00377
4129.27343,0.00421
4128.24318,0.00406
4127.21292,0.00352
4126.18266,0.00338
4125.15240,0.00353
4124.12214,0.00356
4123.09189,0.00335
4122.06163,0.00305
4121.03137,0.00309
4120.00111,0.00340
4118.97085,0.00352
4117.94060,0.00335
4116.91034,0.00321
4115.88008,0.00331
4114.84982,0.00331
4113.81957,0.00322
4112.78931,0.00358
4111.75905,0.00406
4110.72879,0.00425
4109.69853,0.00420
4108.66828,0.00407
4107.63802,0.00414
4106.60776,0.00438
4105.57750,0.00437
4104.54724,0.00396
4103.51699,0.00335
4102.48673,0.00285
4101.45647,0.00302
4100.42621,0.00377
4099.39596,0.00418
4098.36570,0.00390
4097.33544,0.00354
4096.30518,0.00371
4095.27492,0.00389
4094.24467,0.00361
4093.21441,0.00347
4092.18415,0.00354
4091.15389,0.00336
4090.12364,0.00316
4089.09338,0.00316
4088.06312,0.00295
4087.03286,0.00263
4086.00260,0.00279
4084.97235,0.00344
4083.94209,0.00386
4082.91183,0.00370
4081.88157,0.00340
4080.85131,0.00329
4079.82106,0.00350
4078.79080,0.00410
4077.76054,0.00454
4076.73028,0.00429
4075.70003,0.00383
4074.66977,0.00378
4073.63951,0.00400
4072.60925,0.00435
4071.57899,0.00453
4070.54874,0.00411
4069.51848,0.00371
4068.48822,0.00381
4067.45796,0.00388
4066.42770,0.00367
4065.39745,0.00352
4064.36719,0.00371
4063.33693,0.00409
4062.30667,0.00394
4061.27642,0.00332
4060.24616,0.00293
4059.21590,0.00287
4058.18564,0.00307
4057.15538,0.00356
4056.12513,0.00417
4055.09487,0.00451
4054.06461,0.00460
4053.03435,0.00452
4052.00409,0.00433
4050.97384,0.00450
4049.94358,0.00472
4048.91332,0.00444
4047.88306,0.00377
4046.85281,0.00326
4045.82255,0.00332
4044.79229,0.00375
4043.76203,0.00381
4042.73177,0.00335
4041.70152,0.00294
4040.67126,0.00298
4039.64100,0.00361
4038.61074,0.00439
4037.58049,0.00443
4036.55023,0.00378
4035.51997,0.00336
4034.48971,0.00369
4033.45945,0.00438
4032.42920,0.00455
4031.39894,0.00408
4030.36868,0.00372
4029.33842,0.00385
4028.30816,0.00371
4027.27791,0.00324
4026.24765,0.00347
4025.21739,0.00402
4024.18713,0.00389
4023.15688,0.00338
4022.12662,0.00318
4021.09636,0.00310
4020.06610,0.00315
4019.03584,0.00351
4018.00559,0.00385
4016.97533,0.00397
4015.94507,0.00416
4014.91481,0.00443
4013.88455,0.00439
4012.85430,0.00422
4011.82404,0.00414
4010.79378,0.00411
4009.76352,0.00411
4008.73327,0.00392
4007.70301,0.00349
4006.67275,0.00330
4005.64249,0.00341
4004.61223,0.00358
4003.58198,0.00355
4002.55172,0.00345
4001.52146,0.00388
4000.49120,0.00451
3999.46095,0.00479
3998.43069,0.00467
3997.40043,0.00439
3996.37017,0.00439
3995.33991,0.00451
3994.30966,0.00419
3993.27940,0.00375
3992.24914,0.00369
3991.21888,0.00387
3990.18862,0.00410
3989.15837,0.00403
3988.12811,0.00369
3987.09785,0.00345
3986.06759,0.00340
3985.03734,0.00360
3984.00708,0.00393
3982.97682,0.00389
3981.94656,0.00342
3980.91630,0.00314
3979.88605,0.00341
3978.85579,0.00393
3977.82553,0.00436
3976.79527,0.00458
3975.76501,0.00449
3974.73476,0.00429
3973.70450,0.00406
3972.67424,0.00361
3971.64398,0.00332
3970.61373,0.00362
3969.58347,0.00392
3968.55321,0.00400
3967.52295,0.00443
3966.49269,0.00487
3965.46244,0.00467
3964.43218,0.00437
3963.40192,0.00446
3962.37166,0.00444
3961.34140,0.00434
3960.31115,0.00425
3959.28089,0.00387
3958.25063,0.00366
3957.22037,0.00389
3956.19012,0.00405
3955.15986,0.00401
3954.12960,0.00415
3953.09934,0.00441
3952.06908,0.00432
3951.03883,0.00395
3950.00857,0.00372
3948.97831,0.00372
3947.94805,0.00371
3946.91780,0.00381
3945.88754,0.00408
3944.85728,0.00425
3943.82702,0.00425
3942.79676,0.00410
3941.76651,0.00400
3940.73625,0.00395
3939.70599,0.00380
3938.67573,0.00374
3937.64547,0.00375
3936.61522,0.00365
3935.58496,0.00358
3934.55470,0.00368
3933.52444,0.00366
3932.49419,0.00385
3931.46393,0.00473
3930.43367,0.00524
3929.40341,0.00477
3928.37315,0.00422
3927.34290,0.00398
3926.31264,0.00385
3925.28238,0.00400
3924.25212,0.00432
3923.22186,0.00426
3922.19161,0.00378
3921.16135,0.00366
3920.13109,0.00402
3919.10083,0.00409
3918.07058,0.00385
3917.04032,0.00362
3916.01006,0.00366
3914.97980,0.00399
3913.94954,0.00418
3912.91929,0.00420
3911.88903,0.00419
3910.85877,0.00401
3909.82851,0.00374
3908.79825,0.00369
3907.76800,0.00383
3906.73774,0.00391
3905.70748,0.00376
3904.67722,0.00338
3903.64697,0.00349
3902.61671,0.00416
3901.58645,0.00451
3900.55619,0.00462
3899.52593,0.00509
3898.49568,0.00522
3897.46542,0.00436
3896.43516,0.00378
3895.40490,0.00408
3894.37465,0.00416
3893.34439,0.00347
3892.31413,0.00270
3891.28387,0.00262
3890.25361,0.00327
3889.22336,0.00367
3888.19310,0.00364
3887.16284,0.00386
3886.13258,0.00439
3885.10232,0.00481
3884.07207,0.00476
3883.04181,0.00433
3882.01155,0.00409
3880.98129,0.00413
3879.95104,0.00400
3878.92078,0.00374
3877.89052,0.00373
3876.86026,0.00406
3875.83000,0.00442
3874.79975,0.00422
3873.76949,0.00375
3872.73923,0.00391
3871.70897,0.00441
3870.67871,0.00463
3869.64846,0.00420
3868.61820,0.00409
3867.58794,0.00460
3866.55768,0.00464
3865.52743,0.00417
3864.49717,0.00418
3863.46691,0.00447
3862.43665,0.00435
3861.40639,0.00405
3860.37614,0.00378
3859.34588,0.00362
3858.31562,0.00375
3857.28536,0.00398
3856.25510,0.00403
3855.22485,0.00412
3854.19459,0.00441
3853.16433,0.00456
3852.13407,0.00462
3851.10382,0.00458
3850.07356,0.00410
3849.04330,0.00363
3848.01304,0.00378
3846.98278,0.00420
3845.95253,0.00444
3844.92227,0.00452
3843.89201,0.00458
3842.86175,0.00464
3841.83150,0.00470
3840.80124,0.00474
3839.77098,0.00483
3838.74072,0.00488
3837.71046,0.00451
3836.68021,0.00412
3835.64995,0.00419
3834.61969,0.00443
3833.58943,0.00427
3832.55917,0.00355
3831.52892,0.00313
3830.49866,0.00356
3829.46840,0.00416
3828.43814,0.00460
3827.40789,0.00502
3826.37763,0.00540
3825.34737,0.00563
3824.31711,0.00539
3823.28685,0.00480
3822.25660,0.00473
3821.22634,0.00563
3820.19608,0.00598
3819.16582,0.00525
3818.13556,0.00478
3817.10531,0.00483
3816.07505,0.00509
3815.04479,0.00522
3814.01453,0.00494
3812.98428,0.00459
3811.95402,0.00466
3810.92376,0.00486
3809.89350,0.00501
3808.86324,0.00537
3807.83299,0.00547
3806.80273,0.00509
3805.77247,0.00493
3804.74221,0.00505
3803.71195,0.00511
3802.68170,0.00519
3801.65144,0.00527
3800.62118,0.00491
3799.59092,0.00488
3798.56067,0.00534
3797.53041,0.00559
3796.50015,0.00547
3795.46989,0.00536
3794.43963,0.00531
3793.40938,0.00504
3792.37912,0.00464
3791.34886,0.00464
3790.31860,0.00498
3789.28835,0.00507
3788.25809,0.00483
3787.22783,0.00483
3786.19757,0.00522
3785.16731,0.00538
3784.13706,0.00519
3783.10680,0.00515
3782.07654,0.00533
3781.04628,0.00554
3780.01602,0.00557
3778.98577,0.00540
3777.95551,0.00550
3776.92525,0.00559
3775.89499,0.00524
3774.86474,0.00490
3773.83448,0.00486
3772.80422,0.00499
3771.77396,0.00510
3770.74370,0.00507
3769.71345,0.00549
3768.68319,0.00638
3767.65293,0.00672
3766.62267,0.00655
3765.59241,0.00614
3764.56216,0.00553
3763.53190,0.00534
3762.50164,0.00591
3761.47138,0.00676
3760.44113,0.00710
3759.41087,0.00691
3758.38061,0.00672
3757.35035,0.00632
3756.32009,0.00577
3755.28984,0.00574
3754.25958,0.00600
3753.22932,0.00597
3752.19906,0.00589
3751.16880,0.00638
3750.13855,0.00707
3749.10829,0.00745
3748.07803,0.00716
3747.04777,0.00643
3746.01752,0.00610
3744.98726,0.00668
3743.95700,0.00714
3742.92674,0.00684
3741.89648,0.00686
3740.86623,0.00728
3739.83597,0.00763
3738.80571,0.00771
3737.77545,0.00747
3736.74520,0.00684
3735.71494,0.00646
3734.68468,0.00669
3733.65442,0.00701
3732.62416,0.00700
3731.59391,0.00679
3730.56365,0.00690
3729.53339,0.00723
3728.50313,0.00786
3727.47287,0.00857
3726.44262,0.00866
3725.41236,0.00856
3724.38210,0.00880
3723.35184,0.00867
3722.32159,0.00841
3721.29133,0.00870
3720.26107,0.00904
3719.23081,0.00922
3718.20055,0.00921
3717.17030,0.00918
3716.14004,0.00950
3715.10978,0.00973
3714.07952,0.00995
3713.04926,0.01060
3712.01901,0.01099
3710.98875,0.01081
3709.95849,0.01082
3708.92823,0.01098
3707.89798,0.01100
3706.86772,0.01102
3705.83746,0.01104
3704.80720,0.01097
3703.77694,0.01111
3702.74669,0.01170
3701.71643,0.01245
3700.68617,0.01271
3699.65591,0.01248
3698.62565,0.01239
3697.59540,0.01289
3696.56514,0.01358
3695.53488,0.01386
3694.50462,0.01385
3693.47437,0.01403
3692.44411,0.01463
3691.41385,0.01543
3690.38359,0.01620
3689.35333,0.01687
3688.32308,0.01734
3687.29282,0.01757
3686.26256,0.01766
3685.23230,0.01783
3684.20205,0.01816
3683.17179,0.01828
3682.14153,0.01850
3681.11127,0.01952
3680.08101,0.02079
3679.05076,0.02134
3678.02050,0.02170
3676.99024,0.02242
3675.95998,0.02304
3674.92972,0.02309
3673.89947,0.02350
3672.86921,0.02448
3671.83895,0.02527
3670.80869,0.02626
3669.77844,0.02799
3668.74818,0.02943
3667.71792,0.03000
3666.68766,0.03024
3665.65740,0.03083
3664.62715,0.03170
3663.59689,0.03258
3662.56663,0.03357
3661.53637,0.03443
3660.50611,0.03504
3659.47586,0.03580
3658.44560,0.03698
3657.41534,0.03848
3656.38508,0.03956
3655.35483,0.03965
3654.32457,0.03975
3653.29431,0.04081
3652.26405,0.04257
3651.23379,0.04407
3650.20354,0.04504
3649.17328,0.04572
3648.14302,0.04620
3647.11276,0.04684
3646.08250,0.04778
3645.05225,0.04855
3644.02199,0.04913
3642.99173,0.04985
3641.96147,0.05074
3640.93122,0.05182
3639.90096,0.05289
3638.87070,0.05375
3637.84044,0.05455
3636.81018,0.05543
3635.77993,0.05633
3634.74967,0.05731
3633.71941,0.05834
3632.68915,0.05927
3631.65890,0.06020
3630.62864,0.06106
3629.59838,0.06167
3628.56812,0.06256
3627.53786,0.06403
3626.50761,0.06515
3625.47735,0.06543
3624.44709,0.06579
3623.41683,0.06712
3622.38657,0.06851
3621.35632,0.06933
3620.32606,0.07012
3619.29580,0.07040
3618.26554,0.07024
3617.23529,0.07099
3616.20503,0.07203
3615.17477,0.07258
3614.14451,0.07299
3613.11425,0.07366
3612.08400,0.07477
3611.05374,0.07592
3610.02348,0.07700
3608.99322,0.07812
3607.96296,0.07864
3606.93271,0.07901
3605.90245,0.08008
3604.87219,0.08137
3603.84193,0.08254
3602.81168,0.08357
3601.78142,0.08412
3600.75116,0.08416
3599.72090,0.08479
3598.69064,0.08614
3597.66039,0.08710
3596.63013,0.08767
3595.59987,0.08829
3594.56961,0.08892
3593.53936,0.08983
3592.50910,0.09121
3591.47884,0.09263
3590.44858,0.09371
3589.41832,0.09444
3588.38807,0.09475
3587.35781,0.09473
3586.32755,0.09528
3585.29729,0.09675
3584.26703,0.09851
3583.23678,0.10014
3582.20652,0.10112
3581.17626,0.10132
3580.14600,0.10157
3579.11575,0.10228
3578.08549,0.10306
3577.05523,0.10385
3576.02497,0.10484
3574.99471,0.10572
3573.96446,0.10621
3572.93420,0.10704
3571.90394,0.10877
3570.87368,0.11075
3569.84342,0.11234
3568.81317,0.11326
3567.78291,0.11329
3566.75265,0.11353
3565.72239,0.11474
3564.69214,0.11589
3563.66188,0.11705
3562.63162,0.11846
3561.60136,0.11976
3560.57110,0.12099
3559.54085,0.12205
3558.51059,0.12288
3557.48033,0.12393
3556.45007,0.12520
3555.41981,0.12632
3554.38956,0.12730
3553.35930,0.12811
3552.32904,0.12874
3551.29878,0.12926
3550.26853,0.12967
3549.23827,0.13034
3548.20801,0.13135
3547.17775,0.13261
3546.14749,0.13417
3545.11724,0.13570
3544.08698,0.13708
3543.05672,0.13842
3542.02646,0.13969
3540.99621,0.14072
3539.96595,0.14168
3538.93569,0.14282
3537.90543,0.14378
3536.87517,0.14470
3535.84492,0.14582
3534.81466,0.14658
3533.78440,0.14742
3532.75414,0.14919
3531.72388,0.15123
3530.69363,0.15233
3529.66337,0.15274
3528.63311,0.15360
3527.60285,0.15517
3526.57260,0.15666
3525.54234,0.15766
3524.51208,0.15858
3523.48182,0.15980
3522.45156,0.16099
3521.42131,0.16198
3520.39105,0.16279
3519.36079,0.16367
3518.33053,0.16511
3517.30027,0.16678
3516.27002,0.16793
3515.23976,0.16854
3514.20950,0.16942
3513.17924,0.17083
3512.14899,0.17228
3511.11873,0.17333
3510.08847,0.17428
3509.05821,0.17560
3508.02795,0.17685
3506.99770,0.17797
3505.96744,0.17908
3504.93718,0.18003
3503.90692,0.18099
3502.87666,0.18205
3501.84641,0.18309
3500.81615,0.18444
3499.78589,0.18609
3498.75563,0.18718
3497.72538,0.18796
3496.69512,0.18949
3495.66486,0.19136
3494.63460,0.19248
3493.60434,0.19300
3492.57409,0.19381
3491.54383,0.19501
3490.51357,0.19601
3489.48331,0.19698
3488.45306,0.19848
3487.42280,0.19997
3486.39254,0.20090
3485.36228,0.20201
3484.33202,0.20399
3483.30177,0.20606
3482.27151,0.20718
3481.24125,0.20756
3480.21099,0.20780
3479.18073,0.20833
3478.15048,0.20954
3477.12022,0.21086
3476.08996,0.21216
3475.05970,0.21407
3474.02945,0.21569
3472.99919,0.21657
3471.96893,0.21758
3470.93867,0.21866
3469.90841,0.21924
3468.87816,0.21980
3467.84790,0.22096
3466.81764,0.22263
3465.78738,0.22436
3464.75712,0.22586
3463.72687,0.22706
3462.69661,0.22827
3461.66635,0.22972
3460.63609,0.23076
3459.60584,0.23146
3458.57558,0.23298
3457.54532,0.23528
3456.51506,0.23711
3455.48480,0.23782
3454.45455,0.23835
3453.42429,0.23970
3452.39403,0.24150
3451.36377,0.24329
3450.33351,0.24475
3449.30326,0.24563
3448.27300,0.24628
3447.24274,0.24718
3446.21248,0.24863
3445.18223,0.25017
3444.15197,0.25108
3443.12171,0.25155
3442.09145,0.25252
3441.06119,0.25396
3440.03094,0.25517
3439.00068,0.25648
3437.97042,0.25783
3436.94016,0.25884
3435.90991,0.25984
3434.87965,0.26083
3433.84939,0.26193
3432.81913,0.26341
3431.78887,0.26491
3430.75862,0.26627
3429.72836,0.26787
3428.69810,0.26958
3427.66784,0.27087
3426.63758,0.27176
3425.60733,0.27304
3424.57707,0.27518
3423.54681,0.27675
3422.51655,0.27701
3421.48630,0.27728
3420.45604,0.27816
3419.42578,0.27930
3418.39552,0.28062
3417.36526,0.28213
3416.33501,0.28338
3415.30475,0.28454
3414.27449,0.28574
3413.24423,0.28688
3412.21397,0.28853
3411.18372,0.28985
3410.15346,0.29018
3409.12320,0.29070
3408.09294,0.29164
3407.06269,0.29256
3406.03243,0.29361
3405.00217,0.29497
3403.97191,0.29661
3402.94165,0.29782
3401.91140,0.29811
3400.88114,0.29821
3399.85088,0.29879
3398.82062,0.30010
3397.79036,0.30196
3396.76011,0.30339
3395.72985,0.30399
3394.69959,0.30433
3393.66933,0.30507
3392.63908,0.30601
3391.60882,0.30678
3390.57856,0.30782
3389.54830,0.30892
3388.51804,0.30995
3387.48779,0.31140
3386.45753,0.31281
3385.42727,0.31325
3384.39701,0.31297
3383.36676,0.31332
3382.33650,0.31473
3381.30624,0.31580
3380.27598,0.31597
3379.24572,0.31666
3378.21547,0.31806
3377.18521,0.31889
3376.15495,0.31934
3375.12469,0.32013
3374.09443,0.32083
3373.06418,0.32156
3372.03392,0.32211
3371.00366,0.32190
3369.97340,0.32175
3368.94315,0.32211
3367.91289,0.32238
3366.88263,0.32242
3365.85237,0.32269
3364.82211,0.32357
3363.79186,0.32464
3362.76160,0.32552
3361.73134,0.32650
3360.70108,0.32763
3359.67082,0.32843
3358.64057,0.32851
3357.61031,0.32837
3356.58005,0.32838
3355.54979,0.32845
3354.51954,0.32874
3353.48928,0.32884
3352.45902,0.32883
3351.42876,0.32931
3350.39850,0.33005
3349.36825,0.33070
3348.33799,0.33112
3347.30773,0.33153
3346.27747,0.33204
3345.24721,0.33212
3344.21696,0.33187
3343.18670,0.33197
3342.15644,0.33215
3341.12618,0.33208
3340.09593,0.33201
3339.06567,0.33175
3338.03541,0.33155
3337.00515,0.33211
3335.97489,0.33283
3334.94464,0.33322
3333.91438,0.33384
3332.88412,0.33471
3331.85386,0.33500
3330.82361,0.33441
3329.79335,0.33418
3328.76309,0.33444
3327.73283,0.33419
3326.70257,0.33357
3325.67232,0.33337
3324.64206,0.33333
3323.61180,0.33297
3322.58154,0.33291
3321.55128,0.33353
3320.52103,0.33405
3319.49077,0.33411
3318.46051,0.33425
3317.43025,0.33464
3316.40000,0.33491
3315.36974,0.33494
3314.33948,0.33538
3313.30922,0.33643
3312.27896,0.33696
3311.24871,0.33666
3310.21845,0.33626
3309.18819,0.33609
3308.15793,0.33591
3307.12767,0.33539
3306.09742,0.33486
3305.06716,0.33500
3304.03690,0.33567
3303.00664,0.33589
3301.97639,0.33534
3300.94613,0.33495
3299.91587,0.33537
3298.88561,0.33616
3297.85535,0.33713
3296.82510,0.33782
3295.79484,0.33758
3294.76458,0.33693
3293.73432,0.33675
3292.70406,0.33697
3291.67381,0.33713
3290.64355,0.33712
3289.61329,0.33736
3288.58303,0.33790
3287.55278,0.33785
3286.52252,0.33745
3285.49226,0.33751
3284.46200,0.33777
3283.43174,0.33760
3282.40149,0.33704
3281.37123,0.33701
3280.34097,0.33741
3279.31071,0.33735
3278.28046,0.33712
3277.25020,0.33744
3276.21994,0.33821
3275.18968,0.33910
3274.15942,0.33954
3273.12917,0.33885
3272.09891,0.33768
3271.06865,0.33747
3270.03839,0.33817
3269.00813,0.33870
3267.97788,0.33863
3266.94762,0.33804
3265.91736,0.33768
3264.88710,0.33787
3263.85685,0.33780
3262.82659,0.33751
3261.79633,0.33743
3260.76607,0.33765
3259.73581,0.33796
3258.70556,0.33778
3257.67530,0.33747
3256.64504,0.33746
3255.61478,0.33756
3254.58452,0.33789
3253.55427,0.33841
3252.52401,0.33822
3251.49375,0.33730
3250.46349,0.33706
3249.43324,0.33746
3248.40298,0.33700
3247.37272,0.33616
3246.34246,0.33654
3245.31220,0.33772
3244.28195,0.33814
3243.25169,0.33754
3242.22143,0.33668
3241.19117,0.33624
3240.16092,0.33624
3239.13066,0.33595
3238.10040,0.33504
3237.07014,0.33418
3236.03988,0.33383
3235.00963,0.33362
3233.97937,0.33329
3232.94911,0.33290
3231.91885,0.33237
3230.88859,0.33178
3229.85834,0.33137
3228.82808,0.33123
3227.79782,0.33157
3226.76756,0.33183
3225.73731,0.33115
3224.70705,0.32992
3223.67679,0.32903
3222.64653,0.32857
3221.61627,0.32822
3220.58602,0.32809
3219.55576,0.32806
3218.52550,0.32783
3217.49524,0.32737
3216.46498,0.32666
3215.43473,0.32562
3214.40447,0.32420
3213.37421,0.32306
3212.34395,0.32240
3211.31370,0.32184
3210.28344,0.32118
3209.25318,0.32039
3208.22292,0.31975
3207.19266,0.31938
3206.16241,0.31867
3205.13215,0.31758
3204.10189,0.31659
3203.07163,0.31535
3202.04137,0.31402
3201.01112,0.31331
3199.98086,0.31298
3198.95060,0.31248
3197.92034,0.31180
3196.89009,0.31113
3195.85983,0.31016
3194.82957,0.30869
3193.79931,0.30726
3192.76905,0.30607
3191.73880,0.30483
3190.70854,0.30398
3189.67828,0.30354
3188.64802,0.30265
3187.61777,0.30154
3186.58751,0.30075
3185.55725,0.30002
3184.52699,0.29956
3183.49673,0.29890
3182.46648,0.29710
3181.43622,0.29484
3180.40596,0.29311
3179.37570,0.29173
3178.34544,0.29057
3177.31519,0.29007
3176.28493,0.28964
3175.25467,0.28857
3174.22441,0.28728
3173.19416,0.28580
3172.16390,0.28420
3171.13364,0.28286
3170.10338,0.28170
3169.07312,0.28065
3168.04287,0.27970
3167.01261,0.27849
3165.98235,0.27719
3164.95209,0.27597
3163.92183,0.27450
3162.89158,0.27308
3161.86132,0.27170
3160.83106,0.27005
3159.80080,0.26864
3158.77055,0.26752
3157.74029,0.26636
3156.71003,0.26521
3155.67977,0.26401
3154.64951,0.26265
3153.61926,0.26114
3152.58900,0.25986
3151.55874,0.25896
3150.52848,0.25779
3149.49822,0.25641
3148.46797,0.25539
3147.43771,0.25420
3146.40745,0.25230
3145.37719,0.25031
3144.34694,0.24910
3143.31668,0.24851
3142.28642,0.24721
3141.25616,0.24499
3140.22590,0.24332
3139.19565,0.24245
3138.16539,0.24116
3137.13513,0.23915
3136.10487,0.23743
3135.07462,0.23647
3134.04436,0.23547
3133.01410,0.23417
3131.98384,0.23291
3130.95358,0.23154
3129.92333,0.23007
3128.89307,0.22895
3127.86281,0.22813
3126.83255,0.22711
3125.80229,0.22578
3124.77204,0.22424
3123.74178,0.22281
3122.71152,0.22168
3121.68126,0.22010
3120.65101,0.21792
3119.62075,0.21631
3118.59049,0.21549
3117.56023,0.21443
3116.52997,0.21294
3115.49972,0.21169
3114.46946,0.21084
3113.43920,0.20997
3112.40894,0.20889
3111.37868,0.20755
3110.34843,0.20588
3109.31817,0.20410
3108.28791,0.20244
3107.25765,0.20108
3106.22740,0.20019
3105.19714,0.19968
3104.16688,0.19885
3103.13662,0.19755
3102.10636,0.19641
3101.07611,0.19518
3100.04585,0.19342
3099.01559,0.19204
3097.98533,0.19130
3096.95507,0.19004
3095.92482,0.18835
3094.89456,0.18725
3093.86430,0.18672
3092.83404,0.18616
3091.80379,0.18480
3090.77353,0.18282
3089.74327,0.18137
3088.71301,0.18036
3087.68275,0.17892
3086.65250,0.17748
3085.62224,0.17674
3084.59198,0.17635
3083.56172,0.17548
3082.53147,0.17424
3081.50121,0.17299
3080.47095,0.17132
3079.44069,0.16965
3078.41043,0.16849
3077.38018,0.16747
3076.34992,0.16668
3075.31966,0.16616
3074.28940,0.16532
3073.25914,0.16402
3072.22889,0.16262
3071.19863,0.16143
3070.16837,0.16033
3069.13811,0.15917
3068.10786,0.15818
3067.07760,0.15734
3066.04734,0.15656
3065.01708,0.15585
3063.98682,0.15496
3062.95657,0.15363
3061.92631,0.15198
3060.89605,0.15078
3059.86579,0.15040
3058.83553,0.15008
3057.80528,0.14917
3056.77502,0.14800
3055.74476,0.14672
3054.71450,0.14541
3053.68425,0.14458
3052.65399,0.14407
3051.62373,0.14344
3050.59347,0.14281
3049.56321,0.14202
3048.53296,0.14059
3047.50270,0.13898
3046.47244,0.13802
3045.44218,0.13748
3044.41192,0.13678
3043.38167,0.13601
3042.35141,0.13559
3041.32115,0.13532
3040.29089,0.13465
3039.26064,0.13347
3038.23038,0.13214
3037.20012,0.13085
3036.16986,0.12972
3035.13960,0.12883
3034.10935,0.12812
3033.07909,0.12763
3032.04883,0.12738
3031.01857,0.12681
3029.98832,0.12555
3028.95806,0.12429
3027.92780,0.12365
3026.89754,0.12319
3025.86728,0.12254
3024.83703,0.12191
3023.80677,0.12093
3022.77651,0.11937
3021.74625,0.11803
3020.71599,0.11723
3019.68574,0.11667
3018.65548,0.11609
3017.62522,0.11521
3016.59496,0.11399
3015.56471,0.11280
3014.53445,0.11200
3013.50419,0.11156
3012.47393,0.11102
3011.44367,0.11018
3010.41342,0.10946
3009.38316,0.10903
3008.35290,0.10860
3007.32264,0.10809
3006.29238,0.10724
3005.26213,0.10597
3004.23187,0.10500
3003.20161,0.10463
3002.17135,0.10410
3001.14110,0.10310
3000.11084,0.10228
2999.08058,0.10180
2998.05032,0.10114
2997.02006,0.10043
2995.98981,0.09990
2994.95955,0.09924
2993.92929,0.09840
2992.89903,0.09764
2991.86877,0.09703
2990.83852,0.09621
2989.80826,0.09522
2988.77800,0.09481
2987.74774,0.09455
2986.71749,0.09369
2985.68723,0.09287
2984.65697,0.09246
2983.62671,0.09209
2982.59645,0.09153
2981.56620,0.09084
2980.53594,0.09023
2979.50568,0.08965
2978.47542,0.08914
2977.44517,0.08881
2976.41491,0.08848
2975.38465,0.08800
2974.35439,0.08739
2973.32413,0.08675
2972.29388,0.08614
2971.26362,0.08563
2970.23336,0.08509
2969.20310,0.08440
2968.17284,0.08393
2967.14259,0.08371
2966.11233,0.08349
2965.08207,0.08340
2964.05181,0.08332
2963.02156,0.08287
2961.99130,0.08198
2960.96104,0.08102
2959.93078,0.08031
2958.90052,0.07951
2957.87027,0.07857
2956.84001,0.07800
2955.80975,0.07772
2954.77949,0.07709
2953.74923,0.07615
2952.71898,0.07544
2951.68872,0.07497
2950.65846,0.07439
2949.62820,0.07378
2948.59795,0.07341
2947.56769,0.07319
2946.53743,0.07269
2945.50717,0.07182
2944.47691,0.07096
2943.44666,0.07030
2942.41640,0.06981
2941.38614,0.06929
2940.35588,0.06863
2939.32562,0.06824
2938.29537,0.06812
2937.26511,0.06761
2936.23485,0.06678
2935.20459,0.06640
2934.17434,0.06640
2933.14408,0.06595
2932.11382,0.06501
2931.08356,0.06427
2930.05330,0.06392
2929.02305,0.06368
2927.99279,0.06360
2926.96253,0.06358
2925.93227,0.06336
2924.90202,0.06264
2923.87176,0.06162
2922.84150,0.06102
2921.81124,0.06064
2920.78098,0.06005
2919.75073,0.05953
2918.72047,0.05930
2917.69021,0.05922
2916.65995,0.05896
2915.62969,0.05844
2914.59944,0.05783
2913.56918,0.05720
2912.53892,0.05650
2911.50866,0.05603
2910.47841,0.05586
2909.44815,0.05557
2908.41789,0.05510
2907.38763,0.05466
2906.35737,0.05441
2905.32712,0.05426
2904.29686,0.05388
2903.26660,0.05341
2902.23634,0.05299
2901.20608,0.05236
2900.17583,0.05160
2899.14557,0.05114
2898.11531,0.05106
2897.08505,0.05095
2896.05480,0.05057
2895.02454,0.05011
2893.99428,0.04973
2892.96402,0.04939
2891.93376,0.04912
2890.90351,0.04903
2889.87325,0.04877
2888.84299,0.04806
2887.81273,0.04738
2886.78247,0.04717
2885.75222,0.04713
2884.72196,0.04689
2883.69170,0.04660
2882.66144,0.04637
2881.63119,0.04621
2880.60093,0.04597
2879.57067,0.04556
2878.54041,0.04519
2877.51015,0.04475
2876.47990,0.04418
2875.44964,0.04375
2874.41938,0.04354
2873.38912,0.04345
2872.35887,0.04339
2871.32861,0.04309
2870.29835,0.04238
2869.26809,0.04169
2868.23783,0.04139
2867.20758,0.04107
2866.17732,0.04052
2865.14706,0.04034
2864.11680,0.04064
2863.08654,0.04066
2862.05629,0.04016
2861.02603,0.03968
2859.99577,0.03956
2858.96551,0.03960
2857.93526,0.03943
2856.90500,0.03912
2855.87474,0.03891
2854.84448,0.03857
2853.81422,0.03815
2852.78397,0.03778
2851.75371,0.03734
2850.72345,0.03715
2849.69319,0.03711
2848.66293,0.03659
2847.63268,0.03587
2846.60242,0.03564
2845.57216,0.03575
2844.54190,0.03572
2843.51165,0.03545
2842.48139,0.03510
2841.45113,0.03486
2840.42087,0.03485
2839.39061,0.03466
2838.36036,0.03426
2837.33010,0.03411
2836.29984,0.03404
2835.26958,0.03374
2834.23933,0.03336
2833.20907,0.03307
2832.17881,0.03287
2831.14855,0.03265
2830.11829,0.03242
2829.08804,0.03224
2828.05778,0.03219
2827.02752,0.03220
2825.99726,0.03215
2824.96700,0.03204
2823.93675,0.03182
2822.90649,0.03145
2821.87623,0.03093
2820.84597,0.03052
2819.81572,0.03033
2818.78546,0.03012
2817.75520,0.02986
2816.72494,0.02966
2815.69468,0.02956
2814.66443,0.02961
2813.63417,0.02952
2812.60391,0.02934
2811.57365,0.02926
2810.54339,0.02903
2809.51314,0.02853
2808.48288,0.02792
2807.45262,0.02762
2806.42236,0.02779
2805.39211,0.02782
2804.36185,0.02741
2803.33159,0.02709
2802.30133,0.02706
2801.27107,0.02698
2800.24082,0.02664
2799.21056,0.02619
2798.18030,0.02599
2797.15004,0.02619
2796.11978,0.02632
2795.08953,0.02607
2794.05927,0.02593
2793.02901,0.02604
2791.99875,0.02598
2790.96850,0.02583
2789.93824,0.02572
2788.90798,0.02544
2787.87772,0.02515
2786.84746,0.02499
2785.81721,0.02475
2784.78695,0.02446
2783.75669,0.02433
2782.72643,0.02434
2781.69618,0.02436
2780.66592,0.02408
2779.63566,0.02345
2778.60540,0.02316
2777.57514,0.02331
2776.54489,0.02335
2775.51463,0.02316
2774.48437,0.02308
2773.45411,0.02309
2772.42385,0.02296
2771.39360,0.02268
2770.36334,0.02234
2769.33308,0.02202
2768.30282,0.02189
2767.27257,0.02204
2766.24231,0.02227
2765.21205,0.02202
2764.18179,0.02141
2763.15153,0.02116
2762.12128,0.02120
2761.09102,0.02116
2760.06076,0.02102
2759.03050,0.02085
2758.00024,0.02096
2756.96999,0.02117
2755.93973,0.02093
2754.90947,0.02051
2753.87921,0.02046
2752.84896,0.02065
2751.81870,0.02086
2750.78844,0.02075
2749.75818,0.02024
2748.72792,0.01993
2747.69767,0.02003
2746.66741,0.02000
2745.63715,0.01956
2744.60689,0.01909
2743.57663,0.01902
2742.54638,0.01900
2741.51612,0.01879
2740.48586,0.01886
2739.45560,0.01918
2738.42535,0.01920
2737.39509,0.01898
2736.36483,0.01894
2735.33457,0.01903
2734.30431,0.01882
2733.27406,0.01839
2732.24380,0.01816
2731.21354,0.01807
2730.18328,0.01787
2729.15303,0.01758
2728.12277,0.01743
2727.09251,0.01758
2726.06225,0.01773
2725.03199,0.01767
2724.00174,0.01770
2722.97148,0.01783
2721.94122,0.01778
2720.91096,0.01755
2719.88070,0.01730
2718.85045,0.01708
2717.82019,0.01685
2716.78993,0.01668
2715.75967,0.01667
2714.72942,0.01663
2713.69916,0.01647
2712.66890,0.01628
2711.63864,0.01625
2710.60838,0.01649
2709.57813,0.01655
2708.54787,0.01635
2707.51761,0.01614
2706.48735,0.01586
2705.45709,0.01574
2704.42684,0.01581
2703.39658,0.01572
2702.36632,0.01560
2701.33606,0.01582
2700.30581,0.01604
2699.27555,0.01592
2698.24529,0.01562
2697.21503,0.01548
2696.18477,0.01547
2695.15452,0.01528
2694.12426,0.01508
2693.09400,0.01529
2692.06374,0.01561
2691.03348,0.01558
2690.00323,0.01523
2688.97297,0.01496
2687.94271,0.01504
2686.91245,0.01515
2685.88220,0.01489
2684.85194,0.01452
2683.82168,0.01448
2682.79142,0.01476
2681.76116,0.01475
2680.73091,0.01431
2679.70065,0.01419
2678.67039,0.01456
2677.64013,0.01461
2676.60988,0.01438
2675.57962,0.01430
2674.54936,0.01413
2673.51910,0.01391
2672.48884,0.01397
2671.45859,0.01411
2670.42833,0.01404
2669.39807,0.01395
2668.36781,0.01400
2667.33755,0.01406
2666.30730,0.01412
2665.27704,0.01420
2664.24678,0.01410
2663.21652,0.01381
2662.18627,0.01362
2661.15601,0.01372
2660.12575,0.01394
2659.09549,0.01398
2658.06523,0.01386
2657.03498,0.01369
2656.00472,0.01357
2654.97446,0.01348
2653.94420,0.01331
2652.91394,0.01308
2651.88369,0.01299
2650.85343,0.01310
2649.82317,0.01311
2648.79291,0.01282
2647.76266,0.01262
2646.73240,0.01276
2645.70214,0.01302
2644.67188,0.01325
2643.64162,0.01323
2642.61137,0.01288
2641.58111,0.01264
2640.55085,0.01275
2639.52059,0.01288
2638.49033,0.01277
2637.46008,0.01256
2636.42982,0.01247
2635.39956,0.01263
2634.36930,0.01291
2633.33905,0.01294
2632.30879,0.01273
2631.27853,0.01262
2630.24827,0.01263
2629.21801,0.01237
2628.18776,0.01194
2627.15750,0.01165
2626.12724,0.01143
2625.09698,0.01139
2624.06673,0.01146
2623.03647,0.01149
2622.00621,0.01158
2620.97595,0.01160
2619.94569,0.01181
2618.91544,0.01219
2617.88518,0.01208
2616.85492,0.01150
2615.82466,0.01132
2614.79440,0.01161
2613.76415,0.01171
2612.73389,0.01162
2611.70363,0.01165
2610.67337,0.01159
2609.64312,0.01149
2608.61286,0.01157
2607.58260,0.01162
2606.55234,0.01147
2605.52208,0.01147
2604.49183,0.01172
2603.46157,0.01157
2602.43131,0.01098
2601.40105,0.01079
2600.37079,0.01104
2599.34054,0.01118
2598.31028,0.01120
2597.28002,0.01109
2596.24976,0.01093
2595.21951,0.01097
2594.18925,0.01106
2593.15899,0.01100
2592.12873,0.01107
2591.09847,0.01138
2590.06822,0.01138
2589.03796,0.01121
2588.00770,0.01149
2586.97744,0.01176
2585.94718,0.01171
2584.91693,0.01167
2583.88667,0.01147
2582.85641,0.01098
2581.82615,0.01078
2580.79590,0.01083
2579.76564,0.01085
2578.73538,0.01114
2577.70512,0.01141
2576.67486,0.01127
2575.64461,0.01086
2574.61435,0.01052
2573.58409,0.01058
2572.55383,0.01066
2571.52358,0.01025
2570.49332,0.00999
2569.46306,0.01025
2568.43280,0.01058
2567.40254,0.01096
2566.37229,0.01114
2565.34203,0.01076
2564.31177,0.01031
2563.28151,0.01024
2562.25125,0.01040
2561.22100,0.01052
2560.19074,0.01080
2559.16048,0.01121
2558.13022,0.01135
2557.09997,0.01129
2556.06971,0.01127
2555.03945,0.01114
2554.00919,0.01068
2552.97893,0.01021
2551.94868,0.01010
2550.91842,0.01037
2549.88816,0.01085
2548.85790,0.01118
2547.82764,0.01126
2546.79739,0.01136
2545.76713,0.01163
2544.73687,0.01181
2543.70661,0.01153
2542.67636,0.01111
2541.64610,0.01117
2540.61584,0.01150
2539.58558,0.01124
2538.55532,0.01056
2537.52507,0.01055
2536.49481,0.01114
2535.46455,0.01143
2534.43429,0.01127
2533.40403,0.01117
2532.37378,0.01118
2531.34352,0.01114
2530.31326,0.01106
2529.28300,0.01084
2528.25275,0.01045
2527.22249,0.01042
2526.19223,0.01110
2525.16197,0.01180
2524.13171,0.01171
2523.10146,0.01115
2522.07120,0.01101
2521.04094,0.01122
2520.01068,0.01090
2518.98043,0.01032
2517.95017,0.01022
2516.91991,0.01043
2515.88965,0.01039
2514.85939,0.01006
2513.82914,0.01003
2512.79888,0.01035
2511.76862,0.01048
2510.73836,0.01051
2509.70810,0.01072
2508.67785,0.01088
2507.64759,0.01112
2506.61733,0.01180
2505.58707,0.01260
2504.55682,0.01266
2503.52656,0.01193
2502.49630,0.01133
2501.46604,0.01114
2500.43578,0.01077
2499.40553,0.01049
2498.37527,0.01085
2497.34501,0.01144
2496.31475,0.01155
2495.28449,0.01124
2494.25424,0.01134
2493.22398,0.01162
2492.19372,0.01156
2491.16346,0.01167
2490.13321,0.01192
2489.10295,0.01176
2488.07269,0.01130
2487.04243,0.01114
2486.01217,0.01135
2484.98192,0.01139
2483.95166,0.01134
2482.92140,0.01130
2481.89114,0.01123
2480.86088,0.01145
2479.83063,0.01165
2478.80037,0.01160
2477.77011,0.01163
2476.73985,0.01177
2475.70960,0.01195
2474.67934,0.01210
2473.64908,0.01210
2472.61882,0.01209
2471.58856,0.01220
2470.55831,0.01231
2469.52805,0.01230
2468.49779,0.01213
2467.46753,0.01190
2466.43728,0.01188
2465.40702,0.01212
2464.37676,0.01238
2463.34650,0.01243
2462.31624,0.01217
2461.28599,0.01188
2460.25573,0.01161
2459.22547,0.01134
2458.19521,0.01156
2457.16495,0.01196
2456.13470,0.01205
2455.10444,0.01231
2454.07418,0.01278
2453.04392,0.01283
2452.01367,0.01235
2450.98341,0.01197
2449.95315,0.01205
2448.92289,0.01222
2447.89263,0.01219
2446.86238,0.01200
2445.83212,0.01163
2444.80186,0.01164
2443.77160,0.01219
2442.74134,0.01245
2441.71109,0.01241
2440.68083,0.01253
2439.65057,0.01242
2438.62031,0.01200
2437.59006,0.01211
2436.55980,0.01260
2435.52954,0.01267
2434.49928,0.01264
2433.46902,0.01300
2432.43877,0.01337
2431.40851,0.01319
2430.37825,0.01278
2429.34799,0.01276
2428.31774,0.01298
2427.28748,0.01308
2426.25722,0.01318
2425.22696,0.01331
2424.19670,0.01322
2423.16645,0.01303
2422.13619,0.01296
2421.10593,0.01289
2420.07567,0.01275
2419.04541,0.01247
2418.01516,0.01220
2416.98490,0.01240
2415.95464,0.01293
2414.92438,0.01335
2413.89413,0.01355
2412.86387,0.01362
2411.83361,0.01374
2410.80335,0.01378
2409.77309,0.01363
2408.74284,0.01378
2407.71258,0.01423
2406.68232,0.01441
2405.65206,0.01407
2404.62180,0.01370
2403.59155,0.01390
2402.56129,0.01413
2401.53103,0.01384
2400.50077,0.01366
2399.47052,0.01404
2398.44026,0.01436
2397.41000,0.01439
2396.37974,0.01426
2395.34948,0.01411
2394.31923,0.01410
2393.28897,0.01400
2392.25871,0.01397
2391.22845,0.01421
2390.19819,0.01441
2389.16794,0.01450
2388.13768,0.01455
2387.10742,0.01448
2386.07716,0.01442
2385.04691,0.01424
2384.01665,0.01391
2382.98639,0.01402
2381.95613,0.01454
2380.92587,0.01480
2379.89562,0.01485
2378.86536,0.01517
2377.83510,0.01545
2376.80484,0.01562
2375.77459,0.01590
2374.74433,0.01609
2373.71407,0.01646
2372.68381,0.01732
2371.65355,0.01809
2370.62330,0.01844
2369.59304,0.01831
2368.56278,0.01744
2367.53252,0.01658
2366.50226,0.01671
2365.47201,0.01738
2364.44175,0.01751
2363.41149,0.01717
2362.38123,0.01694
2361.35098,0.01686
2360.32072,0.01693
2359.29046,0.01694
2358.26020,0.01665
2357.22994,0.01593
2356.19969,0.01552
2355.16943,0.01615
2354.13917,0.01662
2353.10891,0.01661
2352.07865,0.01726
2351.04840,0.01805
2350.01814,0.01806
2348.98788,0.01794
2347.95762,0.01825
2346.92737,0.01841
2345.89711,0.01827
2344.86685,0.01836
2343.83659,0.01834
2342.80633,0.01819
2341.77608,0.01827
2340.74582,0.01858
2339.71556,0.01897
2338.68530,0.01925
2337.65504,0.01917
2336.62479,0.01859
2335.59453,0.01782
2334.56427,0.01727
2333.53401,0.01739
2332.50376,0.01842
2331.47350,0.01931
2330.44324,0.01914
2329.41298,0.01879
2328.38272,0.01924
2327.35247,0.01966
2326.32221,0.01903
2325.29195,0.01799
2324.26169,0.01745
2323.23144,0.01715
2322.20118,0.01736
2321.17092,0.01842
2320.14066,0.01918
2319.11040,0.01872
2318.08015,0.01776
2317.04989,0.01759
2316.01963,0.01818
2314.98937,0.01871
2313.95911,0.01865
2312.92886,0.01837
2311.89860,0.01838
2310.86834,0.01839
2309.83808,0.01846
2308.80783,0.01888
2307.77757,0.01927
2306.74731,0.01919
2305.71705,0.01902
2304.68679,0.01922
2303.65654,0.01934
2302.62628,0.01900
2301.59602,0.01851
2300.56576,0.01830
2299.53550,0.01824
2298.50525,0.01829
2297.47499,0.01860
2296.44473,0.01885
2295.41447,0.01887
2294.38422,0.01900
2293.35396,0.01935
2292.32370,0.01955
2291.29344,0.01966
2290.26318,0.01994
2289.23293,0.01994
2288.20267,0.01974
2287.17241,0.02002
2286.14215,0.02037
2285.11189,0.02005
2284.08164,0.01939
2283.05138,0.01917
2282.02112,0.01934
2280.99086,0.01929
2279.96061,0.01904
2278.93035,0.01905
2277.90009,0.01967
2276.86983,0.02027
2275.83957,0.01997
2274.80932,0.01960
2273.77906,0.01990
2272.74880,0.02024
2271.71854,0.02056
2270.68829,0.02089
2269.65803,0.02064
2268.62777,0.02008
2267.59751,0.01960
2266.56725,0.01953
2265.53700,0.02007
2264.50674,0.02028
2263.47648,0.01980
2262.44622,0.01950
2261.41596,0.01996
2260.38571,0.02081
2259.35545,0.02106
2258.32519,0.02080
2257.29493,0.02105
2256.26468,0.02173
2255.23442,0.02196
2254.20416,0.02168
2253.17390,0.02162
2252.14364,0.02132
2251.11339,0.02050
2250.08313,0.02032
2249.05287,0.02094
2248.02261,0.02163
2246.99235,0.02190
2245.96210,0.02170
2244.93184,0.02153
2243.90158,0.02117
2242.87132,0.02075
2241.84107,0.02083
2240.81081,0.02065
2239.78055,0.02094
2238.75029,0.02247
2237.72003,0.02368
2236.68978,0.02325
2235.65952,0.02198
2234.62926,0.02268
2233.59900,0.02425
2232.56874,0.02372
2231.53849,0.02301
2230.50823,0.02282
2229.47797,0.02205
2228.44771,0.02160
2227.41746,0.02122
2226.38720,0.02057
2225.35694,0.02048
2224.32668,0.02125
2223.29642,0.02253
2222.26617,0.02363
2221.23591,0.02339
2220.20565,0.02186
2219.17539,0.02066
2218.14514,0.02019
2217.11488,0.02010
2216.08462,0.02074
2215.05436,0.02235
2214.02410,0.02405
2212.99385,0.02438
2211.96359,0.02305
2210.93333,0.02103
2209.90307,0.01950
2208.87281,0.01993
2207.84256,0.02159
2206.81230,0.02200
2205.78204,0.02187
2204.75178,0.02268
2203.72153,0.02349
2202.69127,0.02338
2201.66101,0.02278
2200.63075,0.02246
2199.60049,0.02300
2198.57024,0.02364
2197.53998,0.02329
2196.50972,0.02315
2195.47946,0.02342
2194.44920,0.02338
2193.41895,0.02345
2192.38869,0.02399
2191.35843,0.02507
2190.32817,0.02568
2189.29792,0.02557
2188.26766,0.02580
2187.23740,0.02600
2186.20714,0.02549
2185.17688,0.02466
2184.14663,0.02388
2183.11637,0.02285
2182.08611,0.02189
2181.05585,0.02234
2180.02559,0.02411
2178.99534,0.02579
2177.96508,0.02623
2176.93482,0.02583
2175.90456,0.02646
2174.87431,0.02702
2173.84405,0.02583
2172.81379,0.02506
2171.78353,0.02596
2170.75327,0.02742
2169.72302,0.02813
2168.69276,0.02712
2167.66250,0.02552
2166.63224,0.02477
2165.60199,0.02555
2164.57173,0.02741
2163.54147,0.02731
2162.51121,0.02461
2161.48095,0.02262
2160.45070,0.02298
2159.42044,0.02443
2158.39018,0.02576
2157.35992,0.02662
2156.32966,0.02628
2155.29941,0.02468
2154.26915,0.02387
2153.23889,0.02353
2152.20863,0.02263
2151.17838,0.02421
2150.14812,0.02790
2149.11786,0.02921
2148.08760,0.02841
2147.05734,0.02765
2146.02709,0.02634
2144.99683,0.02531
2143.96657,0.02546
2142.93631,0.02556
2141.90605,0.02532
2140.87580,0.02558
2139.84554,0.02638
2138.81528,0.02614
2137.78502,0.02516
2136.75477,0.02439
2135.72451,0.02340
2134.69425,0.02347
2133.66399,0.02487
2132.63373,0.02568
2131.60348,0.02556
2130.57322,0.02528
2129.54296,0.02513
2128.51270,0.02516
2127.48244,0.02512
2126.45219,0.02491
2125.42193,0.02493
2124.39167,0.02529
2123.36141,0.02534
2122.33116,0.02504
2121.30090,0.02499
2120.27064,0.02508
2119.24038,0.02494
2118.21012,0.02490
2117.17987,0.02539
2116.14961,0.02597
2115.11935,0.02639
2114.08909,0.02660
2113.05884,0.02633
2112.02858,0.02594
2110.99832,0.02549
2109.96806,0.02502
2108.93780,0.02508
2107.90755,0.02519
2106.87729,0.02534
2105.84703,0.02599
2104.81677,0.02586
2103.78651,0.02482
2102.75626,0.02485
2101.72600,0.02582
2100.69574,0.02563
2099.66548,0.02470
2098.63523,0.02416
2097.60497,0.02367
2096.57471,0.02353
2095.54445,0.02376
2094.51419,0.02419
2093.48394,0.02506
2092.45368,0.02577
2091.42342,0.02568
2090.39316,0.02472
2089.36290,0.02377
2088.33265,0.02378
2087.30239,0.02402
2086.27213,0.02354
2085.24187,0.02298
2084.21162,0.02300
2083.18136,0.02303
2082.15110,0.02303
2081.12084,0.02364
2080.09058,0.02404
2079.06033,0.02347
2078.03007,0.02286
2076.99981,0.02299
2075.96955,0.02374
2074.93930,0.02407
2073.90904,0.02351
2072.87878,0.02313
2071.84852,0.02270
2070.81826,0.02233
2069.78801,0.02290
2068.75775,0.02265
2067.72749,0.02088
2066.69723,0.01963
2065.66697,0.02015
2064.63672,0.02115
2063.60646,0.02093
2062.57620,0.02036
2061.54594,0.02074
2060.51569,0.02169
2059.48543,0.02182
2058.45517,0.02089
2057.42491,0.02071
2056.39465,0.02185
2055.36440,0.02292
2054.33414,0.02349
2053.30388,0.02359
2052.27362,0.02277
2051.24336,0.02167
2050.21311,0.02113
2049.18285,0.02103
2048.15259,0.02123
2047.12233,0.02145
2046.09208,0.02140
2045.06182,0.02180
2044.03156,0.02332
2043.00130,0.02446
2041.97104,0.02357
2040.94079,0.02212
2039.91053,0.02115
2038.88027,0.02007
2037.85001,0.01939
2036.81975,0.01940
2035.78950,0.02043
2034.75924,0.02194
2033.72898,0.02230
2032.69872,0.02196
2031.66847,0.02173
2030.63821,0.02145
2029.60795,0.02128
2028.57769,0.02126
2027.54743,0.02149
2026.51718,0.02226
2025.48692,0.02292
2024.45666,0.02306
2023.42640,0.02321
2022.39615,0.02323
2021.36589,0.02343
2020.33563,0.02371
2019.30537,0.02212
2018.27511,0.02008
2017.24486,0.01995
2016.21460,0.02008
2015.18434,0.02031
2014.15408,0.02098
2013.12382,0.02061
2012.09357,0.01937
2011.06331,0.01795
2010.03305,0.01713
2009.00279,0.01738
2007.97254,0.01760
2006.94228,0.01737
2005.91202,0.01774
2004.88176,0.01890
2003.85150,0.01923
2002.82125,0.01867
2001.79099,0.01886
2000.76073,0.01932
1999.73047,0.01912
1998.70021,0.01848
1997.66996,0.01719
1996.63970,0.01532
1995.60944,0.01422
1994.57918,0.01491
1993.54893,0.01580
1992.51867,0.01510
1991.48841,0.01507
1990.45815,0.01729
1989.42789,0.01860
1988.39764,0.01830
1987.36738,0.01828
1986.33712,0.01796
1985.30686,0.01700
1984.27660,0.01634
1983.24635,0.01571
1982.21609,0.01472
1981.18583,0.01434
1980.15557,0.01553
1979.12532,0.01726
1978.09506,0.01786
1977.06480,0.01740
1976.03454,0.01702
1975.00428,0.01788
1973.97403,0.01888
1972.94377,0.01862
1971.91351,0.01804
1970.88325,0.01764
1969.85300,0.01806
1968.82274,0.01822
1967.79248,0.01697
1966.76222,0.01575
1965.73196,0.01502
1964.70171,0.01475
1963.67145,0.01495
1962.64119,0.01502
1961.61093,0.01461
1960.58067,0.01419
1959.55042,0.01452
1958.52016,0.01613
1957.48990,0.01835
1956.45964,0.01941
1955.42939,0.01873
1954.39913,0.01717
1953.36887,0.01615
1952.33861,0.01635
1951.30835,0.01651
1950.27810,0.01581
1949.24784,0.01508
1948.21758,0.01424
1947.18732,0.01330
1946.15706,0.01359
1945.12681,0.01480
1944.09655,0.01502
1943.06629,0.01478
1942.03603,0.01518
1941.00578,0.01504
1939.97552,0.01467
1938.94526,0.01528
1937.91500,0.01594
1936.88474,0.01562
1935.85449,0.01523
1934.82423,0.01511
1933.79397,0.01523
1932.76371,0.01578
1931.73345,0.01572
1930.70320,0.01516
1929.67294,0.01517
1928.64268,0.01549
1927.61242,0.01554
1926.58217,0.01550
1925.55191,0.01577
1924.52165,0.01610
1923.49139,0.01586
1922.46113,0.01520
1921.43088,0.01475
1920.40062,0.01473
1919.37036,0.01491
1918.34010,0.01504
1917.30985,0.01516
1916.27959,0.01540
1915.24933,0.01568
1914.21907,0.01583
1913.18881,0.01525
1912.15856,0.01405
1911.12830,0.01371
1910.09804,0.01438
1909.06778,0.01538
1908.03752,0.01636
1907.00727,0.01646
1905.97701,0.01567
1904.94675,0.01520
1903.91649,0.01562
1902.88624,0.01619
1901.85598,0.01664
1900.82572,0.01728
1899.79546,0.01758
1898.76520,0.01716
1897.73495,0.01667
1896.70469,0.01600
1895.67443,0.01497
1894.64417,0.01468
1893.61391,0.01503
1892.58366,0.01526
1891.55340,0.01538
1890.52314,0.01545
1889.49288,0.01563
1888.46263,0.01617
1887.43237,0.01671
1886.40211,0.01663
1885.37185,0.01596
1884.34159,0.01542
1883.31134,0.01564
1882.28108,0.01610
1881.25082,0.01592
1880.22056,0.01565
1879.19030,0.01609
1878.16005,0.01655
1877.12979,0.01638
1876.09953,0.01606
1875.06927,0.01610
1874.03902,0.01640
1873.00876,0.01662
1871.97850,0.01663
1870.94824,0.01642
1869.91798,0.01611
1868.88773,0.01580
1867.85747,0.01588
1866.82721,0.01591
1865.79695,0.01539
1864.76670,0.01516
1863.73644,0.01539
1862.70618,0.01552
1861.67592,0.01561
1860.64566,0.01580
1859.61541,0.01591
1858.58515,0.01590
1857.55489,0.01575
1856.52463,0.01551
1855.49437,0.01549
1854.46412,0.01566
1853.43386,0.01577
1852.40360,0.01579
1851.37334,0.01590
1850.34309,0.01596
1849.31283,0.01594
1848.28257,0.01616
1847.25231,0.01642
1846.22205,0.01656
1845.19180,0.01673
1844.16154,0.01674
1843.13128,0.01648
1842.10102,0.01623
1841.07076,0.01633
1840.04051,0.01685
1839.01025,0.01698
1837.97999,0.01670
1836.94973,0.01690
1835.91948,0.01713
1834.88922,0.01683
1833.85896,0.01663
1832.82870,0.01662
1831.79844,0.01668
1830.76819,0.01687
1829.73793,0.01680
1828.70767,0.01652
1827.67741,0.01658
1826.64715,0.01689
1825.61690,0.01713
1824.58664,0.01700
1823.55638,0.01675
1822.52612,0.01679
1821.49587,0.01706
1820.46561,0.01736
1819.43535,0.01761
1818.40509,0.01752
1817.37483,0.01713
1816.34458,0.01710
1815.31432,0.01764
1814.28406,0.01822
1813.25380,0.01843
1812.22355,0.01854
1811.19329,0.01865
1810.16303,0.01832
1809.13277,0.01795
1808.10251,0.01811
1807.07226,0.01838
1806.04200,0.01848
1805.01174,0.01845
1803.98148,0.01822
1802.95122,0.01811
1801.92097,0.01829
1800.89071,0.01841
1799.86045,0.01849
1798.83019,0.01880
1797.79994,0.01923
1796.76968,0.01956
1795.73942,0.01983
1794.70916,0.02012
1793.67890,0.02023
1792.64865,0.02014
1791.61839,0.02002
1790.58813,0.02027
1789.55787,0.02076
1788.52761,0.02077
1787.49736,0.02042
1786.46710,0.02027
1785.43684,0.02035
1784.40658,0.02061
1783.37633,0.02092
1782.34607,0.02133
1781.31581,0.02196
1780.28555,0.02229
1779.25529,0.02209
1778.22504,0.02181
1777.19478,0.02164
1776.16452,0.02168
1775.13426,0.02194
1774.10400,0.02222
1773.07375,0.02239
1772.04349,0.02239
1771.01323,0.02250
1769.98297,0.02281
1768.95272,0.02306
1767.92246,0.02330
1766.89220,0.02374
1765.86194,0.02416
1764.83168,0.02430
1763.80143,0.02437
1762.77117,0.02479
1761.74091,0.02538
1760.71065,0.02577
1759.68040,0.02608
1758.65014,0.02642
1757.61988,0.02676
1756.58962,0.02705
1755.55936,0.02720
1754.52911,0.02723
1753.49885,0.02738
1752.46859,0.02771
1751.43833,0.02822
1750.40807,0.02894
1749.37782,0.02950
1748.34756,0.02974
1747.31730,0.03002
1746.28704,0.03045
1745.25679,0.03076
1744.22653,0.03088
1743.19627,0.03107
1742.16601,0.03173
1741.13575,0.03258
1740.10550,0.03310
1739.07524,0.03346
1738.04498,0.03394
1737.01472,0.03441
1735.98446,0.03475
1734.95421,0.03485
1733.92395,0.03517
1732.89369,0.03611
1731.86343,0.03701
1730.83318,0.03771
1729.80292,0.03836
1728.77266,0.03916
1727.74240,0.03993
1726.71214,0.04056
1725.68189,0.04117
1724.65163,0.04188
1723.62137,0.04260
1722.59111,0.04323
1721.56085,0.04396
1720.53060,0.04484
1719.50034,0.04553
1718.47008,0.04614
1717.43982,0.04739
1716.40957,0.04857
1715.37931,0.04943
1714.34905,0.05055
1713.31879,0.05166
1712.28853,0.05255
1711.25828,0.05358
1710.22802,0.05487
1709.19776,0.05629
1708.16750,0.05752
1707.13725,0.05847
1706.10699,0.05961
1705.07673,0.06118
1704.04647,0.06273
1703.01621,0.06396
1701.98596,0.06490
1700.95570,0.06586
1699.92544,0.06770
1698.89518,0.06976
1697.86492,0.07122
1696.83467,0.07261
1695.80441,0.07470
1694.77415,0.07668
1693.74389,0.07793
1692.71364,0.07922
1691.68338,0.08068
1690.65312,0.08224
1689.62286,0.08389
1688.59260,0.08575
1687.56235,0.08757
1686.53209,0.08920
1685.50183,0.09101
1684.47157,0.09309
1683.44131,0.09483
1682.41106,0.09645
1681.38080,0.09826
1680.35054,0.10016
1679.32028,0.10212
1678.29003,0.10404
1677.25977,0.10585
1676.22951,0.10743
1675.19925,0.10903
1674.16899,0.11097
1673.13874,0.11291
1672.10848,0.11479
1671.07822,0.11674
1670.04796,0.11893
1669.01771,0.12125
1667.98745,0.12326
1666.95719,0.12493
1665.92693,0.12662
1664.89667,0.12849
1663.86642,0.13033
1662.83616,0.13205
1661.80590,0.13386
1660.77564,0.13554
1659.74538,0.13702
1658.71513,0.13854
1657.68487,0.14018
1656.65461,0.14186
1655.62435,0.14369
1654.59410,0.14578
1653.56384,0.14765
1652.53358,0.14851
1651.50332,0.14973
1650.47306,0.15133
1649.44281,0.15247
1648.41255,0.15308
1647.38229,0.15411
1646.35203,0.15591
1645.32177,0.15705
1644.29152,0.15742
1643.26126,0.15764
1642.23100,0.15791
1641.20074,0.15803
1640.17049,0.15812
1639.14023,0.15860
1638.10997,0.15913
1637.07971,0.15951
1636.04945,0.15938
1635.01920,0.15813
1633.98894,0.15741
1632.95868,0.15719
1631.92842,0.15637
1630.89816,0.15518
1629.86791,0.15421
1628.83765,0.15333
1627.80739,0.15164
1626.77713,0.14935
1625.74688,0.14767
1624.71662,0.14646
1623.68636,0.14457
1622.65610,0.14197
1621.62584,0.14001
1620.59559,0.13823
1619.56533,0.13617
1618.53507,0.13439
1617.50481,0.13281
1616.47456,0.13007
1615.44430,0.12740
1614.41404,0.12572
1613.38378,0.12395
1612.35352,0.12178
1611.32327,0.11947
1610.29301,0.11719
1609.26275,0.11505
1608.23249,0.11321
1607.20223,0.11127
1606.17198,0.10913
1605.14172,0.10723
1604.11146,0.10542
1603.08120,0.10330
1602.05095,0.10125
1601.02069,0.09968
1599.99043,0.09835
1598.96017,0.09695
1597.92991,0.09556
1596.89966,0.09424
1595.86940,0.09277
1594.83914,0.09115
1593.80888,0.08967
1592.77862,0.08843
1591.74837,0.08707
1590.71811,0.08582
1589.68785,0.08505
1588.65759,0.08426
1587.62734,0.08304
1586.59708,0.08174
1585.56682,0.08075
1584.53656,0.08004
1583.50630,0.07912
1582.47605,0.07782
1581.44579,0.07682
1580.41553,0.07638
1579.38527,0.07595
1578.35501,0.07523
1577.32476,0.07419
1576.29450,0.07264
1575.26424,0.07154
1574.23398,0.07119
1573.20373,0.07072
1572.17347,0.07013
1571.14321,0.06963
1570.11295,0.06910
1569.08269,0.06837
1568.05244,0.06786
1567.02218,0.06755
1565.99192,0.06709
1564.96166,0.06638
1563.93141,0.06577
1562.90115,0.06532
1561.87089,0.06503
1560.84063,0.06503
1559.81037,0.06518
1558.78012,0.06460
1557.74986,0.06315
1556.71960,0.06246
1555.68934,0.06244
1554.65908,0.06229
1553.62883,0.06163
1552.59857,0.06105
1551.56831,0.06076
1550.53805,0.06052
1549.50780,0.06013
1548.47754,0.05960
1547.44728,0.05917
1546.41702,0.05906
1545.38676,0.05898
1544.35651,0.05830
1543.32625,0.05763
1542.29599,0.05769
1541.26573,0.05803
1540.23547,0.05730
1539.20522,0.05603
1538.17496,0.05603
1537.14470,0.05634
1536.11444,0.05635
1535.08419,0.05622
1534.05393,0.05611
1533.02367,0.05599
1531.99341,0.05572
1530.96315,0.05537
1529.93290,0.05504
1528.90264,0.05474
1527.87238,0.05451
1526.84212,0.05462
1525.81186,0.05472
1524.78161,0.05435
1523.75135,0.05398
1522.72109,0.05374
1521.69083,0.05338
1520.66058,0.05313
1519.63032,0.05317
1518.60006,0.05323
1517.56980,0.05311
1516.53954,0.05294
1515.50929,0.05299
1514.47903,0.05317
1513.44877,0.05327
1512.41851,0.05311
1511.38826,0.05289
1510.35800,0.05277
1509.32774,0.05260
1508.29748,0.05230
1507.26722,0.05184
1506.23697,0.05152
1505.20671,0.05157
1504.17645,0.05169
1503.14619,0.05187
1502.11593,0.05191
1501.08568,0.05177
1500.05542,0.05170
1499.02516,0.05180
1497.99490,0.05194
1496.96465,0.05204
1495.93439,0.05205
1494.90413,0.05194
1493.87387,0.05183
1492.84361,0.05182
1491.81336,0.05217
1490.78310,0.05300
1489.75284,0.05383
1488.72258,0.05455
1487.69232,0.05592
1486.66207,0.05824
1485.63181,0.06140
1484.60155,0.06582
1483.57129,0.07147
1482.54104,0.07663
1481.51078,0.07892
1480.48052,0.07726
1479.45026,0.07317
1478.42000,0.06887
1477.38975,0.06551
1476.35949,0.06318
1475.32923,0.06199
1474.29897,0.06179
1473.26871,0.06236
1472.23846,0.06389
1471.20820,0.06585
1470.17794,0.06770
1469.14768,0.06966
1468.11743,0.07160
1467.08717,0.07307
1466.05691,0.07386
1465.02665,0.07377
1463.99639,0.07287
1462.96614,0.07182
1461.93588,0.07065
1460.90562,0.06939
1459.87536,0.06811
1458.84511,0.06672
1457.81485,0.06530
1456.78459,0.06384
1455.75433,0.06298
1454.72407,0.06265
1453.69382,0.06223
1452.66356,0.06162
1451.63330,0.06097
1450.60304,0.06049
1449.57278,0.06020
1448.54253,0.05995
1447.51227,0.05942
1446.48201,0.05853
1445.45175,0.05767
1444.42150,0.05714
1443.39124,0.05696
1442.36098,0.05680
1441.33072,0.05643
1440.30046,0.05602
1439.27021,0.05562
1438.23995,0.05532
1437.20969,0.05494
1436.17943,0.05416
1435.14917,0.05357
1434.11892,0.05320
1433.08866,0.05265
1432.05840,0.05200
1431.02814,0.05145
1429.99789,0.05099
1428.96763,0.05075
1427.93737,0.05066
1426.90711,0.05053
1425.87685,0.05043
1424.84660,0.05024
1423.81634,0.04990
1422.78608,0.04962
1421.75582,0.04951
1420.72556,0.04949
1419.69531,0.04951
1418.66505,0.04963
1417.63479,0.04954
1416.60453,0.04914
1415.57428,0.04885
1414.54402,0.04880
1413.51376,0.04875
1412.48350,0.04890
1411.45324,0.04933
1410.42299,0.04970
1409.39273,0.05009
1408.36247,0.05079
1407.33221,0.05185
1406.30196,0.05315
1405.27170,0.05447
1404.24144,0.05517
1403.21118,0.05510
1402.18092,0.05473
1401.15067,0.05415
1400.12041,0.05331
1399.09015,0.05221
1398.05989,0.05118
1397.02963,0.05045
1395.99938,0.04983
1394.96912,0.04926
1393.93886,0.04879
1392.90860,0.04837
1391.87835,0.04799
1390.84809,0.04772
1389.81783,0.04759
1388.78757,0.04749
1387.75731,0.04756
1386.72706,0.04784
1385.69680,0.04776
1384.66654,0.04739
1383.63628,0.04721
1382.60602,0.04715
1381.57577,0.04700
1380.54551,0.04688
1379.51525,0.04684
1378.48499,0.04685
1377.45474,0.04694
1376.42448,0.04713
1375.39422,0.04731
1374.36396,0.04733
1373.33370,0.04719
1372.30345,0.04703
1371.27319,0.04695
1370.24293,0.04690
1369.21267,0.04680
1368.18241,0.04668
1367.15216,0.04655
1366.12190,0.04643
1365.09164,0.04635
1364.06138,0.04634
1363.03113,0.04633
1362.00087,0.04631
1360.97061,0.04646
1359.94035,0.04664
1358.91009,0.04654
1357.87984,0.04632
1356.84958,0.04629
1355.81932,0.04639
1354.78906,0.04647
1353.75881,0.04655
1352.72855,0.04644
1351.69829,0.04608
1350.66803,0.04601
1349.63777,0.04634
1348.60752,0.04645
1347.57726,0.04632
1346.54700,0.04624
1345.51674,0.04618
1344.48648,0.04607
1343.45623,0.04593
1342.42597,0.04581
1341.39571,0.04594
1340.36545,0.04637
1339.33520,0.04666
1338.30494,0.04649
1337.27468,0.04618
1336.24442,0.04615
1335.21416,0.04630
1334.18391,0.04645
1333.15365,0.04658
1332.12339,0.04660
1331.09313,0.04632
1330.06287,0.04588
1329.03262,0.04568
1328.00236,0.04577
1326.97210,0.04591
1325.94184,0.04611
1324.91159,0.04639
1323.88133,0.04651
1322.85107,0.04629
1321.82081,0.04608
1320.79055,0.04619
1319.76030,0.04624
1318.73004,0.04604
1317.69978,0.04600
1316.66952,0.04611
1315.63927,0.04602
1314.60901,0.04579
1313.57875,0.04569
1312.54849,0.04575
1311.51823,0.04585
1310.48798,0.04597
1309.45772,0.04610
1308.42746,0.04611
1307.39720,0.04610
1306.36694,0.04623
1305.33669,0.04638
1304.30643,0.04634
1303.27617,0.04614
1302.24591,0.04594
1301.21566,0.04582
1300.18540,0.04574
1299.15514,0.04575
1298.12488,0.04583
1297.09462,0.04587
1296.06437,0.04594
1295.03411,0.04598
1294.00385,0.04595
1292.97359,0.04593
1291.94333,0.04591
1290.91308,0.04586
1289.88282,0.04590
1288.85256,0.04617
1287.82230,0.04634
1286.79205,0.04617
1285.76179,0.04597
1284.73153,0.04599
1283.70127,0.04608
1282.67101,0.04610
1281.64076,0.04590
1280.61050,0.04564
1279.58024,0.04567
1278.54998,0.04590
1277.51972,0.04600
1276.48947,0.04590
1275.45921,0.04579
1274.42895,0.04584
1273.39869,0.04593
1272.36844,0.04592
1271.33818,0.04592
1270.30792,0.04600
1269.27766,0.04617
1268.24740,0.04627
1267.21715,0.04606
1266.18689,0.04585
1265.15663,0.04593
1264.12637,0.04615
1263.09612,0.04613
1262.06586,0.04576
1261.03560,0.04560
1260.00534,0.04590
1258.97508,0.04615
1257.94483,0.04628
1256.91457,0.04670
1255.88431,0.04725
1254.85405,0.04755
1253.82379,0.04771
1252.79354,0.04800
1251.76328,0.04850
1250.73302,0.04935
1249.70276,0.05042
1248.67251,0.05112
1247.64225,0.05163
1246.61199,0.05274
1245.58173,0.05444
1244.55147,0.05612
1243.52122,0.05763
1242.49096,0.05923
1241.46070,0.06081
1240.43044,0.06209
1239.40018,0.06277
1238.36993,0.06254
1237.33967,0.06154
1236.30941,0.06013
1235.27915,0.05855
1234.24890,0.05703
1233.21864,0.05575
1232.18838,0.05458
1231.15812,0.05336
1230.12786,0.05226
1229.09761,0.05134
1228.06735,0.05061
1227.03709,0.05004
1226.00683,0.04951
1224.97657,0.04905
1223.94632,0.04864
1222.91606,0.04820
1221.88580,0.04782
1220.85554,0.04765
1219.82529,0.04757
1218.79503,0.04748
1217.76477,0.04746
1216.73451,0.04732
1215.70425,0.04701
1214.67400,0.04689
1213.64374,0.04695
1212.61348,0.04693
1211.58322,0.04692
1210.55297,0.04692
1209.52271,0.04694
1208.49245,0.04706
1207.46219,0.04693
1206.43193,0.04663
1205.40168,0.04654
1204.37142,0.04659
1203.34116,0.04648
1202.31090,0.04618
1201.28064,0.04597
1200.25039,0.04602
1199.22013,0.04635
1198.18987,0.04671
1197.15961,0.04682
1196.12936,0.04677
1195.09910,0.04670
1194.06884,0.04661
1193.03858,0.04654
1192.00832,0.04653
1190.97807,0.04640
1189.94781,0.04622
1188.91755,0.04616
1187.88729,0.04617
1186.85703,0.04633
1185.82678,0.04653
1184.79652,0.04648
1183.76626,0.04630
1182.73600,0.04613
1181.70575,0.04609
1180.67549,0.04623
1179.64523,0.04623
1178.61497,0.04608
1177.58471,0.04609
1176.55446,0.04619
1175.52420,0.04620
1174.49394,0.04625
1173.46368,0.04628
1172.43342,0.04625
1171.40317,0.04616
1170.37291,0.04596
1169.34265,0.04597
1168.31239,0.04611
1167.28214,0.04606
1166.25188,0.04598
1165.22162,0.04579
1164.19136,0.04550
1163.16110,0.04560
1162.13085,0.04609
1161.10059,0.04630
1160.07033,0.04627
1159.04007,0.04639
1158.00982,0.04634
1156.97956,0.04592
1155.94930,0.04563
1154.91904,0.04575
1153.88878,0.04599
1152.85853,0.04615
1151.82827,0.04625
1150.79801,0.04637
1149.76775,0.04654
1148.73749,0.04656
1147.70724,0.04650
1146.67698,0.04644
1145.64672,0.04633
1144.61646,0.04617
1143.58621,0.04602
1142.55595,0.04602
1141.52569,0.04602
1140.49543,0.04606
1139.46517,0.04624
1138.43492,0.04619
1137.40466,0.04605
1136.37440,0.04621
1135.34414,0.04631
1134.31388,0.04621
1133.28363,0.04629
1132.25337,0.04632
1131.22311,0.04619
1130.19285,0.04619
1129.16260,0.04632
1128.13234,0.04657
1127.10208,0.04696
1126.07182,0.04727
1125.04156,0.04757
1124.01131,0.04795
1122.98105,0.04825
1121.95079,0.04842
1120.92053,0.04845
1119.89027,0.04837
1118.86002,0.04818
1117.82976,0.04773
1116.79950,0.04719
1115.76924,0.04695
1114.73899,0.04701
1113.70873,0.04714
1112.67847,0.04716
1111.64821,0.04700
1110.61795,0.04686
1109.58770,0.04680
1108.55744,0.04696
1107.52718,0.04739
1106.49692,0.04782
1105.46667,0.04784
1104.43641,0.04740
1103.40615,0.04729
1102.37589,0.04775
1101.34563,0.04814
1100.31538,0.04820
1099.28512,0.04814
1098.25486,0.04813
1097.22460,0.04825
1096.19434,0.04826
1095.16409,0.04819
1094.13383,0.04848
1093.10357,0.04883
1092.07331,0.04875
1091.04306,0.04837
1090.01280,0.04806
1088.98254,0.04806
1087.95228,0.04835
1086.92202,0.04877
1085.89177,0.04903
1084.86151,0.04917
1083.83125,0.04938
1082.80099,0.04947
1081.77073,0.04937
1080.74048,0.04915
1079.71022,0.04890
1078.67996,0.04877
1077.64970,0.04897
1076.61945,0.04945
1075.58919,0.04970
1074.55893,0.04966
1073.52867,0.04967
1072.49841,0.04975
1071.46816,0.04962
1070.43790,0.04922
1069.40764,0.04897
1068.37738,0.04911
1067.34712,0.04932
1066.31687,0.04934
1065.28661,0.04921
1064.25635,0.04901
1063.22609,0.04885
1062.19584,0.04890
1061.16558,0.04911
1060.13532,0.04925
1059.10506,0.04941
1058.07480,0.04972
1057.04455,0.04999
1056.01429,0.04996
1054.98403,0.04956
1053.95377,0.04909
1052.92352,0.04891
1051.89326,0.04891
1050.86300,0.04902
1049.83274,0.04913
1048.80248,0.04923
1047.77223,0.04953
1046.74197,0.04981
1045.71171,0.04993
1044.68145,0.05009
1043.65119,0.05037
1042.62094,0.05064
1041.59068,0.05058
1040.56042,0.05016
1039.53016,0.04974
1038.49991,0.04957
1037.46965,0.04979
1036.43939,0.05002
1035.40913,0.05016
1034.37887,0.05050
1033.34862,0.05080
1032.31836,0.05080
1031.28810,0.05057
1030.25784,0.05019
1029.22758,0.05004
1028.19733,0.05032
1027.16707,0.05068
1026.13681,0.05079
1025.10655,0.05073
1024.07630,0.05084
1023.04604,0.05126
1022.01578,0.05180
1020.98552,0.05221
1019.95526,0.05239
1018.92501,0.05259
1017.89475,0.05271
1016.86449,0.05259
1015.83423,0.05257
1014.80397,0.05281
1013.77372,0.05312
1012.74346,0.05324
1011.71320,0.05309
1010.68294,0.05300
1009.65269,0.05331
1008.62243,0.05381
1007.59217,0.05410
1006.56191,0.05422
1005.53165,0.05449
1004.50140,0.05479
1003.47114,0.05494
1002.44088,0.05525
1001.41062,0.05553
1000.38037,0.05556
999.35011,0.05560
998.31985,0.05581
997.28959,0.05619
996.25933,0.05643
995.22908,0.05651
994.19882,0.05682
993.16856,0.05734
992.13830,0.05768
991.10804,0.05788
990.07779,0.05831
989.04753,0.05878
988.01727,0.05894
986.98701,0.05902
985.95676,0.05938
984.92650,0.05993
983.89624,0.06037
982.86598,0.06048
981.83572,0.06043
980.80547,0.06048
979.77521,0.06060
978.74495,0.06085
977.71469,0.06155
976.68443,0.06221
975.65418,0.06241
974.62392,0.06272
973.59366,0.06336
972.56340,0.06407
971.53315,0.06461
970.50289,0.06512
969.47263,0.06576
968.44237,0.06640
967.41211,0.06702
966.38186,0.06772
965.35160,0.06870
964.32134,0.06980
963.29108,0.07096
962.26082,0.07248
961.23057,0.07455
960.20031,0.07712
959.17005,0.08000
958.13979,0.08325
957.10954,0.08710
956.07928,0.09117
955.04902,0.09514
954.01876,0.09920
952.98850,0.10291
951.95825,0.10564
950.92799,0.10731
949.89773,0.10814
948.86747,0.10835
947.83722,0.10788
946.80696,0.10641
945.77670,0.10383
944.74644,0.10056
943.71618,0.09727
942.68593,0.09431
941.65567,0.09166
940.62541,0.08947
939.59515,0.08784
938.56489,0.08671
937.53464,0.08584
936.50438,0.08518
935.47412,0.08477
934.44386,0.08462
933.41361,0.08480
932.38335,0.08500
931.35309,0.08504
930.32283,0.08513
929.29257,0.08518
928.26232,0.08538
927.23206,0.08590
926.20180,0.08612
925.17154,0.08611
924.14128,0.08654
923.11103,0.08725
922.08077,0.08784
921.05051,0.08817
920.02025,0.08853
918.99000,0.08917
917.95974,0.08973
916.92948,0.09023
915.89922,0.09102
914.86896,0.09201
913.83871,0.09297
912.80845,0.09379
911.77819,0.09458
910.74793,0.09548
909.71768,0.09626
908.68742,0.09668
907.65716,0.09708
906.62690,0.09791
905.59664,0.09908
904.56639,0.10019
903.53613,0.10132
902.50587,0.10231
901.47561,0.10271
900.44535,0.10299
899.41510,0.10365
898.38484,0.10447
897.35458,0.10548
896.32432,0.10674
895.29407,0.10796
894.26381,0.10877
893.23355,0.10939
892.20329,0.11025
891.17303,0.11132
890.14278,0.11236
889.11252,0.11337
888.08226,0.11464
887.05200,0.11587
886.02174,0.11643
884.99149,0.11686
883.96123,0.11784
882.93097,0.11894
881.90071,0.11969
880.87046,0.12052
879.84020,0.12180
878.80994,0.12305
877.77968,0.12419
876.74942,0.12569
875.71917,0.12735
874.68891,0.12848
873.65865,0.12894
872.62839,0.12921
871.59813,0.12996
870.56788,0.13119
869.53762,0.13259
868.50736,0.13449
867.47710,0.13652
866.44685,0.13773
865.41659,0.13837
864.38633,0.13925
863.35607,0.14055
862.32581,0.14180
861.29556,0.14277
860.26530,0.14376
859.23504,0.14469
858.20478,0.14534
857.17453,0.14602
856.14427,0.14712
855.11401,0.14861
854.08375,0.15036
853.05349,0.15192
852.02324,0.15285
850.99298,0.15356
849.96272,0.15454
848.93246,0.15611
847.90220,0.15796
846.87195,0.15934
845.84169,0.16030
844.81143,0.16134
843.78117,0.16244
842.75092,0.16332
841.72066,0.16423
840.69040,0.16563
839.66014,0.16720
838.62988,0.16840
837.59963,0.16957
836.56937,0.17103
835.53911,0.17253
834.50885,0.17417
833.47859,0.17569
832.44834,0.17660
831.41808,0.17730
830.38782,0.17841
829.35756,0.17982
828.32731,0.18110
827.29705,0.18260
826.26679,0.18434
825.23653,0.18573
824.20627,0.18690
823.17602,0.18860
822.14576,0.19083
821.11550,0.19242
820.08524,0.19288
819.05498,0.19330
818.02473,0.19430
816.99447,0.19563
815.96421,0.19727
814.93395,0.19902
813.90370,0.20070
812.87344,0.20219
811.84318,0.20333
810.81292,0.20461
809.78266,0.20609
808.75241,0.20731
807.72215,0.20857
806.69189,0.21045
805.66163,0.21235
804.63138,0.21348
803.60112,0.21449
802.57086,0.21570
801.54060,0.21674
800.51034,0.21766
799.48009,0.21879
798.44983,0.22032
797.41957,0.22174
796.38931,0.22287
795.35905,0.22440
794.32880,0.22619
793.29854,0.22749
792.26828,0.22865
791.23802,0.23030
790.20777,0.23233
789.17751,0.23436
788.14725,0.23565
787.11699,0.23599
786.08673,0.23661
785.05648,0.23828
784.02622,0.24033
782.99596,0.24222
781.96570,0.24377
780.93544,0.24479
779.90519,0.24593
778.87493,0.24786
777.84467,0.24948
776.81441,0.24994
775.78416,0.25095
774.75390,0.25319
773.72364,0.25515
772.69338,0.25665
771.66312,0.25833
770.63287,0.25998
769.60261,0.26179
768.57235,0.26392
767.54209,0.26558
766.51183,0.26695
765.48158,0.26905
764.45132,0.27154
763.42106,0.27350
762.39080,0.27544
761.36055,0.27818
760.33029,0.28133
759.30003,0.28459
758.26977,0.28773
757.23951,0.29011
756.20926,0.29198
755.17900,0.29372
754.14874,0.29500
753.11848,0.29576
752.08823,0.29603
751.05797,0.29597
750.02771,0.29629
748.99745,0.29714
747.96719,0.29796
746.93694,0.29842
745.90668,0.29868
744.87642,0.29948
743.84616,0.30102
742.81590,0.30262
741.78565,0.30377
740.75539,0.30414
739.72513,0.30391
738.69487,0.30466
737.66462,0.30687
736.63436,0.30885
735.60410,0.31020
734.57384,0.31189
733.54358,0.31373
732.51333,0.31500
731.48307,0.31556
730.45281,0.31647
729.42255,0.31859
728.39229,0.32058
727.36204,0.32105
726.33178,0.32095
725.30152,0.32196
724.27126,0.32370
723.24101,0.32562
722.21075,0.32789
721.18049,0.32943
720.15023,0.33002
719.11997,0.33070
718.08972,0.33178
717.05946,0.33310
716.02920,0.33434
714.99894,0.33565
713.96868,0.33737
712.93843,0.33883
711.90817,0.34036
710.87791,0.34265
709.84765,0.34413
708.81740,0.34471
707.78714,0.34590
706.75688,0.34729
705.72662,0.34865
704.69636,0.35072
703.66611,0.35295
702.63585,0.35457
701.60559,0.35599
700.57533,0.35723
699.54508,0.35807
698.51482,0.35939
697.48456,0.36162
696.45430,0.36368
695.42404,0.36511
694.39379,0.36594
693.36353,0.36552
692.33327,0.36453
691.30301,0.36491
690.27275,0.36689
689.24250,0.36922
688.21224,0.37122
687.18198,0.37286
686.15172,0.37389
685.12147,0.37412
684.09121,0.37523
683.06095,0.37816
682.03069,0.38076
681.00043,0.38147
679.97018,0.38148
678.93992,0.38172
677.90966,0.38230
676.87940,0.38463
675.84914,0.38791
674.81889,0.38953
673.78863,0.38996
672.75837,0.39085
671.72811,0.39249
670.69786,0.39386
669.66760,0.39449
668.63734,0.39439
667.60708,0.39432
666.57682,0.39651
665.54657,0.39884
664.51631,0.40025
663.48605,0.40111
662.45579,0.40185
661.42553,0.40301
660.39528,0.40469
659.36502,0.40579
658.33476,0.40581
657.30450,0.40574
656.27425,0.40659
655.24399,0.40788
654.21373,0.40963
653.18347,0.41144
652.15321,0.41209
651.12296,0.41313
650.09270,0.41557
649.06244,0.41721
648.03218,0.41750
647.00193,0.41771
645.97167,0.41847
644.94141,0.42070
643.91115,0.42398
642.88089,0.42605
641.85064,0.42624
640.82038,0.42640
639.79012,0.42718
638.75986,0.42788
637.72960,0.42880
636.69935,0.42988
635.66909,0.43116
634.63883,0.43255
633.60857,0.43350
632.57832,0.43469
631.54806,0.43573
630.51780,0.43608
629.48754,0.43645
628.45728,0.43685
627.42703,0.43819
626.39677,0.44061
625.36651,0.44247
624.33625,0.44304
623.30599,0.44272
622.27574,0.44234
621.24548,0.44199
620.21522,0.44233
619.18496,0.44383
618.15471,0.44520
617.12445,0.44557
616.09419,0.44610
615.06393,0.44807
614.03367,0.45046
613.00342,0.45134
611.97316,0.45055
610.94290,0.44979
609.91264,0.44996
608.88238,0.45056
607.85213,0.45179
606.82187,0.45411
605.79161,0.45655
604.76135,0.45789
603.73110,0.45850
602.70084,0.45830
601.67058,0.45817
600.64032,0.45964
599.61006,0.46117
598.57981,0.46156
597.54955,0.46154
596.51929,0.46208
595.48903,0.46276
594.45878,0.46274
593.42852,0.46216
592.39826,0.46129
591.36800,0.46199
590.33774,0.46444
589.30749,0.46583
588.27723,0.46549
587.24697,0.46601
586.21671,0.46907
585.18645,0.47211
584.15620,0.47290
583.12594,0.47224
582.09568,0.47032
581.06542,0.46907
580.03517,0.47098
579.00491,0.47354
577.97465,0.47519
576.94439,0.47702
575.91413,0.47788
574.88388,0.47768
573.85362,0.47751
572.82336,0.47788
571.79310,0.47943
570.76284,0.48069
569.73259,0.48059
568.70233,0.47973
567.67207,0.47999
566.64181,0.48412
565.61156,0.48755
564.58130,0.48504
563.55104,0.48226
562.52078,0.48397
561.49052,0.48609
560.46027,0.48663
559.43001,0.48718
558.39975,0.48652
557.36949,0.48501
556.33924,0.48565
555.30898,0.48845
554.27872,0.49034
553.24846,0.49028
552.21820,0.48957
551.18795,0.48964
550.15769,0.49090
549.12743,0.49128
548.09717,0.49070
547.06691,0.49017
546.03666,0.48951
545.00640,0.48898
543.97614,0.48807
542.94588,0.48806
541.91563,0.49098
540.88537,0.49427
539.85511,0.49490
538.82485,0.49505
537.79459,0.49611
536.76434,0.49610
535.73408,0.49517
534.70382,0.49502
533.67356,0.49681
532.64330,0.50023
531.61305,0.50261
530.58279,0.50270
529.55253,0.50206
528.52227,0.50193
527.49202,0.50343
526.46176,0.50811
525.43150,0.51269
524.40124,0.51151
523.37098,0.50980
522.34073,0.51267
521.31047,0.51553
520.28021,0.51653
519.24995,0.51657
518.21969,0.51598
517.18944,0.51597
516.15918,0.51533
515.12892,0.51513
514.09866,0.51630
513.06841,0.51574
512.03815,0.51488
511.00789,0.51705
509.97763,0.52040
508.94737,0.52347
507.91712,0.52551
506.88686,0.52654
505.85660,0.52979
504.82634,0.53621
503.79609,0.54334
502.76583,0.54753
501.73557,0.54631
500.70531,0.54314
499.67505,0.54216
498.64480,0.54329
497.61454,0.54501
496.58428,0.54522
495.55402,0.54298
494.52376,0.53998
493.49351,0.53862
492.46325,0.53937
491.43299,0.54128
490.40273,0.54501
489.37248,0.54598
488.34222,0.53971
487.31196,0.53435
486.28170,0.53616
485.25144,0.53868
484.22119,0.53563
483.19093,0.53170
482.16067,0.53256
481.13041,0.53622
480.10015,0.53916
479.06990,0.53913
478.03964,0.53551
477.00938,0.53192
475.97912,0.53246
474.94887,0.53316
473.91861,0.52999
472.88835,0.52709
471.85809,0.52694
470.82783,0.53182
469.79758,0.54287
468.76732,0.55432
467.73706,0.56219
466.70680,0.56830
465.67654,0.57361
464.64629,0.57796
463.61603,0.58095
462.58577,0.57694
461.55551,0.56782
460.52526,0.56474
459.49500,0.56275
458.46474,0.55664
457.43448,0.55309
456.40422,0.55311
455.37397,0.55409
454.34371,0.55289
453.31345,0.55030
452.28319,0.55519
451.25294,0.56418
450.22268,0.56347
449.19242,0.55567
448.16216,0.55215
447.13190,0.55416
446.10165,0.55713
445.07139,0.55864
444.04113,0.55966
443.01087,0.55828
441.98061,0.55455
440.95036,0.55440
439.92010,0.55466
438.88984,0.54880
437.85958,0.54464
436.82933,0.54585
435.79907,0.54210
434.76881,0.53691
433.73855,0.53601
432.70829,0.53392
431.67804,0.53463
430.64778,0.53950
429.61752,0.53925
428.58726,0.53674
427.55700,0.53939
426.52675,0.54177
425.49649,0.54061
424.46623,0.53844
423.43597,0.53461
422.40572,0.53235
421.37546,0.53142
420.34520,0.52725
419.31494,0.52011
418.28468,0.51268
417.25443,0.51513
416.22417,0.52680
415.19391,0.53407
414.16365,0.53220
413.13339,0.52742
412.10314,0.52573
411.07288,0.52972
410.04262,0.53597
409.01236,0.53721
407.98211,0.52917
406.95185,0.51956
405.92159,0.52206
404.89133,0.53788
403.86107,0.54537
402.83082,0.53751
401.80056,0.53718
400.77030,0.55045
399.74004,0.55596
