4998.81105,0.00310
4997.78079,0.00393
4996.75054,0.00356
4995.72028,0.00207
4994.69002,0.00120
4993.65976,0.00176
4992.62951,0.00296
4991.59925,0.00400
4990.56899,0.00443
4989.53873,0.00405
4988.50847,0.00321
4987.47822,0.00202
4986.44796,0.00096
4985.41770,0.00061
4984.38744,0.00091
4983.35718,0.00197
4982.32693,0.00311
4981.29667,0.00357
4980.26641,0.00391
4979.23615,0.00382
4978.20590,0.00326
4977.17564,0.00295
4976.14538,0.00241
4975.11512,0.00206
4974.08486,0.00214
4973.05461,0.00173
4972.02435,0.00143
4970.99409,0.00203
4969.96383,0.00269
4968.93357,0.00313
4967.90332,0.00369
4966.87306,0.00364
4965.84280,0.00290
4964.81254,0.00235
4963.78229,0.00220
4962.75203,0.00274
4961.72177,0.00356
4960.69151,0.00338
4959.66125,0.00300
4958.63100,0.00391
4957.60074,0.00479
4956.57048,0.00446
4955.54022,0.00384
4954.50997,0.00340
4953.47971,0.00321
4952.44945,0.00295
4951.41919,0.00252
4950.38893,0.00271
4949.35868,0.00351
4948.32842,0.00397
4947.29816,0.00364
4946.26790,0.00318
4945.23764,0.00265
4944.20739,0.00203
4943.17713,0.00221
4942.14687,0.00256
4941.11661,0.00242
4940.08636,0.00220
4939.05610,0.00182
4938.02584,0.00160
4936.99558,0.00234
4935.96532,0.00336
4934.93507,0.00334
4933.90481,0.00283
4932.87455,0.00289
4931.84429,0.00289
4930.81403,0.00194
4929.78378,0.00071
4928.75352,0.00070
4927.72326,0.00216
4926.69300,0.00379
4925.66275,0.00436
4924.63249,0.00388
4923.60223,0.00344
4922.57197,0.00330
4921.54171,0.00317
4920.51146,0.00324
4919.48120,0.00343
4918.45094,0.00350
4917.42068,0.00311
4916.39042,0.00234
4915.36017,0.00206
4914.32991,0.00206
4913.29965,0.00195
4912.26939,0.00202
4911.23914,0.00228
4910.20888,0.00253
4909.17862,0.00269
4908.14836,0.00313
4907.11810,0.00391
4906.08785,0.00387
4905.05759,0.00319
4904.02733,0.00271
4902.99707,0.00212
4901.96682,0.00219
4900.93656,0.00293
4899.90630,0.00339
4898.87604,0.00350
4897.84578,0.00243
4896.81553,0.00125
4895.78527,0.00184
4894.75501,0.00313
4893.72475,0.00389
4892.69449,0.00389
4891.66424,0.00303
4890.63398,0.00268
4889.60372,0.00346
4888.57346,0.00341
4887.54321,0.00242
4886.51295,0.00259
4885.48269,0.00356
4884.45243,0.00366
4883.42217,0.00301
4882.39192,0.00278
4881.36166,0.00353
4880.33140,0.00404
4879.30114,0.00350
4878.27088,0.00329
4877.24063,0.00310
4876.21037,0.00213
4875.18011,0.00161
4874.14985,0.00188
4873.11960,0.00235
4872.08934,0.00249
4871.05908,0.00243
4870.02882,0.00298
4868.99856,0.00385
4867.96831,0.00455
4866.93805,0.00481
4865.90779,0.00424
4864.87753,0.00364
4863.84727,0.00366
4862.81702,0.00363
4861.78676,0.00313
4860.75650,0.00260
4859.72624,0.00251
4858.69599,0.00269
4857.66573,0.00243
4856.63547,0.00159
4855.60521,0.00119
4854.57495,0.00176
4853.54470,0.00201
4852.51444,0.00147
4851.48418,0.00145
4850.45392,0.00150
4849.42367,0.00129
4848.39341,0.00185
4847.36315,0.00212
4846.33289,0.00163
4845.30263,0.00180
4844.27238,0.00280
4843.24212,0.00344
4842.21186,0.00348
4841.18160,0.00377
4840.15134,0.00384
4839.12109,0.00333
4838.09083,0.00291
4837.06057,0.00234
4836.03031,0.00183
4835.00006,0.00223
4833.96980,0.00291
4832.93954,0.00305
4831.90928,0.00299
4830.87902,0.00288
4829.84877,0.00295
4828.81851,0.00266
4827.78825,0.00189
4826.75799,0.00194
4825.72773,0.00250
4824.69748,0.00288
4823.66722,0.00341
4822.63696,0.00365
4821.60670,0.00337
4820.57645,0.00311
4819.54619,0.00283
4818.51593,0.00278
4817.48567,0.00341
4816.45541,0.00377
4815.42516,0.00341
4814.39490,0.00320
4813.36464,0.00295
4812.33438,0.00213
4811.30412,0.00198
4810.27387,0.00291
4809.24361,0.00355
4808.21335,0.00345
4807.18309,0.00300
4806.15284,0.00278
4805.12258,0.00300
4804.09232,0.00285
4803.06206,0.00208
4802.03180,0.00143
4801.00155,0.00147
4799.97129,0.00223
4798.94103,0.00338
4797.91077,0.00476
4796.88052,0.00511
4795.85026,0.00387
4794.82000,0.00279
4793.78974,0.00242
4792.75948,0.00233
4791.72923,0.00293
4790.69897,0.00416
4789.66871,0.00476
4788.63845,0.00399
4787.60819,0.00300
4786.57794,0.00271
4785.54768,0.00262
4784.51742,0.00274
4783.48716,0.00304
4782.45691,0.00257
4781.42665,0.00209
4780.39639,0.00258
4779.36613,0.00286
4778.33587,0.00246
4777.30562,0.00202
4776.27536,0.00173
4775.24510,0.00157
4774.21484,0.00121
4773.18458,0.00096
4772.15433,0.00145
4771.12407,0.00204
4770.09381,0.00172
4769.06355,0.00094
4768.03330,0.00117
4767.00304,0.00218
4765.97278,0.00264
4764.94252,0.00267
4763.91226,0.00264
4762.88201,0.00207
4761.85175,0.00168
4760.82149,0.00225
4759.79123,0.00283
4758.76098,0.00309
4757.73072,0.00365
4756.70046,0.00432
4755.67020,0.00440
4754.63994,0.00419
4753.60969,0.00415
4752.57943,0.00374
4751.54917,0.00351
4750.51891,0.00413
4749.48865,0.00428
4748.45840,0.00334
4747.42814,0.00253
4746.39788,0.00256
4745.36762,0.00299
4744.33737,0.00298
4743.30711,0.00228
4742.27685,0.00171
4741.24659,0.00155
4740.21633,0.00142
4739.18608,0.00176
4738.15582,0.00244
4737.12556,0.00214
4736.09530,0.00121
4735.06504,0.00096
4734.03479,0.00180
4733.00453,0.00330
4731.97427,0.00412
4730.94401,0.00368
4729.91376,0.00274
4728.88350,0.00199
4727.85324,0.00175
4726.82298,0.00198
4725.79272,0.00202
4724.76247,0.00171
4723.73221,0.00155
4722.70195,0.00155
4721.67169,0.00153
4720.64143,0.00201
4719.61118,0.00285
4718.58092,0.00267
4717.55066,0.00208
4716.52040,0.00223
4715.49015,0.00238
4714.45989,0.00261
4713.42963,0.00315
4712.39937,0.00319
4711.36911,0.00271
4710.33886,0.00230
4709.30860,0.00236
4708.27834,0.00254
4707.24808,0.00224
4706.21783,0.00178
4705.18757,0.00202
4704.15731,0.00289
4703.12705,0.00313
4702.09679,0.00240
4701.06654,0.00147
4700.03628,0.00099
4699.00602,0.00129
4697.97576,0.00217
4696.94550,0.00276
4695.91525,0.00216
4694.88499,0.00149
4693.85473,0.00166
4692.82447,0.00177
4691.79422,0.00175
4690.76396,0.00175
4689.73370,0.00153
4688.70344,0.00177
4687.67318,0.00263
4686.64293,0.00276
4685.61267,0.00204
4684.58241,0.00171
4683.55215,0.00182
4682.52189,0.00166
4681.49164,0.00146
4680.46138,0.00175
4679.43112,0.00227
4678.40086,0.00210
4677.37061,0.00191
4676.34035,0.00222
4675.31009,0.00187
4674.27983,0.00135
4673.24957,0.00203
4672.21932,0.00296
4671.18906,0.00255
4670.15880,0.00147
4669.12854,0.00108
4668.09828,0.00149
4667.06803,0.00198
4666.03777,0.00198
4665.00751,0.00186
4663.97725,0.00230
4662.94700,0.00318
4661.91674,0.00373
4660.88648,0.00399
4659.85622,0.00416
4658.82596,0.00379
4657.79571,0.00291
4656.76545,0.00213
4655.73519,0.00206
4654.70493,0.00241
4653.67468,0.00200
4652.64442,0.00110
4651.61416,0.00100
4650.58390,0.00151
4649.55364,0.00205
4648.52339,0.00233
4647.49313,0.00202
4646.46287,0.00119
4645.43261,0.00086
4644.40235,0.00173
4643.37210,0.00255
4642.34184,0.00211
4641.31158,0.00136
4640.28132,0.00123
4639.25107,0.00183
4638.22081,0.00322
4637.19055,0.00441
4636.16029,0.00401
4635.13003,0.00258
4634.09978,0.00198
4633.06952,0.00200
4632.03926,0.00140
4631.00900,0.00086
4629.97874,0.00124
4628.94849,0.00205
4627.91823,0.00275
4626.88797,0.00317
4625.85771,0.00320
4624.82746,0.00299
4623.79720,0.00267
4622.76694,0.00271
4621.73668,0.00286
4620.70642,0.00248
4619.67617,0.00248
4618.64591,0.00309
4617.61565,0.00298
4616.58539,0.00237
4615.55513,0.00174
4614.52488,0.00097
4613.49462,0.00097
4612.46436,0.00163
4611.43410,0.00195
4610.40385,0.00212
4609.37359,0.00210
4608.34333,0.00179
4607.31307,0.00223
4606.28281,0.00283
4605.25256,0.00216
4604.22230,0.00134
4603.19204,0.00140
4602.16178,0.00169
4601.13153,0.00181
4600.10127,0.00201
4599.07101,0.00232
4598.04075,0.00230
4597.01049,0.00191
4595.98024,0.00167
4594.94998,0.00182
4593.91972,0.00211
4592.88946,0.00213
4591.85920,0.00191
4590.82895,0.00172
4589.79869,0.00175
4588.76843,0.00224
4587.73817,0.00280
4586.70792,0.00280
4585.67766,0.00249
4584.64740,0.00227
4583.61714,0.00199
4582.58688,0.00159
4581.55663,0.00118
4580.52637,0.00162
4579.49611,0.00290
4578.46585,0.00357
4577.43559,0.00371
4576.40534,0.00403
4575.37508,0.00406
4574.34482,0.00351
4573.31456,0.00267
4572.28431,0.00220
4571.25405,0.00226
4570.22379,0.00251
4569.19353,0.00299
4568.16327,0.00304
4567.13302,0.00239
4566.10276,0.00218
4565.07250,0.00250
4564.04224,0.00271
4563.01198,0.00279
4561.98173,0.00262
4560.95147,0.00234
4559.92121,0.00215
4558.89095,0.00179
4557.86070,0.00143
4556.83044,0.00136
4555.80018,0.00157
4554.76992,0.00210
4553.73966,0.00262
4552.70941,0.00251
4551.67915,0.00231
4550.64889,0.00255
4549.61863,0.00261
4548.58838,0.00260
4547.55812,0.00277
4546.52786,0.00262
4545.49760,0.00221
4544.46734,0.00222
4543.43709,0.00294
4542.40683,0.00352
4541.37657,0.00304
4540.34631,0.00221
4539.31605,0.00230
4538.28580,0.00324
4537.25554,0.00392
4536.22528,0.00343
4535.19502,0.00246
4534.16477,0.00204
4533.13451,0.00193
4532.10425,0.00215
4531.07399,0.00246
4530.04373,0.00202
4529.01348,0.00119
4527.98322,0.00086
4526.95296,0.00101
4525.92270,0.00151
4524.89244,0.00247
4523.86219,0.00331
4522.83193,0.00344
4521.80167,0.00331
4520.77141,0.00316
4519.74116,0.00279
4518.71090,0.00247
4517.68064,0.00209
4516.65038,0.00167
4515.62012,0.00169
4514.58987,0.00174
4513.55961,0.00176
4512.52935,0.00226
4511.49909,0.00277
4510.46883,0.00256
4509.43858,0.00204
4508.40832,0.00205
4507.37806,0.00272
4506.34780,0.00304
4505.31755,0.00245
4504.28729,0.00200
4503.25703,0.00211
4502.22677,0.00233
4501.19651,0.00202
4500.16626,0.00136
4499.13600,0.00139
4498.10574,0.00150
4497.07548,0.00114
4496.04523,0.00141
4495.01497,0.00212
4493.98471,0.00211
4492.95445,0.00183
4491.92419,0.00194
4490.89394,0.00195
4489.86368,0.00195
4488.83342,0.00214
4487.80316,0.00218
4486.77290,0.00201
4485.74265,0.00179
4484.71239,0.00199
4483.68213,0.00274
4482.65187,0.00327
4481.62162,0.00320
4480.59136,0.00267
4479.56110,0.00211
4478.53084,0.00200
4477.50058,0.00241
4476.47033,0.00308
4475.44007,0.00317
4474.40981,0.00243
4473.37955,0.00206
4472.34929,0.00212
4471.31904,0.00189
4470.28878,0.00205
4469.25852,0.00238
4468.22826,0.00199
4467.19801,0.00179
4466.16775,0.00230
4465.13749,0.00234
4464.10723,0.00212
4463.07697,0.00264
4462.04672,0.00300
4461.01646,0.00255
4459.98620,0.00210
4458.95594,0.00175
4457.92568,0.00131
4456.89543,0.00106
4455.86517,0.00126
4454.83491,0.00186
4453.80465,0.00246
4452.77440,0.00282
4451.74414,0.00301
4450.71388,0.00312
4449.68362,0.00330
4448.65336,0.00339
4447.62311,0.00315
4446.59285,0.00282
4445.56259,0.00288
4444.53233,0.00341
4443.50208,0.00346
4442.47182,0.00260
4441.44156,0.00206
4440.41130,0.00234
4439.38104,0.00286
4438.35079,0.00302
4437.32053,0.00281
4436.29027,0.00287
4435.26001,0.00326
4434.22975,0.00339
4433.19950,0.00297
4432.16924,0.00248
4431.13898,0.00237
4430.10872,0.00222
4429.07847,0.00162
4428.04821,0.00152
4427.01795,0.00240
4425.98769,0.00299
4424.95743,0.00273
4423.92718,0.00207
4422.89692,0.00166
4421.86666,0.00199
4420.83640,0.00281
4419.80614,0.00332
4418.77589,0.00294
4417.74563,0.00271
4416.71537,0.00297
4415.68511,0.00294
4414.65486,0.00290
4413.62460,0.00269
4412.59434,0.00214
4411.56408,0.00193
4410.53382,0.00208
4409.50357,0.00249
4408.47331,0.00312
4407.44305,0.00357
4406.41279,0.00350
4405.38253,0.00302
4404.35228,0.00248
4403.32202,0.00220
4402.29176,0.00239
4401.26150,0.00293
4400.23125,0.00326
4399.20099,0.00269
4398.17073,0.00163
4397.14047,0.00127
4396.11021,0.00156
4395.07996,0.00174
4394.04970,0.00203
4393.01944,0.00233
4391.98918,0.00208
4390.95893,0.00157
4389.92867,0.00146
4388.89841,0.00189
4387.86815,0.00268
4386.83789,0.00317
4385.80764,0.00289
4384.77738,0.00249
4383.74712,0.00231
4382.71686,0.00218
4381.68660,0.00215
4380.65635,0.00229
4379.62609,0.00249
4378.59583,0.00234
4377.56557,0.00188
4376.53532,0.00145
4375.50506,0.00135
4374.47480,0.00173
4373.44454,0.00231
4372.41428,0.00223
4371.38403,0.00140
4370.35377,0.00095
4369.32351,0.00116
4368.29325,0.00204
4367.26299,0.00305
4366.23274,0.00335
4365.20248,0.00312
4364.17222,0.00281
4363.14196,0.00280
4362.11171,0.00298
4361.08145,0.00293
4360.05119,0.00272
4359.02093,0.00279
4357.99067,0.00315
4356.96042,0.00339
4355.93016,0.00337
4354.89990,0.00308
4353.86964,0.00271
4352.83939,0.00235
4351.80913,0.00236
4350.77887,0.00275
4349.74861,0.00290
4348.71835,0.00252
4347.68810,0.00192
4346.65784,0.00166
4345.62758,0.00176
4344.59732,0.00173
4343.56706,0.00193
4342.53681,0.00268
4341.50655,0.00271
4340.47629,0.00183
4339.44603,0.00165
4338.41578,0.00222
4337.38552,0.00251
4336.35526,0.00241
4335.32500,0.00239
4334.29474,0.00254
4333.26449,0.00244
4332.23423,0.00231
4331.20397,0.00242
4330.17371,0.00217
4329.14345,0.00163
4328.11320,0.00188
4327.08294,0.00258
4326.05268,0.00230
4325.02242,0.00162
4323.99217,0.00170
4322.96191,0.00195
4321.93165,0.00210
4320.90139,0.00263
4319.87113,0.00329
4318.84088,0.00339
4317.81062,0.00275
4316.78036,0.00233
4315.75010,0.00244
4314.71984,0.00241
4313.68959,0.00219
4312.65933,0.00198
4311.62907,0.00204
4310.59881,0.00255
4309.56856,0.00292
4308.53830,0.00286
4307.50804,0.00278
4306.47778,0.00275
4305.44752,0.00252
4304.41727,0.00250
4303.38701,0.00287
4302.35675,0.00306
4301.32649,0.00301
4300.29624,0.00275
4299.26598,0.00225
4298.23572,0.00208
4297.20546,0.00250
4296.17520,0.00301
4295.14495,0.00313
4294.11469,0.00288
4293.08443,0.00247
4292.05417,0.00259
4291.02391,0.00283
4289.99366,0.00240
4288.96340,0.00249
4287.93314,0.00326
4286.90288,0.00334
4285.87263,0.00264
4284.84237,0.00200
4283.81211,0.00189
4282.78185,0.00227
4281.75159,0.00276
4280.72134,0.00281
4279.69108,0.00240
4278.66082,0.00203
4277.63056,0.00159
4276.60030,0.00136
4275.57005,0.00211
4274.53979,0.00288
4273.50953,0.00268
4272.47927,0.00237
4271.44902,0.00282
4270.41876,0.00328
4269.38850,0.00299
4268.35824,0.00263
4267.32798,0.00235
4266.29773,0.00185
4265.26747,0.00163
4264.23721,0.00194
4263.20695,0.00258
4262.17669,0.00304
4261.14644,0.00286
4260.11618,0.00236
4259.08592,0.00216
4258.05566,0.00219
4257.02541,0.00239
4255.99515,0.00306
4254.96489,0.00358
4253.93463,0.00324
4252.90437,0.00251
4251.87412,0.00186
4250.84386,0.00163
4249.81360,0.00184
4248.78334,0.00189
4247.75309,0.00185
4246.72283,0.00198
4245.69257,0.00207
4244.66231,0.00255
4243.63205,0.00330
4242.60180,0.00341
4241.57154,0.00281
4240.54128,0.00208
4239.51102,0.00177
4238.48076,0.00196
4237.45051,0.00244
4236.42025,0.00294
4235.38999,0.00308
4234.35973,0.00280
4233.32948,0.00254
4232.29922,0.00264
4231.26896,0.00279
4230.23870,0.00274
4229.20844,0.00300
4228.17819,0.00360
4227.14793,0.00380
4226.11767,0.00340
4225.08741,0.00280
4224.05715,0.00268
4223.02690,0.00317
4221.99664,0.00352
4220.96638,0.00328
4219.93612,0.00305
4218.90587,0.00351
4217.87561,0.00383
4216.84535,0.00320
4215.81509,0.00273
4214.78483,0.00296
4213.75458,0.00302
4212.72432,0.00278
4211.69406,0.00280
4210.66380,0.00295
4209.63354,0.00283
4208.60329,0.00287
4207.57303,0.00339
4206.54277,0.00384
4205.51251,0.00370
4204.48226,0.00288
4203.45200,0.00202
4202.42174,0.00223
4201.39148,0.00338
4200.36122,0.00411
4199.33097,0.00398
4198.30071,0.00364
4197.27045,0.00332
4196.24019,0.00271
4195.20994,0.00192
4194.17968,0.00179
4193.14942,0.00236
4192.11916,0.00292
4191.08890,0.00324
4190.05865,0.00319
4189.02839,0.00286
4187.99813,0.00287
4186.96787,0.00309
4185.93761,0.00297
4184.90736,0.00274
4183.87710,0.00279
4182.84684,0.00302
4181.81658,0.00327
4180.78633,0.00330
4179.75607,0.00294
4178.72581,0.00249
4177.69555,0.00242
4176.66529,0.00272
4175.63504,0.00290
4174.60478,0.00287
4173.57452,0.00290
4172.54426,0.00288
4171.51400,0.00274
4170.48375,0.00264
4169.45349,0.00252
4168.42323,0.00262
4167.39297,0.00283
4166.36272,0.00297
4165.33246,0.00324
4164.30220,0.00341
4163.27194,0.00338
4162.24168,0.00336
4161.21143,0.00317
4160.18117,0.00300
4159.15091,0.00336
4158.12065,0.00376
4157.09039,0.00376
4156.06014,0.00380
4155.02988,0.00377
4153.99962,0.00363
4152.96936,0.00362
4151.93911,0.00366
4150.90885,0.00379
4149.87859,0.00381
4148.84833,0.00334
4147.81807,0.00291
4146.78782,0.00311
4145.75756,0.00362
4144.72730,0.00387
4143.69704,0.00355
4142.66679,0.00293
4141.63653,0.00262
4140.60627,0.00287
4139.57601,0.00316
4138.54575,0.00325
4137.51550,0.00348
4136.48524,0.00350
4135.45498,0.00292
4134.42472,0.00254
4133.39446,0.00294
4132.36421,0.00343
4131.33395,0.00362
4130.30369,0.00383
4129.27343,0.00379
4128.24318,0.00321
4127.21292,0.00287
4126.18266,0.00329
4125.15240,0.00370
4124.12214,0.00359
4123.09189,0.00333
4122.06163,0.00302
4121.03137,0.00274
4120.00111,0.00283
4118.97085,0.00322
4117.94060,0.00330
4116.91034,0.00305
4115.88008,0.00295
4114.84982,0.00292
4113.81957,0.00301
4112.78931,0.00351
4111.75905,0.00401
4110.72879,0.00414
4109.69853,0.00419
4108.66828,0.00421
4107.63802,0.00395
4106.60776,0.00365
4105.57750,0.00365
4104.54724,0.00376
4103.51699,0.00376
4102.48673,0.00372
4101.45647,0.00375
4100.42621,0.00379
4099.39596,0.00385
4098.36570,0.00396
4097.33544,0.00383
4096.30518,0.00354
4095.27492,0.00328
4094.24467,0.00314
4093.21441,0.00332
4092.18415,0.00346
4091.15389,0.00328
4090.12364,0.00322
4089.09338,0.00344
4088.06312,0.00325
4087.03286,0.00273
4086.00260,0.00285
4084.97235,0.00342
4083.94209,0.00371
4082.91183,0.00368
4081.88157,0.00356
4080.85131,0.00339
4079.82106,0.00349
4078.79080,0.00393
4077.76054,0.00421
4076.73028,0.00408
4075.70003,0.00387
4074.66977,0.00384
4073.63951,0.00378
4072.60925,0.00376
4071.57899,0.00393
4070.54874,0.00402
4069.51848,0.00389
4068.48822,0.00396
4067.45796,0.00426
4066.42770,0.00441
4065.39745,0.00430
4064.36719,0.00418
4063.33693,0.00430
4062.30667,0.00409
4061.27642,0.00347
4060.24616,0.00319
4059.21590,0.00329
4058.18564,0.00343
4057.15538,0.00346
4056.12513,0.00374
4055.09487,0.00433
4054.06461,0.00473
4053.03435,0.00482
4052.00409,0.00472
4050.97384,0.00453
4049.94358,0.00420
4048.91332,0.00395
4047.88306,0.00374
4046.85281,0.00327
4045.82255,0.00328
4044.79229,0.00386
4043.76203,0.00405
4042.73177,0.00383
4041.70152,0.00365
4040.67126,0.00366
4039.64100,0.00385
4038.61074,0.00385
4037.58049,0.00359
4036.55023,0.00349
4035.51997,0.00339
4034.48971,0.00309
4033.45945,0.00305
4032.42920,0.00356
4031.39894,0.00412
4030.36868,0.00429
4029.33842,0.00410
4028.30816,0.00355
4027.27791,0.00308
4026.24765,0.00331
4025.21739,0.00388
4024.18713,0.00406
4023.15688,0.00389
4022.12662,0.00383
4021.09636,0.00390
4020.06610,0.00379
4019.03584,0.00354
4018.00559,0.00340
4016.97533,0.00347
4015.94507,0.00401
4014.91481,0.00469
4013.88455,0.00469
4012.85430,0.00426
4011.82404,0.00415
4010.79378,0.00419
4009.76352,0.00420
4008.73327,0.00439
4007.70301,0.00451
4006.67275,0.00436
4005.64249,0.00432
4004.61223,0.00449
4003.58198,0.00417
4002.55172,0.00373
4001.52146,0.00400
4000.49120,0.00407
3999.46095,0.00373
3998.43069,0.00371
3997.40043,0.00396
3996.37017,0.00453
3995.33991,0.00489
3994.30966,0.00438
3993.27940,0.00374
3992.24914,0.00364
3991.21888,0.00376
3990.18862,0.00379
3989.15837,0.00374
3988.12811,0.00362
3987.09785,0.00350
3986.06759,0.00359
3985.03734,0.00399
3984.00708,0.00437
3982.97682,0.00420
3981.94656,0.00373
3980.91630,0.00356
3979.88605,0.00359
3978.85579,0.00360
3977.82553,0.00387
3976.79527,0.00455
3975.76501,0.00488
3974.73476,0.00450
3973.70450,0.00407
3972.67424,0.00363
3971.64398,0.00308
3970.61373,0.00300
3969.58347,0.00330
3968.55321,0.00368
3967.52295,0.00424
3966.49269,0.00452
3965.46244,0.00419
3964.43218,0.00395
3963.40192,0.00425
3962.37166,0.00459
3961.34140,0.00451
3960.31115,0.00411
3959.28089,0.00406
3958.25063,0.00458
3957.22037,0.00488
3956.19012,0.00468
3955.15986,0.00447
3954.12960,0.00428
3953.09934,0.00412
3952.06908,0.00417
3951.03883,0.00413
3950.00857,0.00396
3948.97831,0.00390
3947.94805,0.00389
3946.91780,0.00396
3945.88754,0.00400
3944.85728,0.00387
3943.82702,0.00382
3942.79676,0.00419
3941.76651,0.00480
3940.73625,0.00491
3939.70599,0.00446
3938.67573,0.00411
3937.64547,0.00398
3936.61522,0.00388
3935.58496,0.00395
3934.55470,0.00401
3933.52444,0.00373
3932.49419,0.00368
3931.46393,0.00425
3930.43367,0.00462
3929.40341,0.00432
3928.37315,0.00384
3927.34290,0.00375
3926.31264,0.00417
3925.28238,0.00454
3924.25212,0.00443
3923.22186,0.00424
3922.19161,0.00423
3921.16135,0.00437
3920.13109,0.00472
3919.10083,0.00489
3918.07058,0.00474
3917.04032,0.00467
3916.01006,0.00463
3914.97980,0.00440
3913.94954,0.00405
3912.91929,0.00366
3911.88903,0.00337
3910.85877,0.00337
3909.82851,0.00358
3908.79825,0.00372
3907.76800,0.00374
3906.73774,0.00376
3905.70748,0.00379
3904.67722,0.00368
3903.64697,0.00363
3902.61671,0.00398
3901.58645,0.00435
3900.55619,0.00425
3899.52593,0.00440
3898.49568,0.00488
3897.46542,0.00491
3896.43516,0.00466
3895.40490,0.00440
3894.37465,0.00415
3893.34439,0.00381
3892.31413,0.00325
3891.28387,0.00278
3890.25361,0.00298
3889.22336,0.00339
3888.19310,0.00337
3887.16284,0.00344
3886.13258,0.00395
3885.10232,0.00466
3884.07207,0.00512
3883.04181,0.00486
3882.01155,0.00424
3880.98129,0.00394
3879.95104,0.00415
3878.92078,0.00442
3877.89052,0.00431
3876.86026,0.00400
3875.83000,0.00389
3874.79975,0.00407
3873.76949,0.00426
3872.73923,0.00435
3871.70897,0.00446
3870.67871,0.00453
3869.64846,0.00431
3868.61820,0.00434
3867.58794,0.00482
3866.55768,0.00483
3865.52743,0.00423
3864.49717,0.00413
3863.46691,0.00444
3862.43665,0.00427
3861.40639,0.00383
3860.37614,0.00357
3859.34588,0.00345
3858.31562,0.00376
3857.28536,0.00441
3856.25510,0.00436
3855.22485,0.00393
3854.19459,0.00432
3853.16433,0.00507
3852.13407,0.00549
3851.10382,0.00578
3850.07356,0.00531
3849.04330,0.00458
3848.01304,0.00445
3846.98278,0.00476
3845.95253,0.00491
3844.92227,0.00453
3843.89201,0.00384
3842.86175,0.00352
3841.83150,0.00370
3840.80124,0.00386
3839.77098,0.00387
3838.74072,0.00434
3837.71046,0.00486
3836.68021,0.00482
3835.64995,0.00483
3834.61969,0.00494
3833.58943,0.00457
3832.55917,0.00382
3831.52892,0.00328
3830.49866,0.00326
3829.46840,0.00370
3828.43814,0.00447
3827.40789,0.00499
3826.37763,0.00478
3825.34737,0.00423
3824.31711,0.00383
3823.28685,0.00365
3822.25660,0.00374
3821.22634,0.00445
3820.19608,0.00497
3819.16582,0.00459
3818.13556,0.00448
3817.10531,0.00488
3816.07505,0.00508
3815.04479,0.00488
3814.01453,0.00471
3812.98428,0.00459
3811.95402,0.00446
3810.92376,0.00449
3809.89350,0.00480
3808.86324,0.00503
3807.83299,0.00471
3806.80273,0.00396
3805.77247,0.00399
3804.74221,0.00469
3803.71195,0.00510
3802.68170,0.00521
3801.65144,0.00504
3800.62118,0.00424
3799.59092,0.00386
3798.56067,0.00423
3797.53041,0.00459
3796.50015,0.00476
3795.46989,0.00510
3794.43963,0.00534
3793.40938,0.00514
3792.37912,0.00470
3791.34886,0.00472
3790.31860,0.00536
3789.28835,0.00553
3788.25809,0.00486
3787.22783,0.00468
3786.19757,0.00532
3785.16731,0.00547
3784.13706,0.00488
3783.10680,0.00460
3782.07654,0.00487
3781.04628,0.00508
3780.01602,0.00532
3778.98577,0.00584
3777.95551,0.00620
3776.92525,0.00614
3775.89499,0.00566
3774.86474,0.00521
3773.83448,0.00510
3772.80422,0.00524
3771.77396,0.00537
3770.74370,0.00504
3769.71345,0.00483
3768.68319,0.00530
3767.65293,0.00563
3766.62267,0.00561
3765.59241,0.00547
3764.56216,0.00533
3763.53190,0.00551
3762.50164,0.00623
3761.47138,0.00684
3760.44113,0.00682
3759.41087,0.00658
3758.38061,0.00652
3757.35035,0.00654
3756.32009,0.00647
3755.28984,0.00598
3754.25958,0.00542
3753.22932,0.00531
3752.19906,0.00572
3751.16880,0.00661
3750.13855,0.00740
3749.10829,0.00768
3748.07803,0.00732
3747.04777,0.00674
3746.01752,0.00664
3744.98726,0.00743
3743.95700,0.00781
3742.92674,0.00715
3741.89648,0.00704
3740.86623,0.00743
3739.83597,0.00763
3738.80571,0.00764
3737.77545,0.00777
3736.74520,0.00770
3735.71494,0.00724
3734.68468,0.00714
3733.65442,0.00749
3732.62416,0.00758
3731.59391,0.00726
3730.56365,0.00696
3729.53339,0.00682
3728.50313,0.00705
3727.47287,0.00756
3726.44262,0.00769
3725.41236,0.00746
3724.38210,0.00721
3723.35184,0.00697
3722.32159,0.00723
3721.29133,0.00803
3720.26107,0.00867
3719.23081,0.00915
3718.20055,0.00956
3717.17030,0.00988
3716.14004,0.01027
3715.10978,0.01042
3714.07952,0.01043
3713.04926,0.01053
3712.01901,0.01026
3710.98875,0.00969
3709.95849,0.00940
3708.92823,0.00948
3707.89798,0.00999
3706.86772,0.01086
3705.83746,0.01146
3704.80720,0.01132
3703.77694,0.01088
3702.74669,0.01091
3701.71643,0.01161
3700.68617,0.01228
3699.65591,0.01228
3698.62565,0.01210
3697.59540,0.01249
3696.56514,0.01322
3695.53488,0.01357
3694.50462,0.01342
3693.47437,0.01327
3692.44411,0.01339
3691.41385,0.01381
3690.38359,0.01472
3689.35333,0.01571
3688.32308,0.01632
3687.29282,0.01681
3686.26256,0.01726
3685.23230,0.01763
3684.20205,0.01802
3683.17179,0.01853
3682.14153,0.01919
3681.11127,0.01973
3680.08101,0.02022
3679.05076,0.02085
3678.02050,0.02161
3676.99024,0.02277
3675.95998,0.02422
3674.92972,0.02474
3673.89947,0.02479
3672.86921,0.02499
3671.83895,0.02480
3670.80869,0.02484
3669.77844,0.02628
3668.74818,0.02831
3667.71792,0.02965
3666.68766,0.03013
3665.65740,0.03042
3664.62715,0.03130
3663.59689,0.03275
3662.56663,0.03393
3661.53637,0.03451
3660.50611,0.03505
3659.47586,0.03582
3658.44560,0.03647
3657.41534,0.03731
3656.38508,0.03850
3655.35483,0.03934
3654.32457,0.04016
3653.29431,0.04153
3652.26405,0.04277
3651.23379,0.04341
3650.20354,0.04396
3649.17328,0.04461
3648.14302,0.04535
3647.11276,0.04654
3646.08250,0.04767
3645.05225,0.04798
3644.02199,0.04842
3642.99173,0.04956
3641.96147,0.05056
3640.93122,0.05137
3639.90096,0.05247
3638.87070,0.05352
3637.84044,0.05430
3636.81018,0.05504
3635.77993,0.05584
3634.74967,0.05686
3633.71941,0.05805
3632.68915,0.05906
3631.65890,0.06003
3630.62864,0.06128
3629.59838,0.06225
3628.56812,0.06217
3627.53786,0.06246
3626.50761,0.06351
3625.47735,0.06422
3624.44709,0.06470
3623.41683,0.06566
3622.38657,0.06672
3621.35632,0.06742
3620.32606,0.06826
3619.29580,0.06923
3618.26554,0.06988
3617.23529,0.07074
3616.20503,0.07177
3615.17477,0.07233
3614.14451,0.07242
3613.11425,0.07272
3612.08400,0.07361
3611.05374,0.07466
3610.02348,0.07555
3608.99322,0.07632
3607.96296,0.07713
3606.93271,0.07836
3605.90245,0.07984
3604.87219,0.08083
3603.84193,0.08135
3602.81168,0.08190
3601.78142,0.08246
3600.75116,0.08291
3599.72090,0.08371
3598.69064,0.08472
3597.66039,0.08550
3596.63013,0.08652
3595.59987,0.08765
3594.56961,0.08842
3593.53936,0.08909
3592.50910,0.08987
3591.47884,0.09068
3590.44858,0.09149
3589.41832,0.09261
3588.38807,0.09398
3587.35781,0.09475
3586.32755,0.09529
3585.29729,0.09600
3584.26703,0.09659
3583.23678,0.09731
3582.20652,0.09829
3581.17626,0.09945
3580.14600,0.10074
3579.11575,0.10197
3578.08549,0.10295
3577.05523,0.10389
3576.02497,0.10498
3574.99471,0.10583
3573.96446,0.10631
3572.93420,0.10714
3571.90394,0.10846
3570.87368,0.10970
3569.84342,0.11087
3568.81317,0.11232
3567.78291,0.11339
3566.75265,0.11351
3565.72239,0.11388
3564.69214,0.11508
3563.66188,0.11619
3562.63162,0.11737
3561.60136,0.11918
3560.57110,0.12077
3559.54085,0.12137
3558.51059,0.12132
3557.48033,0.12151
3556.45007,0.12263
3555.41981,0.12451
3554.38956,0.12618
3553.35930,0.12693
3552.32904,0.12724
3551.29878,0.12785
3550.26853,0.12873
3549.23827,0.12997
3548.20801,0.13151
3547.17775,0.13264
3546.14749,0.13344
3545.11724,0.13443
3544.08698,0.13566
3543.05672,0.13703
3542.02646,0.13818
3540.99621,0.13896
3539.96595,0.13988
3538.93569,0.14112
3537.90543,0.14267
3536.87517,0.14440
3535.84492,0.14559
3534.81466,0.14632
3533.78440,0.14705
3532.75414,0.14771
3531.72388,0.14856
3530.69363,0.14969
3529.66337,0.15093
3528.63311,0.15236
3527.60285,0.15377
3526.57260,0.15531
3525.54234,0.15712
3524.51208,0.15830
3523.48182,0.15862
3522.45156,0.15915
3521.42131,0.16030
3520.39105,0.16161
3519.36079,0.16310
3518.33053,0.16474
3517.30027,0.16610
3516.27002,0.16720
3515.23976,0.16812
3514.20950,0.16879
3513.17924,0.16929
3512.14899,0.17002
3511.11873,0.17156
3510.08847,0.17372
3509.05821,0.17547
3508.02795,0.17665
3506.99770,0.17769
3505.96744,0.17828
3504.93718,0.17867
3503.90692,0.17961
3502.87666,0.18080
3501.84641,0.18192
3500.81615,0.18342
3499.78589,0.18540
3498.75563,0.18673
3497.72538,0.18718
3496.69512,0.18786
3495.66486,0.18899
3494.63460,0.19032
3493.60434,0.19139
3492.57409,0.19206
3491.54383,0.19326
3490.51357,0.19497
3489.48331,0.19611
3488.45306,0.19700
3487.42280,0.19843
3486.39254,0.20004
3485.36228,0.20140
3484.33202,0.20236
3483.30177,0.20331
3482.27151,0.20493
3481.24125,0.20648
3480.21099,0.20731
3479.18073,0.20800
3478.15048,0.20876
3477.12022,0.20940
3476.08996,0.21019
3475.05970,0.21134
3474.02945,0.21285
3472.99919,0.21459
3471.96893,0.21614
3470.93867,0.21733
3469.90841,0.21847
3468.87816,0.21960
3467.84790,0.22097
3466.81764,0.22262
3465.78738,0.22369
3464.75712,0.22446
3463.72687,0.22567
3462.69661,0.22680
3461.66635,0.22764
3460.63609,0.22859
3459.60584,0.22991
3458.57558,0.23183
3457.54532,0.23397
3456.51506,0.23529
3455.48480,0.23557
3454.45455,0.23635
3453.42429,0.23820
3452.39403,0.23974
3451.36377,0.24056
3450.33351,0.24158
3449.30326,0.24314
3448.27300,0.24473
3447.24274,0.24601
3446.21248,0.24715
3445.18223,0.24835
3444.15197,0.24958
3443.12171,0.25078
3442.09145,0.25237
3441.06119,0.25384
3440.03094,0.25417
3439.00068,0.25414
3437.97042,0.25521
3436.94016,0.25700
3435.90991,0.25836
3434.87965,0.25955
3433.84939,0.26110
3432.81913,0.26258
3431.78887,0.26346
3430.75862,0.26425
3429.72836,0.26574
3428.69810,0.26747
3427.66784,0.26883
3426.63758,0.27004
3425.60733,0.27144
3424.57707,0.27283
3423.54681,0.27398
3422.51655,0.27533
3421.48630,0.27655
3420.45604,0.27735
3419.42578,0.27871
3418.39552,0.28046
3417.36526,0.28146
3416.33501,0.28165
3415.30475,0.28219
3414.27449,0.28329
3413.24423,0.28449
3412.21397,0.28612
3411.18372,0.28762
3410.15346,0.28841
3409.12320,0.28905
3408.09294,0.28993
3407.06269,0.29107
3406.03243,0.29230
3405.00217,0.29329
3403.97191,0.29400
3402.94165,0.29479
3401.91140,0.29576
3400.88114,0.29666
3399.85088,0.29743
3398.82062,0.29833
3397.79036,0.29954
3396.76011,0.30072
3395.72985,0.30162
3394.69959,0.30245
3393.66933,0.30364
3392.63908,0.30480
3391.60882,0.30546
3390.57856,0.30632
3389.54830,0.30759
3388.51804,0.30851
3387.48779,0.30902
3386.45753,0.30999
3385.42727,0.31103
3384.39701,0.31136
3383.36676,0.31165
3382.33650,0.31244
3381.30624,0.31346
3380.27598,0.31419
3379.24572,0.31453
3378.21547,0.31502
3377.18521,0.31578
3376.15495,0.31660
3375.12469,0.31731
3374.09443,0.31774
3373.06418,0.31822
3372.03392,0.31875
3371.00366,0.31900
3369.97340,0.31925
3368.94315,0.31968
3367.91289,0.32016
3366.88263,0.32075
3365.85237,0.32177
3364.82211,0.32301
3363.79186,0.32381
3362.76160,0.32433
3361.73134,0.32477
3360.70108,0.32472
3359.67082,0.32456
3358.64057,0.32505
3357.61031,0.32590
3356.58005,0.32615
3355.54979,0.32605
3354.51954,0.32662
3353.48928,0.32762
3352.45902,0.32811
3351.42876,0.32810
3350.39850,0.32838
3349.36825,0.32902
3348.33799,0.32955
3347.30773,0.32992
3346.27747,0.33024
3345.24721,0.33035
3344.21696,0.33035
3343.18670,0.33034
3342.15644,0.32992
3341.12618,0.32946
3340.09593,0.32955
3339.06567,0.32998
3338.03541,0.33010
3337.00515,0.32972
3335.97489,0.32980
3334.94464,0.33066
3333.91438,0.33101
3332.88412,0.33070
3331.85386,0.33123
3330.82361,0.33242
3329.79335,0.33258
3328.76309,0.33206
3327.73283,0.33227
3326.70257,0.33260
3325.67232,0.33227
3324.64206,0.33185
3323.61180,0.33191
3322.58154,0.33238
3321.55128,0.33301
3320.52103,0.33340
3319.49077,0.33322
3318.46051,0.33330
3317.43025,0.33376
3316.40000,0.33388
3315.36974,0.33375
3314.33948,0.33360
3313.30922,0.33317
3312.27896,0.33298
3311.24871,0.33373
3310.21845,0.33423
3309.18819,0.33365
3308.15793,0.33309
3307.12767,0.33297
3306.09742,0.33307
3305.06716,0.33379
3304.03690,0.33479
3303.00664,0.33511
3301.97639,0.33477
3300.94613,0.33453
3299.91587,0.33497
3298.88561,0.33554
3297.85535,0.33556
3296.82510,0.33533
3295.79484,0.33510
3294.76458,0.33472
3293.73432,0.33462
3292.70406,0.33483
3291.67381,0.33498
3290.64355,0.33556
3289.61329,0.33635
3288.58303,0.33667
3287.55278,0.33670
3286.52252,0.33650
3285.49226,0.33618
3284.46200,0.33599
3283.43174,0.33553
3282.40149,0.33491
3281.37123,0.33502
3280.34097,0.33570
3279.31071,0.33636
3278.28046,0.33670
3277.25020,0.33626
3276.21994,0.33567
3275.18968,0.33615
3274.15942,0.33691
3273.12917,0.33670
3272.09891,0.33600
3271.06865,0.33563
3270.03839,0.33568
3269.00813,0.33630
3267.97788,0.33734
3266.94762,0.33799
3265.91736,0.33828
3264.88710,0.33850
3263.85685,0.33794
3262.82659,0.33710
3261.79633,0.33744
3260.76607,0.33807
3259.73581,0.33752
3258.70556,0.33641
3257.67530,0.33572
3256.64504,0.33551
3255.61478,0.33551
3254.58452,0.33565
3253.55427,0.33608
3252.52401,0.33664
3251.49375,0.33692
3250.46349,0.33692
3249.43324,0.33634
3248.40298,0.33503
3247.37272,0.33418
3246.34246,0.33394
3245.31220,0.33366
3244.28195,0.33361
3243.25169,0.33385
3242.22143,0.33395
3241.19117,0.33393
3240.16092,0.33427
3239.13066,0.33464
3238.10040,0.33428
3237.07014,0.33347
3236.03988,0.33308
3235.00963,0.33289
3233.97937,0.33228
3232.94911,0.33182
3231.91885,0.33181
3230.88859,0.33198
3229.85834,0.33199
3228.82808,0.33168
3227.79782,0.33129
3226.76756,0.33074
3225.73731,0.33042
3224.70705,0.33042
3223.67679,0.32969
3222.64653,0.32852
3221.61627,0.32824
3220.58602,0.32838
3219.55576,0.32755
3218.52550,0.32634
3217.49524,0.32561
3216.46498,0.32500
3215.43473,0.32447
3214.40447,0.32356
3213.37421,0.32222
3212.34395,0.32133
3211.31370,0.32083
3210.28344,0.32032
3209.25318,0.31982
3208.22292,0.31922
3207.19266,0.31857
3206.16241,0.31767
3205.13215,0.31643
3204.10189,0.31591
3203.07163,0.31586
3202.04137,0.31496
3201.01112,0.31372
3199.98086,0.31307
3198.95060,0.31283
3197.92034,0.31230
3196.89009,0.31115
3195.85983,0.30991
3194.82957,0.30855
3193.79931,0.30670
3192.76905,0.30525
3191.73880,0.30465
3190.70854,0.30417
3189.67828,0.30339
3188.64802,0.30248
3187.61777,0.30174
3186.58751,0.30067
3185.55725,0.29901
3184.52699,0.29792
3183.49673,0.29729
3182.46648,0.29613
3181.43622,0.29471
3180.40596,0.29360
3179.37570,0.29281
3178.34544,0.29177
3177.31519,0.29014
3176.28493,0.28866
3175.25467,0.28791
3174.22441,0.28717
3173.19416,0.28568
3172.16390,0.28405
3171.13364,0.28279
3170.10338,0.28141
3169.07312,0.27976
3168.04287,0.27821
3167.01261,0.27707
3165.98235,0.27645
3164.95209,0.27583
3163.92183,0.27475
3162.89158,0.27336
3161.86132,0.27173
3160.83106,0.26985
3159.80080,0.26831
3158.77055,0.26752
3157.74029,0.26701
3156.71003,0.26594
3155.67977,0.26434
3154.64951,0.26268
3153.61926,0.26092
3152.58900,0.25915
3151.55874,0.25773
3150.52848,0.25681
3149.49822,0.25600
3148.46797,0.25486
3147.43771,0.25382
3146.40745,0.25312
3145.37719,0.25181
3144.34694,0.24984
3143.31668,0.24826
3142.28642,0.24717
3141.25616,0.24628
3140.22590,0.24518
3139.19565,0.24340
3138.16539,0.24173
3137.13513,0.24065
3136.10487,0.23936
3135.07462,0.23763
3134.04436,0.23588
3133.01410,0.23437
3131.98384,0.23314
3130.95358,0.23187
3129.92333,0.23040
3128.89307,0.22933
3127.86281,0.22861
3126.83255,0.22727
3125.80229,0.22549
3124.77204,0.22424
3123.74178,0.22342
3122.71152,0.22229
3121.68126,0.22064
3120.65101,0.21876
3119.62075,0.21699
3118.59049,0.21588
3117.56023,0.21539
3116.52997,0.21453
3115.49972,0.21310
3114.46946,0.21183
3113.43920,0.21094
3112.40894,0.20978
3111.37868,0.20798
3110.34843,0.20603
3109.31817,0.20420
3108.28791,0.20270
3107.25765,0.20181
3106.22740,0.20144
3105.19714,0.20103
3104.16688,0.19993
3103.13662,0.19844
3102.10636,0.19717
3101.07611,0.19588
3100.04585,0.19447
3099.01559,0.19329
3097.98533,0.19222
3096.95507,0.19109
3095.92482,0.19005
3094.89456,0.18884
3093.86430,0.18742
3092.83404,0.18614
3091.80379,0.18482
3090.77353,0.18339
3089.74327,0.18237
3088.71301,0.18150
3087.68275,0.18022
3086.65250,0.17924
3085.62224,0.17864
3084.59198,0.17755
3083.56172,0.17625
3082.53147,0.17528
3081.50121,0.17443
3080.47095,0.17321
3079.44069,0.17176
3078.41043,0.17060
3077.38018,0.16960
3076.34992,0.16853
3075.31966,0.16759
3074.28940,0.16660
3073.25914,0.16540
3072.22889,0.16447
3071.19863,0.16381
3070.16837,0.16283
3069.13811,0.16175
3068.10786,0.16090
3067.07760,0.15978
3066.04734,0.15831
3065.01708,0.15717
3063.98682,0.15642
3062.95657,0.15526
3061.92631,0.15377
3060.89605,0.15274
3059.86579,0.15222
3058.83553,0.15167
3057.80528,0.15081
3056.77502,0.14988
3055.74476,0.14876
3054.71450,0.14737
3053.68425,0.14645
3052.65399,0.14612
3051.62373,0.14571
3050.59347,0.14494
3049.56321,0.14376
3048.53296,0.14219
3047.50270,0.14083
3046.47244,0.14009
3045.44218,0.13974
3044.41192,0.13931
3043.38167,0.13854
3042.35141,0.13762
3041.32115,0.13680
3040.29089,0.13605
3039.26064,0.13509
3038.23038,0.13400
3037.20012,0.13305
3036.16986,0.13217
3035.13960,0.13123
3034.10935,0.13063
3033.07909,0.13050
3032.04883,0.13010
3031.01857,0.12909
3029.98832,0.12795
3028.95806,0.12703
3027.92780,0.12609
3026.89754,0.12481
3025.86728,0.12365
3024.83703,0.12326
3023.80677,0.12305
3022.77651,0.12218
3021.74625,0.12103
3020.71599,0.12011
3019.68574,0.11940
3018.65548,0.11900
3017.62522,0.11871
3016.59496,0.11780
3015.56471,0.11623
3014.53445,0.11482
3013.50419,0.11396
3012.47393,0.11342
3011.44367,0.11269
3010.41342,0.11159
3009.38316,0.11071
3008.35290,0.11047
3007.32264,0.11040
3006.29238,0.10980
3005.26213,0.10835
3004.23187,0.10656
3003.20161,0.10552
3002.17135,0.10534
3001.14110,0.10524
3000.11084,0.10500
2999.08058,0.10443
2998.05032,0.10336
2997.02006,0.10246
2995.98981,0.10183
2994.95955,0.10101
2993.92929,0.10000
2992.89903,0.09907
2991.86877,0.09855
2990.83852,0.09823
2989.80826,0.09758
2988.77800,0.09677
2987.74774,0.09616
2986.71749,0.09577
2985.68723,0.09556
2984.65697,0.09525
2983.62671,0.09461
2982.59645,0.09390
2981.56620,0.09314
2980.53594,0.09226
2979.50568,0.09162
2978.47542,0.09141
2977.44517,0.09125
2976.41491,0.09066
2975.38465,0.08973
2974.35439,0.08892
2973.32413,0.08838
2972.29388,0.08809
2971.26362,0.08794
2970.23336,0.08761
2969.20310,0.08713
2968.17284,0.08669
2967.14259,0.08629
2966.11233,0.08582
2965.08207,0.08532
2964.05181,0.08492
2963.02156,0.08453
2961.99130,0.08390
2960.96104,0.08298
2959.93078,0.08216
2958.90052,0.08159
2957.87027,0.08089
2956.84001,0.08010
2955.80975,0.07939
2954.77949,0.07873
2953.74923,0.07820
2952.71898,0.07786
2951.68872,0.07751
2950.65846,0.07694
2949.62820,0.07625
2948.59795,0.07556
2947.56769,0.07505
2946.53743,0.07453
2945.50717,0.07367
2944.47691,0.07283
2943.44666,0.07241
2942.41640,0.07216
2941.38614,0.07163
2940.35588,0.07095
2939.32562,0.07055
2938.29537,0.07015
2937.26511,0.06933
2936.23485,0.06841
2935.20459,0.06779
2934.17434,0.06753
2933.14408,0.06724
2932.11382,0.06661
2931.08356,0.06619
2930.05330,0.06601
2929.02305,0.06551
2927.99279,0.06499
2926.96253,0.06475
2925.93227,0.06451
2924.90202,0.06389
2923.87176,0.06315
2922.84150,0.06292
2921.81124,0.06281
2920.78098,0.06226
2919.75073,0.06147
2918.72047,0.06081
2917.69021,0.06050
2916.65995,0.06021
2915.62969,0.05964
2914.59944,0.05925
2913.56918,0.05920
2912.53892,0.05886
2911.50866,0.05813
2910.47841,0.05747
2909.44815,0.05707
2908.41789,0.05673
2907.38763,0.05631
2906.35737,0.05593
2905.32712,0.05554
2904.29686,0.05505
2903.26660,0.05464
2902.23634,0.05429
2901.20608,0.05378
2900.17583,0.05338
2899.14557,0.05323
2898.11531,0.05291
2897.08505,0.05255
2896.05480,0.05238
2895.02454,0.05224
2893.99428,0.05194
2892.96402,0.05149
2891.93376,0.05107
2890.90351,0.05063
2889.87325,0.05000
2888.84299,0.04940
2887.81273,0.04898
2886.78247,0.04861
2885.75222,0.04829
2884.72196,0.04810
2883.69170,0.04784
2882.66144,0.04745
2881.63119,0.04725
2880.60093,0.04706
2879.57067,0.04658
2878.54041,0.04608
2877.51015,0.04577
2876.47990,0.04556
2875.44964,0.04516
2874.41938,0.04454
2873.38912,0.04423
2872.35887,0.04448
2871.32861,0.04453
2870.29835,0.04369
2869.26809,0.04272
2868.23783,0.04251
2867.20758,0.04271
2866.17732,0.04259
2865.14706,0.04211
2864.11680,0.04179
2863.08654,0.04172
2862.05629,0.04157
2861.02603,0.04109
2859.99577,0.04070
2858.96551,0.04080
2857.93526,0.04083
2856.90500,0.04035
2855.87474,0.03981
2854.84448,0.03943
2853.81422,0.03917
2852.78397,0.03895
2851.75371,0.03855
2850.72345,0.03819
2849.69319,0.03787
2848.66293,0.03729
2847.63268,0.03697
2846.60242,0.03707
2845.57216,0.03709
2844.54190,0.03702
2843.51165,0.03685
2842.48139,0.03636
2841.45113,0.03600
2840.42087,0.03609
2839.39061,0.03593
2838.36036,0.03555
2837.33010,0.03547
2836.29984,0.03536
2835.26958,0.03484
2834.23933,0.03423
2833.20907,0.03406
2832.17881,0.03417
2831.14855,0.03401
2830.11829,0.03373
2829.08804,0.03354
2828.05778,0.03328
2827.02752,0.03315
2825.99726,0.03321
2824.96700,0.03304
2823.93675,0.03258
2822.90649,0.03215
2821.87623,0.03174
2820.84597,0.03138
2819.81572,0.03126
2818.78546,0.03115
2817.75520,0.03089
2816.72494,0.03059
2815.69468,0.03040
2814.66443,0.03039
2813.63417,0.03041
2812.60391,0.03029
2811.57365,0.03000
2810.54339,0.02961
2809.51314,0.02926
2808.48288,0.02914
2807.45262,0.02918
2806.42236,0.02912
2805.39211,0.02878
2804.36185,0.02828
2803.33159,0.02796
2802.30133,0.02787
2801.27107,0.02768
2800.24082,0.02726
2799.21056,0.02694
2798.18030,0.02695
2797.15004,0.02712
2796.11978,0.02700
2795.08953,0.02647
2794.05927,0.02614
2793.02901,0.02638
2791.99875,0.02665
2790.96850,0.02659
2789.93824,0.02647
2788.90798,0.02641
2787.87772,0.02634
2786.84746,0.02625
2785.81721,0.02595
2784.78695,0.02563
2783.75669,0.02555
2782.72643,0.02540
2781.69618,0.02523
2780.66592,0.02516
2779.63566,0.02481
2778.60540,0.02435
2777.57514,0.02419
2776.54489,0.02413
2775.51463,0.02393
2774.48437,0.02386
2773.45411,0.02399
2772.42385,0.02390
2771.39360,0.02350
2770.36334,0.02317
2769.33308,0.02312
2768.30282,0.02320
2767.27257,0.02319
2766.24231,0.02296
2765.21205,0.02256
2764.18179,0.02224
2763.15153,0.02212
2762.12128,0.02208
2761.09102,0.02204
2760.06076,0.02188
2759.03050,0.02148
2758.00024,0.02120
2756.96999,0.02123
2755.93973,0.02113
2754.90947,0.02076
2753.87921,0.02051
2752.84896,0.02052
2751.81870,0.02058
2750.78844,0.02057
2749.75818,0.02051
2748.72792,0.02054
2747.69767,0.02070
2746.66741,0.02076
2745.63715,0.02058
2744.60689,0.02024
2743.57663,0.01995
2742.54638,0.01988
2741.51612,0.01981
2740.48586,0.01969
2739.45560,0.01982
2738.42535,0.01996
2737.39509,0.01986
2736.36483,0.01967
2735.33457,0.01947
2734.30431,0.01929
2733.27406,0.01912
2732.24380,0.01909
2731.21354,0.01908
2730.18328,0.01881
2729.15303,0.01847
2728.12277,0.01845
2727.09251,0.01864
2726.06225,0.01860
2725.03199,0.01840
2724.00174,0.01828
2722.97148,0.01818
2721.94122,0.01794
2720.91096,0.01760
2719.88070,0.01739
2718.85045,0.01724
2717.82019,0.01717
2716.78993,0.01729
2715.75967,0.01749
2714.72942,0.01745
2713.69916,0.01718
2712.66890,0.01703
2711.63864,0.01705
2710.60838,0.01716
2709.57813,0.01726
2708.54787,0.01726
2707.51761,0.01705
2706.48735,0.01671
2705.45709,0.01648
2704.42684,0.01640
2703.39658,0.01649
2702.36632,0.01658
2701.33606,0.01643
2700.30581,0.01623
2699.27555,0.01611
2698.24529,0.01587
2697.21503,0.01558
2696.18477,0.01556
2695.15452,0.01563
2694.12426,0.01555
2693.09400,0.01565
2692.06374,0.01589
2691.03348,0.01592
2690.00323,0.01585
2688.97297,0.01588
2687.94271,0.01589
2686.91245,0.01571
2685.88220,0.01541
2684.85194,0.01520
2683.82168,0.01523
2682.79142,0.01541
2681.76116,0.01532
2680.73091,0.01492
2679.70065,0.01472
2678.67039,0.01482
2677.64013,0.01488
2676.60988,0.01486
2675.57962,0.01476
2674.54936,0.01446
2673.51910,0.01433
2672.48884,0.01467
2671.45859,0.01489
2670.42833,0.01448
2669.39807,0.01392
2668.36781,0.01391
2667.33755,0.01433
2666.30730,0.01463
2665.27704,0.01457
2664.24678,0.01427
2663.21652,0.01395
2662.18627,0.01376
2661.15601,0.01378
2660.12575,0.01403
2659.09549,0.01425
2658.06523,0.01430
2657.03498,0.01420
2656.00472,0.01399
2654.97446,0.01375
2653.94420,0.01359
2652.91394,0.01365
2651.88369,0.01376
2650.85343,0.01363
2649.82317,0.01330
2648.79291,0.01295
2647.76266,0.01279
2646.73240,0.01290
2645.70214,0.01308
2644.67188,0.01315
2643.64162,0.01322
2642.61137,0.01321
2641.58111,0.01306
2640.55085,0.01299
2639.52059,0.01306
2638.49033,0.01313
2637.46008,0.01294
2636.42982,0.01266
2635.39956,0.01276
2634.36930,0.01312
2633.33905,0.01332
2632.30879,0.01326
2631.27853,0.01294
2630.24827,0.01260
2629.21801,0.01231
2628.18776,0.01190
2627.15750,0.01167
2626.12724,0.01176
2625.09698,0.01201
2624.06673,0.01221
2623.03647,0.01237
2622.00621,0.01247
2620.97595,0.01234
2619.94569,0.01229
2618.91544,0.01237
2617.88518,0.01197
2616.85492,0.01143
2615.82466,0.01149
2614.79440,0.01166
2613.76415,0.01155
2612.73389,0.01139
2611.70363,0.01145
2610.67337,0.01180
2609.64312,0.01219
2608.61286,0.01218
2607.58260,0.01174
2606.55234,0.01133
2605.52208,0.01119
2604.49183,0.01131
2603.46157,0.01138
2602.43131,0.01121
2601.40105,0.01108
2600.37079,0.01122
2599.34054,0.01153
2598.31028,0.01158
2597.28002,0.01128
2596.24976,0.01102
2595.21951,0.01097
2594.18925,0.01104
2593.15899,0.01107
2592.12873,0.01127
2591.09847,0.01176
2590.06822,0.01183
2589.03796,0.01139
2588.00770,0.01131
2586.97744,0.01163
2585.94718,0.01185
2584.91693,0.01187
2583.88667,0.01156
2582.85641,0.01121
2581.82615,0.01129
2580.79590,0.01128
2579.76564,0.01109
2578.73538,0.01130
2577.70512,0.01156
2576.67486,0.01130
2575.64461,0.01100
2574.61435,0.01082
2573.58409,0.01061
2572.55383,0.01060
2571.52358,0.01045
2570.49332,0.01042
2569.46306,0.01086
2568.43280,0.01115
2567.40254,0.01106
2566.37229,0.01075
2565.34203,0.01057
2564.31177,0.01079
2563.28151,0.01093
2562.25125,0.01089
2561.22100,0.01100
2560.19074,0.01131
2559.16048,0.01138
2558.13022,0.01102
2557.09997,0.01075
2556.06971,0.01064
2555.03945,0.01050
2554.00919,0.01063
2552.97893,0.01104
2551.94868,0.01136
2550.91842,0.01146
2549.88816,0.01128
2548.85790,0.01106
2547.82764,0.01105
2546.79739,0.01117
2545.76713,0.01161
2544.73687,0.01174
2543.70661,0.01107
2542.67636,0.01079
2541.64610,0.01133
2540.61584,0.01168
2539.58558,0.01134
2538.55532,0.01065
2537.52507,0.01040
2536.49481,0.01107
2535.46455,0.01190
2534.43429,0.01190
2533.40403,0.01143
2532.37378,0.01096
2531.34352,0.01046
2530.31326,0.01053
2529.28300,0.01125
2528.25275,0.01156
2527.22249,0.01128
2526.19223,0.01127
2525.16197,0.01142
2524.13171,0.01109
2523.10146,0.01072
2522.07120,0.01079
2521.04094,0.01067
2520.01068,0.01025
2518.98043,0.01025
2517.95017,0.01061
2516.91991,0.01089
2515.88965,0.01073
2514.85939,0.01006
2513.82914,0.00973
2512.79888,0.01011
2511.76862,0.01040
2510.73836,0.01050
2509.70810,0.01075
2508.67785,0.01100
2507.64759,0.01133
2506.61733,0.01181
2505.58707,0.01216
2504.55682,0.01206
2503.52656,0.01159
2502.49630,0.01129
2501.46604,0.01119
2500.43578,0.01086
2499.40553,0.01073
2498.37527,0.01089
2497.34501,0.01093
2496.31475,0.01089
2495.28449,0.01067
2494.25424,0.01054
2493.22398,0.01082
2492.19372,0.01090
2491.16346,0.01066
2490.13321,0.01066
2489.10295,0.01095
2488.07269,0.01143
2487.04243,0.01181
2486.01217,0.01139
2484.98192,0.01051
2483.95166,0.01048
2482.92140,0.01121
2481.89114,0.01161
2480.86088,0.01178
2479.83063,0.01212
2478.80037,0.01237
2477.77011,0.01232
2476.73985,0.01230
2475.70960,0.01238
2474.67934,0.01212
2473.64908,0.01206
2472.61882,0.01245
2471.58856,0.01231
2470.55831,0.01187
2469.52805,0.01193
2468.49779,0.01207
2467.46753,0.01204
2466.43728,0.01211
2465.40702,0.01233
2464.37676,0.01252
2463.34650,0.01259
2462.31624,0.01256
2461.28599,0.01237
2460.25573,0.01227
2459.22547,0.01235
2458.19521,0.01250
2457.16495,0.01238
2456.13470,0.01215
2455.10444,0.01253
2454.07418,0.01319
2453.04392,0.01320
2452.01367,0.01272
2450.98341,0.01243
2449.95315,0.01236
2448.92289,0.01217
2447.89263,0.01196
2446.86238,0.01200
2445.83212,0.01222
2444.80186,0.01235
2443.77160,0.01239
2442.74134,0.01252
2441.71109,0.01274
2440.68083,0.01284
2439.65057,0.01281
2438.62031,0.01269
2437.59006,0.01230
2436.55980,0.01180
2435.52954,0.01158
2434.49928,0.01177
2433.46902,0.01214
2432.43877,0.01236
2431.40851,0.01256
2430.37825,0.01290
2429.34799,0.01301
2428.31774,0.01289
2427.28748,0.01287
2426.25722,0.01297
2425.22696,0.01314
2424.19670,0.01324
2423.16645,0.01319
2422.13619,0.01330
2421.10593,0.01352
2420.07567,0.01333
2419.04541,0.01291
2418.01516,0.01281
2416.98490,0.01305
2415.95464,0.01341
2414.92438,0.01361
2413.89413,0.01357
2412.86387,0.01374
2411.83361,0.01415
2410.80335,0.01404
2409.77309,0.01343
2408.74284,0.01330
2407.71258,0.01377
2406.68232,0.01412
2405.65206,0.01403
2404.62180,0.01387
2403.59155,0.01399
2402.56129,0.01433
2401.53103,0.01445
2400.50077,0.01420
2399.47052,0.01396
2398.44026,0.01396
2397.41000,0.01430
2396.37974,0.01482
2395.34948,0.01499
2394.31923,0.01475
2393.28897,0.01444
2392.25871,0.01448
2391.22845,0.01488
2390.19819,0.01515
2389.16794,0.01504
2388.13768,0.01483
2387.10742,0.01473
2386.07716,0.01467
2385.04691,0.01465
2384.01665,0.01493
2382.98639,0.01527
2381.95613,0.01503
2380.92587,0.01444
2379.89562,0.01429
2378.86536,0.01458
2377.83510,0.01491
2376.80484,0.01516
2375.77459,0.01526
2374.74433,0.01564
2373.71407,0.01633
2372.68381,0.01699
2371.65355,0.01772
2370.62330,0.01815
2369.59304,0.01797
2368.56278,0.01765
2367.53252,0.01750
2366.50226,0.01738
2365.47201,0.01731
2364.44175,0.01729
2363.41149,0.01732
2362.38123,0.01764
2361.35098,0.01864
2360.32072,0.01944
2359.29046,0.01870
2358.26020,0.01741
2357.22994,0.01688
2356.19969,0.01746
2355.16943,0.01834
2354.13917,0.01815
2353.10891,0.01730
2352.07865,0.01710
2351.04840,0.01752
2350.01814,0.01782
2348.98788,0.01794
2347.95762,0.01804
2346.92737,0.01777
2345.89711,0.01728
2344.86685,0.01750
2343.83659,0.01824
2342.80633,0.01864
2341.77608,0.01889
2340.74582,0.01937
2339.71556,0.01917
2338.68530,0.01813
2337.65504,0.01763
2336.62479,0.01806
2335.59453,0.01867
2334.56427,0.01892
2333.53401,0.01882
2332.50376,0.01913
2331.47350,0.02011
2330.44324,0.02015
2329.41298,0.01907
2328.38272,0.01852
2327.35247,0.01851
2326.32221,0.01868
2325.29195,0.01910
2324.26169,0.01938
2323.23144,0.01924
2322.20118,0.01863
2321.17092,0.01804
2320.14066,0.01823
2319.11040,0.01862
2318.08015,0.01846
2317.04989,0.01817
2316.01963,0.01831
2314.98937,0.01881
2313.95911,0.01870
2312.92886,0.01802
2311.89860,0.01787
2310.86834,0.01821
2309.83808,0.01851
2308.80783,0.01856
2307.77757,0.01863
2306.74731,0.01884
2305.71705,0.01886
2304.68679,0.01893
2303.65654,0.01904
2302.62628,0.01881
2301.59602,0.01853
2300.56576,0.01851
2299.53550,0.01864
2298.50525,0.01887
2297.47499,0.01902
2296.44473,0.01872
2295.41447,0.01825
2294.38422,0.01834
2293.35396,0.01865
2292.32370,0.01874
2291.29344,0.01896
2290.26318,0.01915
2289.23293,0.01895
2288.20267,0.01885
2287.17241,0.01972
2286.14215,0.02094
2285.11189,0.02101
2284.08164,0.02034
2283.05138,0.02045
2282.02112,0.02087
2280.99086,0.02049
2279.96061,0.02006
2278.93035,0.02001
2277.90009,0.02000
2276.86983,0.01997
2275.83957,0.01974
2274.80932,0.01971
2273.77906,0.02018
2272.74880,0.02025
2271.71854,0.01989
2270.68829,0.02013
2269.65803,0.02074
2268.62777,0.02117
2267.59751,0.02121
2266.56725,0.02077
2265.53700,0.02015
2264.50674,0.01987
2263.47648,0.02043
2262.44622,0.02114
2261.41596,0.02099
2260.38571,0.02037
2259.35545,0.02013
2258.32519,0.02045
2257.29493,0.02139
2256.26468,0.02251
2255.23442,0.02272
2254.20416,0.02214
2253.17390,0.02183
2252.14364,0.02130
2251.11339,0.02060
2250.08313,0.02126
2249.05287,0.02260
2248.02261,0.02325
2246.99235,0.02311
2245.96210,0.02252
2244.93184,0.02186
2243.90158,0.02122
2242.87132,0.02073
2241.84107,0.02050
2240.81081,0.02042
2239.78055,0.02075
2238.75029,0.02156
2237.72003,0.02241
2236.68978,0.02288
2235.65952,0.02293
2234.62926,0.02324
2233.59900,0.02319
2232.56874,0.02247
2231.53849,0.02207
2230.50823,0.02140
2229.47797,0.02091
2228.44771,0.02141
2227.41746,0.02159
2226.38720,0.02145
2225.35694,0.02150
2224.32668,0.02162
2223.29642,0.02248
2222.26617,0.02357
2221.23591,0.02357
2220.20565,0.02268
2219.17539,0.02171
2218.14514,0.02113
2217.11488,0.02109
2216.08462,0.02173
2215.05436,0.02290
2214.02410,0.02334
2212.99385,0.02276
2211.96359,0.02243
2210.93333,0.02146
2209.90307,0.01952
2208.87281,0.01930
2207.84256,0.02056
2206.81230,0.02151
2205.78204,0.02328
2204.75178,0.02520
2203.72153,0.02508
2202.69127,0.02401
2201.66101,0.02426
2200.63075,0.02522
2199.60049,0.02528
2198.57024,0.02418
2197.53998,0.02307
2196.50972,0.02292
2195.47946,0.02212
2194.44920,0.02162
2193.41895,0.02365
2192.38869,0.02589
2191.35843,0.02583
2190.32817,0.02469
2189.29792,0.02423
2188.26766,0.02429
2187.23740,0.02421
2186.20714,0.02386
2185.17688,0.02400
2184.14663,0.02448
2183.11637,0.02392
2182.08611,0.02271
2181.05585,0.02241
2180.02559,0.02265
2178.99534,0.02279
2177.96508,0.02295
2176.93482,0.02304
2175.90456,0.02358
2174.87431,0.02417
2173.84405,0.02423
2172.81379,0.02394
2171.78353,0.02432
2170.75327,0.02553
2169.72302,0.02588
2168.69276,0.02525
2167.66250,0.02496
2166.63224,0.02546
2165.60199,0.02641
2164.57173,0.02707
2163.54147,0.02612
2162.51121,0.02405
2161.48095,0.02329
2160.45070,0.02422
2159.42044,0.02527
2158.39018,0.02512
2157.35992,0.02381
2156.32966,0.02391
2155.29941,0.02625
2154.26915,0.02676
2153.23889,0.02388
2152.20863,0.02155
2151.17838,0.02305
2150.14812,0.02618
2149.11786,0.02716
2148.08760,0.02668
2147.05734,0.02634
2146.02709,0.02570
2144.99683,0.02533
2143.96657,0.02567
2142.93631,0.02601
2141.90605,0.02593
2140.87580,0.02605
2139.84554,0.02704
2138.81528,0.02779
2137.78502,0.02739
2136.75477,0.02627
2135.72451,0.02495
2134.69425,0.02405
2133.66399,0.02403
2132.63373,0.02436
2131.60348,0.02439
2130.57322,0.02390
2129.54296,0.02361
2128.51270,0.02444
2127.48244,0.02538
2126.45219,0.02556
2125.42193,0.02584
2124.39167,0.02605
2123.36141,0.02557
2122.33116,0.02477
2121.30090,0.02417
2120.27064,0.02420
2119.24038,0.02478
2118.21012,0.02540
2117.17987,0.02580
2116.14961,0.02602
2115.11935,0.02603
2114.08909,0.02548
2113.05884,0.02449
2112.02858,0.02398
2110.99832,0.02423
2109.96806,0.02419
2108.93780,0.02354
2107.90755,0.02305
2106.87729,0.02327
2105.84703,0.02425
2104.81677,0.02466
2103.78651,0.02407
2102.75626,0.02450
2101.72600,0.02631
2100.69574,0.02707
2099.66548,0.02621
2098.63523,0.02511
2097.60497,0.02406
2096.57471,0.02327
2095.54445,0.02299
2094.51419,0.02318
2093.48394,0.02402
2092.45368,0.02488
2091.42342,0.02502
2090.39316,0.02466
2089.36290,0.02415
2088.33265,0.02365
2087.30239,0.02325
2086.27213,0.02261
2085.24187,0.02228
2084.21162,0.02278
2083.18136,0.02309
2082.15110,0.02311
2081.12084,0.02370
2080.09058,0.02429
2079.06033,0.02398
2078.03007,0.02322
2076.99981,0.02305
2075.96955,0.02336
2074.93930,0.02299
2073.90904,0.02222
2072.87878,0.02264
2071.84852,0.02351
2070.81826,0.02348
2069.78801,0.02389
2068.75775,0.02456
2067.72749,0.02347
2066.69723,0.02190
2065.66697,0.02196
2064.63672,0.02256
2063.60646,0.02209
2062.57620,0.02145
2061.54594,0.02201
2060.51569,0.02246
2059.48543,0.02169
2058.45517,0.02113
2057.42491,0.02114
2056.39465,0.02105
2055.36440,0.02076
2054.33414,0.02100
2053.30388,0.02210
2052.27362,0.02249
2051.24336,0.02171
2050.21311,0.02129
2049.18285,0.02154
2048.15259,0.02123
2047.12233,0.02083
2046.09208,0.02146
2045.06182,0.02292
2044.03156,0.02472
2043.00130,0.02557
2041.97104,0.02450
2040.94079,0.02265
2039.91053,0.02140
2038.88027,0.02006
2037.85001,0.01846
2036.81975,0.01788
2035.78950,0.01807
2034.75924,0.01770
2033.72898,0.01737
2032.69872,0.01840
2031.66847,0.01908
2030.63821,0.01925
2029.60795,0.02020
2028.57769,0.02069
2027.54743,0.02079
2026.51718,0.02116
2025.48692,0.02131
2024.45666,0.02160
2023.42640,0.02213
2022.39615,0.02133
2021.36589,0.01952
2020.33563,0.01811
2019.30537,0.01643
2018.27511,0.01670
2017.24486,0.01974
2016.21460,0.02037
2015.18434,0.01820
2014.15408,0.01728
2013.12382,0.01686
2012.09357,0.01507
2011.06331,0.01308
2010.03305,0.01275
2009.00279,0.01440
2007.97254,0.01737
2006.94228,0.01932
2005.91202,0.01858
2004.88176,0.01795
2003.85150,0.01862
2002.82125,0.01955
2001.79099,0.02001
2000.76073,0.01947
1999.73047,0.01933
1998.70021,0.01955
1997.66996,0.01856
1996.63970,0.01677
1995.60944,0.01606
1994.57918,0.01698
1993.54893,0.01709
1992.51867,0.01568
1991.48841,0.01680
1990.45815,0.01991
1989.42789,0.02001
1988.39764,0.01781
1987.36738,0.01638
1986.33712,0.01643
1985.30686,0.01672
1984.27660,0.01620
1983.24635,0.01537
1982.21609,0.01411
1981.18583,0.01330
1980.15557,0.01449
1979.12532,0.01536
1978.09506,0.01490
1977.06480,0.01547
1976.03454,0.01660
1975.00428,0.01730
1973.97403,0.01735
1972.94377,0.01660
1971.91351,0.01501
1970.88325,0.01349
1969.85300,0.01396
1968.82274,0.01523
1967.79248,0.01562
1966.76222,0.01525
1965.73196,0.01509
1964.70171,0.01640
1963.67145,0.01766
1962.64119,0.01708
1961.61093,0.01595
1960.58067,0.01640
1959.55042,0.01762
1958.52016,0.01778
1957.48990,0.01761
1956.45964,0.01732
1955.42939,0.01692
1954.39913,0.01700
1953.36887,0.01664
1952.33861,0.01579
1951.30835,0.01524
1950.27810,0.01505
1949.24784,0.01484
1948.21758,0.01394
1947.18732,0.01314
1946.15706,0.01388
1945.12681,0.01559
1944.09655,0.01653
1943.06629,0.01691
1942.03603,0.01727
1941.00578,0.01681
1939.97552,0.01631
1938.94526,0.01640
1937.91500,0.01563
1936.88474,0.01403
1935.85449,0.01345
1934.82423,0.01401
1933.79397,0.01431
1932.76371,0.01384
1931.73345,0.01345
1930.70320,0.01364
1929.67294,0.01404
1928.64268,0.01405
1927.61242,0.01412
1926.58217,0.01499
1925.55191,0.01576
1924.52165,0.01580
1923.49139,0.01568
1922.46113,0.01537
1921.43088,0.01497
1920.40062,0.01527
1919.37036,0.01574
1918.34010,0.01555
1917.30985,0.01521
1916.27959,0.01486
1915.24933,0.01492
1914.21907,0.01591
1913.18881,0.01630
1912.15856,0.01545
1911.12830,0.01484
1910.09804,0.01482
1909.06778,0.01498
1908.03752,0.01516
1907.00727,0.01501
1905.97701,0.01449
1904.94675,0.01396
1903.91649,0.01419
1902.88624,0.01489
1901.85598,0.01538
1900.82572,0.01588
1899.79546,0.01603
1898.76520,0.01547
1897.73495,0.01500
1896.70469,0.01485
1895.67443,0.01481
1894.64417,0.01507
1893.61391,0.01560
1892.58366,0.01585
1891.55340,0.01572
1890.52314,0.01568
1889.49288,0.01585
1888.46263,0.01598
1887.43237,0.01590
1886.40211,0.01602
1885.37185,0.01630
1884.34159,0.01613
1883.31134,0.01591
1882.28108,0.01569
1881.25082,0.01523
1880.22056,0.01517
1879.19030,0.01558
1878.16005,0.01595
1877.12979,0.01653
1876.09953,0.01736
1875.06927,0.01776
1874.03902,0.01768
1873.00876,0.01758
1871.97850,0.01746
1870.94824,0.01722
1869.91798,0.01674
1868.88773,0.01586
1867.85747,0.01522
1866.82721,0.01502
1865.79695,0.01503
1864.76670,0.01531
1863.73644,0.01574
1862.70618,0.01590
1861.67592,0.01569
1860.64566,0.01562
1859.61541,0.01569
1858.58515,0.01545
1857.55489,0.01511
1856.52463,0.01512
1855.49437,0.01553
1854.46412,0.01593
1853.43386,0.01612
1852.40360,0.01618
1851.37334,0.01623
1850.34309,0.01619
1849.31283,0.01617
1848.28257,0.01643
1847.25231,0.01656
1846.22205,0.01634
1845.19180,0.01617
1844.16154,0.01639
1843.13128,0.01661
1842.10102,0.01657
1841.07076,0.01664
1840.04051,0.01672
1839.01025,0.01664
1837.97999,0.01668
1836.94973,0.01695
1835.91948,0.01718
1834.88922,0.01738
1833.85896,0.01758
1832.82870,0.01756
1831.79844,0.01747
1830.76819,0.01724
1829.73793,0.01670
1828.70767,0.01640
1827.67741,0.01643
1826.64715,0.01650
1825.61690,0.01662
1824.58664,0.01666
1823.55638,0.01664
1822.52612,0.01687
1821.49587,0.01721
1820.46561,0.01747
1819.43535,0.01765
1818.40509,0.01755
1817.37483,0.01732
1816.34458,0.01732
1815.31432,0.01754
1814.28406,0.01777
1813.25380,0.01800
1812.22355,0.01818
1811.19329,0.01812
1810.16303,0.01776
1809.13277,0.01758
1808.10251,0.01795
1807.07226,0.01838
1806.04200,0.01852
1805.01174,0.01855
1803.98148,0.01842
1802.95122,0.01848
1801.92097,0.01894
1800.89071,0.01916
1799.86045,0.01915
1798.83019,0.01935
1797.79994,0.01947
1796.76968,0.01934
1795.73942,0.01939
1794.70916,0.01975
1793.67890,0.01997
1792.64865,0.02007
1791.61839,0.02045
1790.58813,0.02094
1789.55787,0.02106
1788.52761,0.02069
1787.49736,0.02031
1786.46710,0.02039
1785.43684,0.02066
1784.40658,0.02072
1783.37633,0.02076
1782.34607,0.02090
1781.31581,0.02114
1780.28555,0.02158
1779.25529,0.02198
1778.22504,0.02208
1777.19478,0.02201
1776.16452,0.02204
1775.13426,0.02225
1774.10400,0.02255
1773.07375,0.02270
1772.04349,0.02248
1771.01323,0.02246
1769.98297,0.02293
1768.95272,0.02361
1767.92246,0.02428
1766.89220,0.02450
1765.86194,0.02427
1764.83168,0.02409
1763.80143,0.02430
1762.77117,0.02469
1761.74091,0.02513
1760.71065,0.02561
1759.68040,0.02592
1758.65014,0.02615
1757.61988,0.02648
1756.58962,0.02688
1755.55936,0.02719
1754.52911,0.02726
1753.49885,0.02733
1752.46859,0.02760
1751.43833,0.02805
1750.40807,0.02872
1749.37782,0.02933
1748.34756,0.02964
1747.31730,0.03001
1746.28704,0.03060
1745.25679,0.03098
1744.22653,0.03111
1743.19627,0.03126
1742.16601,0.03170
1741.13575,0.03241
1740.10550,0.03315
1739.07524,0.03365
1738.04498,0.03404
1737.01472,0.03464
1735.98446,0.03522
1734.95421,0.03541
1733.92395,0.03567
1732.89369,0.03652
1731.86343,0.03714
1730.83318,0.03776
1729.80292,0.03883
1728.77266,0.03977
1727.74240,0.04021
1726.71214,0.04068
1725.68189,0.04140
1724.65163,0.04221
1723.62137,0.04304
1722.59111,0.04381
1721.56085,0.04446
1720.53060,0.04507
1719.50034,0.04584
1718.47008,0.04672
1717.43982,0.04746
1716.40957,0.04825
1715.37931,0.04947
1714.34905,0.05083
1713.31879,0.05166
1712.28853,0.05234
1711.25828,0.05350
1710.22802,0.05491
1709.19776,0.05614
1708.16750,0.05715
1707.13725,0.05810
1706.10699,0.05959
1705.07673,0.06146
1704.04647,0.06274
1703.01621,0.06371
1701.98596,0.06492
1700.95570,0.06630
1699.92544,0.06797
1698.89518,0.06951
1697.86492,0.07077
1696.83467,0.07218
1695.80441,0.07423
1694.77415,0.07628
1693.74389,0.07780
1692.71364,0.07932
1691.68338,0.08096
1690.65312,0.08267
1689.62286,0.08420
1688.59260,0.08567
1687.56235,0.08736
1686.53209,0.08916
1685.50183,0.09113
1684.47157,0.09365
1683.44131,0.09564
1682.41106,0.09672
1681.38080,0.09802
1680.35054,0.09977
1679.32028,0.10181
1678.29003,0.10396
1677.25977,0.10618
1676.22951,0.10806
1675.19925,0.10955
1674.16899,0.11116
1673.13874,0.11306
1672.10848,0.11516
1671.07822,0.11717
1670.04796,0.11906
1669.01771,0.12105
1667.98745,0.12283
1666.95719,0.12436
1665.92693,0.12601
1664.89667,0.12767
1663.86642,0.12926
1662.83616,0.13105
1661.80590,0.13321
1660.77564,0.13524
1659.74538,0.13688
1658.71513,0.13836
1657.68487,0.14000
1656.65461,0.14176
1655.62435,0.14341
1654.59410,0.14517
1653.56384,0.14706
1652.53358,0.14827
1651.50332,0.14932
1650.47306,0.15058
1649.44281,0.15169
1648.41255,0.15264
1647.38229,0.15377
1646.35203,0.15496
1645.32177,0.15564
1644.29152,0.15620
1643.26126,0.15664
1642.23100,0.15694
1641.20074,0.15726
1640.17049,0.15755
1639.14023,0.15789
1638.10997,0.15819
1637.07971,0.15831
1636.04945,0.15773
1635.01920,0.15628
1633.98894,0.15569
1632.95868,0.15542
1631.92842,0.15455
1630.89816,0.15347
1629.86791,0.15249
1628.83765,0.15150
1627.80739,0.15007
1626.77713,0.14825
1625.74688,0.14666
1624.71662,0.14529
1623.68636,0.14346
1622.65610,0.14101
1621.62584,0.13892
1620.59559,0.13700
1619.56533,0.13492
1618.53507,0.13316
1617.50481,0.13139
1616.47456,0.12829
1615.44430,0.12573
1614.41404,0.12432
1613.38378,0.12261
1612.35352,0.12047
1611.32327,0.11819
1610.29301,0.11597
1609.26275,0.11392
1608.23249,0.11211
1607.20223,0.11013
1606.17198,0.10789
1605.14172,0.10594
1604.11146,0.10438
1603.08120,0.10272
1602.05095,0.10101
1601.02069,0.09942
1599.99043,0.09772
1598.96017,0.09607
1597.92991,0.09475
1596.89966,0.09361
1595.86940,0.09239
1594.83914,0.09104
1593.80888,0.08971
1592.77862,0.08847
1591.74837,0.08701
1590.71811,0.08563
1589.68785,0.08458
1588.65759,0.08353
1587.62734,0.08225
1586.59708,0.08099
1585.56682,0.07998
1584.53656,0.07919
1583.50630,0.07833
1582.47605,0.07739
1581.44579,0.07675
1580.41553,0.07615
1579.38527,0.07525
1578.35501,0.07441
1577.32476,0.07368
1576.29450,0.07238
1575.26424,0.07114
1574.23398,0.07077
1573.20373,0.07061
1572.17347,0.07028
1571.14321,0.06987
1570.11295,0.06941
1569.08269,0.06853
1568.05244,0.06765
1567.02218,0.06722
1565.99192,0.06688
1564.96166,0.06631
1563.93141,0.06568
1562.90115,0.06516
1561.87089,0.06491
1560.84063,0.06490
1559.81037,0.06473
1558.78012,0.06349
1557.74986,0.06199
1556.71960,0.06181
1555.68934,0.06204
1554.65908,0.06201
1553.62883,0.06166
1552.59857,0.06117
1551.56831,0.06057
1550.53805,0.06006
1549.50780,0.05986
1548.47754,0.05965
1547.44728,0.05915
1546.41702,0.05868
1545.38676,0.05839
1544.35651,0.05805
1543.32625,0.05776
1542.29599,0.05770
1541.26573,0.05778
1540.23547,0.05748
1539.20522,0.05685
1538.17496,0.05659
1537.14470,0.05657
1536.11444,0.05645
1535.08419,0.05619
1534.05393,0.05595
1533.02367,0.05587
1531.99341,0.05577
1530.96315,0.05535
1529.93290,0.05492
1528.90264,0.05473
1527.87238,0.05457
1526.84212,0.05460
1525.81186,0.05472
1524.78161,0.05448
1523.75135,0.05409
1522.72109,0.05374
1521.69083,0.05345
1520.66058,0.05338
1519.63032,0.05354
1518.60006,0.05361
1517.56980,0.05322
1516.53954,0.05271
1515.50929,0.05282
1514.47903,0.05308
1513.44877,0.05299
1512.41851,0.05270
1511.38826,0.05267
1510.35800,0.05272
1509.32774,0.05262
1508.29748,0.05258
1507.26722,0.05230
1506.23697,0.05165
1505.20671,0.05163
1504.17645,0.05198
1503.14619,0.05218
1502.11593,0.05204
1501.08568,0.05184
1500.05542,0.05190
1499.02516,0.05194
1497.99490,0.05189
1496.96465,0.05206
1495.93439,0.05220
1494.90413,0.05207
1493.87387,0.05189
1492.84361,0.05192
1491.81336,0.05229
1490.78310,0.05290
1489.75284,0.05381
1488.72258,0.05491
1487.69232,0.05623
1486.66207,0.05841
1485.63181,0.06189
1484.60155,0.06675
1483.57129,0.07267
1482.54104,0.07814
1481.51078,0.08067
1480.48052,0.07903
1479.45026,0.07484
1478.42000,0.07033
1477.38975,0.06671
1476.35949,0.06409
1475.32923,0.06277
1474.29897,0.06285
1473.26871,0.06380
1472.23846,0.06518
1471.20820,0.06677
1470.17794,0.06849
1469.14768,0.07056
1468.11743,0.07290
1467.08717,0.07478
1466.05691,0.07562
1465.02665,0.07550
1463.99639,0.07464
1462.96614,0.07336
1461.93588,0.07196
1460.90562,0.07059
1459.87536,0.06912
1458.84511,0.06767
1457.81485,0.06641
1456.78459,0.06494
1455.75433,0.06396
1454.72407,0.06351
1453.69382,0.06294
1452.66356,0.06236
1451.63330,0.06193
1450.60304,0.06143
1449.57278,0.06072
1448.54253,0.06001
1447.51227,0.05947
1446.48201,0.05893
1445.45175,0.05835
1444.42150,0.05782
1443.39124,0.05749
1442.36098,0.05725
1441.33072,0.05679
1440.30046,0.05616
1439.27021,0.05572
1438.23995,0.05564
1437.20969,0.05531
1436.17943,0.05432
1435.14917,0.05381
1434.11892,0.05366
1433.08866,0.05316
1432.05840,0.05240
1431.02814,0.05196
1429.99789,0.05169
1428.96763,0.05126
1427.93737,0.05095
1426.90711,0.05079
1425.87685,0.05073
1424.84660,0.05055
1423.81634,0.05013
1422.78608,0.04970
1421.75582,0.04950
1420.72556,0.04959
1419.69531,0.04957
1418.66505,0.04938
1417.63479,0.04935
1416.60453,0.04917
1415.57428,0.04902
1414.54402,0.04909
1413.51376,0.04906
1412.48350,0.04913
1411.45324,0.04953
1410.42299,0.05004
1409.39273,0.05055
1408.36247,0.05121
1407.33221,0.05233
1406.30196,0.05381
1405.27170,0.05521
1404.24144,0.05611
1403.21118,0.05620
1402.18092,0.05560
1401.15067,0.05475
1400.12041,0.05381
1399.09015,0.05263
1398.05989,0.05140
1397.02963,0.05050
1395.99938,0.04976
1394.96912,0.04904
1393.93886,0.04861
1392.90860,0.04846
1391.87835,0.04832
1390.84809,0.04815
1389.81783,0.04799
1388.78757,0.04789
1387.75731,0.04795
1386.72706,0.04800
1385.69680,0.04771
1384.66654,0.04735
1383.63628,0.04712
1382.60602,0.04697
1381.57577,0.04701
1380.54551,0.04716
1379.51525,0.04707
1378.48499,0.04688
1377.45474,0.04693
1376.42448,0.04714
1375.39422,0.04728
1374.36396,0.04730
1373.33370,0.04713
1372.30345,0.04694
1371.27319,0.04694
1370.24293,0.04692
1369.21267,0.04675
1368.18241,0.04657
1367.15216,0.04639
1366.12190,0.04631
1365.09164,0.04641
1364.06138,0.04647
1363.03113,0.04645
1362.00087,0.04651
1360.97061,0.04672
1359.94035,0.04686
1358.91009,0.04677
1357.87984,0.04655
1356.84958,0.04642
1355.81932,0.04655
1354.78906,0.04673
1353.75881,0.04670
1352.72855,0.04645
1351.69829,0.04623
1350.66803,0.04622
1349.63777,0.04628
1348.60752,0.04624
1347.57726,0.04627
1346.54700,0.04639
1345.51674,0.04645
1344.48648,0.04645
1343.45623,0.04638
1342.42597,0.04632
1341.39571,0.04640
1340.36545,0.04669
1339.33520,0.04676
1338.30494,0.04635
1337.27468,0.04602
1336.24442,0.04606
1335.21416,0.04626
1334.18391,0.04642
1333.15365,0.04652
1332.12339,0.04655
1331.09313,0.04641
1330.06287,0.04608
1329.03262,0.04589
1328.00236,0.04589
1326.97210,0.04587
1325.94184,0.04593
1324.91159,0.04618
1323.88133,0.04639
1322.85107,0.04629
1321.82081,0.04614
1320.79055,0.04625
1319.76030,0.04630
1318.73004,0.04609
1317.69978,0.04595
1316.66952,0.04605
1315.63927,0.04617
1314.60901,0.04610
1313.57875,0.04599
1312.54849,0.04603
1311.51823,0.04609
1310.48798,0.04611
1309.45772,0.04620
1308.42746,0.04637
1307.39720,0.04643
1306.36694,0.04623
1305.33669,0.04597
1304.30643,0.04595
1303.27617,0.04607
1302.24591,0.04618
1301.21566,0.04619
1300.18540,0.04608
1299.15514,0.04605
1298.12488,0.04605
1297.09462,0.04596
1296.06437,0.04589
1295.03411,0.04588
1294.00385,0.04585
1292.97359,0.04580
1291.94333,0.04577
1290.91308,0.04572
1289.88282,0.04562
1288.85256,0.04571
1287.82230,0.04593
1286.79205,0.04598
1285.76179,0.04584
1284.73153,0.04571
1283.70127,0.04585
1282.67101,0.04618
1281.64076,0.04623
1280.61050,0.04595
1279.58024,0.04578
1278.54998,0.04581
1277.51972,0.04582
1276.48947,0.04581
1275.45921,0.04592
1274.42895,0.04616
1273.39869,0.04641
1272.36844,0.04644
1271.33818,0.04631
1270.30792,0.04630
1269.27766,0.04620
1268.24740,0.04589
1267.21715,0.04564
1266.18689,0.04562
1265.15663,0.04590
1264.12637,0.04629
1263.09612,0.04627
1262.06586,0.04579
1261.03560,0.04563
1260.00534,0.04605
1258.97508,0.04643
1257.94483,0.04653
1256.91457,0.04673
1255.88431,0.04714
1254.85405,0.04744
1253.82379,0.04771
1252.79354,0.04814
1251.76328,0.04866
1250.73302,0.04929
1249.70276,0.05008
1248.67251,0.05086
1247.64225,0.05178
1246.61199,0.05316
1245.58173,0.05492
1244.55147,0.05671
1243.52122,0.05844
1242.49096,0.06015
1241.46070,0.06172
1240.43044,0.06308
1239.40018,0.06396
1238.36993,0.06389
1237.33967,0.06290
1236.30941,0.06143
1235.27915,0.05974
1234.24890,0.05800
1233.21864,0.05662
1232.18838,0.05549
1231.15812,0.05414
1230.12786,0.05283
1229.09761,0.05186
1228.06735,0.05100
1227.03709,0.05019
1226.00683,0.04955
1224.97657,0.04915
1223.94632,0.04892
1222.91606,0.04857
1221.88580,0.04809
1220.85554,0.04775
1219.82529,0.04748
1218.79503,0.04731
1217.76477,0.04743
1216.73451,0.04759
1215.70425,0.04760
1214.67400,0.04755
1213.64374,0.04749
1212.61348,0.04737
1211.58322,0.04708
1210.55297,0.04676
1209.52271,0.04675
1208.49245,0.04692
1207.46219,0.04686
1206.43193,0.04660
1205.40168,0.04634
1204.37142,0.04626
1203.34116,0.04644
1202.31090,0.04657
1201.28064,0.04644
1200.25039,0.04633
1199.22013,0.04637
1198.18987,0.04642
1197.15961,0.04649
1196.12936,0.04663
1195.09910,0.04681
1194.06884,0.04684
1193.03858,0.04647
1192.00832,0.04606
1190.97807,0.04598
1189.94781,0.04603
1188.91755,0.04603
1187.88729,0.04606
1186.85703,0.04622
1185.82678,0.04642
1184.79652,0.04654
1183.76626,0.04660
1182.73600,0.04656
1181.70575,0.04653
1180.67549,0.04663
1179.64523,0.04652
1178.61497,0.04610
1177.58471,0.04583
1176.55446,0.04582
1175.52420,0.04580
1174.49394,0.04571
1173.46368,0.04579
1172.43342,0.04608
1171.40317,0.04635
1170.37291,0.04636
1169.34265,0.04629
1168.31239,0.04628
1167.28214,0.04615
1166.25188,0.04598
1165.22162,0.04592
1164.19136,0.04589
1163.16110,0.04590
1162.13085,0.04594
1161.10059,0.04592
1160.07033,0.04588
1159.04007,0.04594
1158.00982,0.04601
1156.97956,0.04598
1155.94930,0.04587
1154.91904,0.04577
1153.88878,0.04583
1152.85853,0.04593
1151.82827,0.04580
1150.79801,0.04565
1149.76775,0.04575
1148.73749,0.04581
1147.70724,0.04576
1146.67698,0.04594
1145.64672,0.04624
1144.61646,0.04625
1143.58621,0.04598
1142.55595,0.04578
1141.52569,0.04576
1140.49543,0.04583
1139.46517,0.04596
1138.43492,0.04599
1137.40466,0.04610
1136.37440,0.04642
1135.34414,0.04648
1134.31388,0.04632
1133.28363,0.04631
1132.25337,0.04614
1131.22311,0.04589
1130.19285,0.04588
1129.16260,0.04597
1128.13234,0.04628
1127.10208,0.04684
1126.07182,0.04730
1125.04156,0.04763
1124.01131,0.04780
1122.98105,0.04769
1121.95079,0.04778
1120.92053,0.04830
1119.89027,0.04874
1118.86002,0.04851
1117.82976,0.04764
1116.79950,0.04688
1115.76924,0.04676
1114.73899,0.04693
1113.70873,0.04702
1112.67847,0.04711
1111.64821,0.04717
1110.61795,0.04725
1109.58770,0.04727
1108.55744,0.04709
1107.52718,0.04719
1106.49692,0.04774
1105.46667,0.04801
1104.43641,0.04770
1103.40615,0.04751
1102.37589,0.04777
1101.34563,0.04797
1100.31538,0.04804
1099.28512,0.04802
1098.25486,0.04779
1097.22460,0.04783
1096.19434,0.04814
1095.16409,0.04827
1094.13383,0.04847
1093.10357,0.04875
1092.07331,0.04861
1091.04306,0.04816
1090.01280,0.04803
1088.98254,0.04827
1087.95228,0.04836
1086.92202,0.04841
1085.89177,0.04859
1084.86151,0.04867
1083.83125,0.04867
1082.80099,0.04883
1081.77073,0.04911
1080.74048,0.04921
1079.71022,0.04916
1078.67996,0.04902
1077.64970,0.04878
1076.61945,0.04889
1075.58919,0.04932
1074.55893,0.04945
1073.52867,0.04935
1072.49841,0.04939
1071.46816,0.04938
1070.43790,0.04910
1069.40764,0.04890
1068.37738,0.04891
1067.34712,0.04900
1066.31687,0.04925
1065.28661,0.04930
1064.25635,0.04892
1063.22609,0.04869
1062.19584,0.04909
1061.16558,0.04948
1060.13532,0.04933
1059.10506,0.04927
1058.07480,0.04962
1057.04455,0.04986
1056.01429,0.04970
1054.98403,0.04943
1053.95377,0.04949
1052.92352,0.04984
1051.89326,0.05006
1050.86300,0.05006
1049.83274,0.04988
1048.80248,0.04961
1047.77223,0.04970
1046.74197,0.05019
1045.71171,0.05046
1044.68145,0.05042
1043.65119,0.05043
1042.62094,0.05062
1041.59068,0.05080
1040.56042,0.05073
1039.53016,0.05046
1038.49991,0.05017
1037.46965,0.04995
1036.43939,0.04995
1035.40913,0.05010
1034.37887,0.05019
1033.34862,0.05026
1032.31836,0.05048
1031.28810,0.05055
1030.25784,0.05039
1029.22758,0.05040
1028.19733,0.05049
1027.16707,0.05068
1026.13681,0.05103
1025.10655,0.05111
1024.07630,0.05110
1023.04604,0.05145
1022.01578,0.05190
1020.98552,0.05215
1019.95526,0.05232
1018.92501,0.05254
1017.89475,0.05279
1016.86449,0.05289
1015.83423,0.05268
1014.80397,0.05262
1013.77372,0.05283
1012.74346,0.05312
1011.71320,0.05340
1010.68294,0.05347
1009.65269,0.05353
1008.62243,0.05380
1007.59217,0.05411
1006.56191,0.05427
1005.53165,0.05430
1004.50140,0.05443
1003.47114,0.05483
1002.44088,0.05542
1001.41062,0.05587
1000.38037,0.05591
999.35011,0.05562
998.31985,0.05561
997.28959,0.05613
996.25933,0.05662
995.22908,0.05690
994.19882,0.05712
993.16856,0.05721
992.13830,0.05730
991.10804,0.05762
990.07779,0.05830
989.04753,0.05905
988.01727,0.05930
986.98701,0.05922
985.95676,0.05937
984.92650,0.05966
983.89624,0.05996
982.86598,0.06031
981.83572,0.06036
980.80547,0.06032
979.77521,0.06051
978.74495,0.06081
977.71469,0.06159
976.68443,0.06255
975.65418,0.06289
974.62392,0.06298
973.59366,0.06337
972.56340,0.06380
971.53315,0.06423
970.50289,0.06495
969.47263,0.06589
968.44237,0.06679
967.41211,0.06739
966.38186,0.06783
965.35160,0.06853
964.32134,0.06974
963.29108,0.07141
962.26082,0.07335
961.23057,0.07545
960.20031,0.07785
959.17005,0.08082
958.13979,0.08441
957.10954,0.08829
956.07928,0.09235
955.04902,0.09665
954.01876,0.10102
952.98850,0.10490
951.95825,0.10764
950.92799,0.10939
949.89773,0.11058
948.86747,0.11100
947.83722,0.11058
946.80696,0.10915
945.77670,0.10641
944.74644,0.10283
943.71618,0.09926
942.68593,0.09616
941.65567,0.09353
940.62541,0.09125
939.59515,0.08940
938.56489,0.08802
937.53464,0.08695
936.50438,0.08602
935.47412,0.08538
934.44386,0.08510
933.41361,0.08503
932.38335,0.08492
931.35309,0.08470
930.32283,0.08474
929.29257,0.08509
928.26232,0.08534
927.23206,0.08558
926.20180,0.08607
925.17154,0.08660
924.14128,0.08698
923.11103,0.08736
922.08077,0.08798
921.05051,0.08869
920.02025,0.08925
918.99000,0.08986
917.95974,0.09046
916.92948,0.09078
915.89922,0.09130
914.86896,0.09221
913.83871,0.09311
912.80845,0.09401
911.77819,0.09471
910.74793,0.09495
909.71768,0.09533
908.68742,0.09623
907.65716,0.09733
906.62690,0.09837
905.59664,0.09938
904.56639,0.10051
903.53613,0.10167
902.50587,0.10242
901.47561,0.10271
900.44535,0.10320
899.41510,0.10415
898.38484,0.10516
897.35458,0.10615
896.32432,0.10720
895.29407,0.10813
894.26381,0.10887
893.23355,0.10962
892.20329,0.11042
891.17303,0.11124
890.14278,0.11235
889.11252,0.11356
888.08226,0.11463
887.05200,0.11585
886.02174,0.11702
884.99149,0.11776
883.96123,0.11854
882.93097,0.11968
881.90071,0.12076
880.87046,0.12188
879.84020,0.12300
878.80994,0.12372
877.77968,0.12458
876.74942,0.12616
875.71917,0.12782
874.68891,0.12882
873.65865,0.12937
872.62839,0.13035
871.59813,0.13201
870.56788,0.13348
869.53762,0.13449
868.50736,0.13557
867.47710,0.13685
866.44685,0.13772
865.41659,0.13809
864.38633,0.13886
863.35607,0.14044
862.32581,0.14213
861.29556,0.14346
860.26530,0.14450
859.23504,0.14533
858.20478,0.14608
857.17453,0.14688
856.14427,0.14800
855.11401,0.14936
854.08375,0.15092
853.05349,0.15271
852.02324,0.15409
850.99298,0.15498
849.96272,0.15596
848.93246,0.15717
847.90220,0.15831
846.87195,0.15942
845.84169,0.16060
844.81143,0.16200
843.78117,0.16337
842.75092,0.16444
841.72066,0.16593
840.69040,0.16791
839.66014,0.16945
838.62988,0.17020
837.59963,0.17080
836.56937,0.17186
835.53911,0.17315
834.50885,0.17431
833.47859,0.17564
832.44834,0.17710
831.41808,0.17838
830.38782,0.17979
829.35756,0.18148
828.32731,0.18306
827.29705,0.18439
826.26679,0.18572
825.23653,0.18684
824.20627,0.18781
823.17602,0.18936
822.14576,0.19106
821.11550,0.19174
820.08524,0.19197
819.05498,0.19319
818.02473,0.19507
816.99447,0.19665
815.96421,0.19802
814.93395,0.19934
813.90370,0.20052
812.87344,0.20170
811.84318,0.20295
810.81292,0.20449
809.78266,0.20618
808.75241,0.20737
807.72215,0.20868
806.69189,0.21077
805.66163,0.21235
804.63138,0.21297
803.60112,0.21388
802.57086,0.21570
801.54060,0.21812
800.51034,0.21992
799.48009,0.22075
798.44983,0.22169
797.41957,0.22311
796.38931,0.22443
795.35905,0.22575
794.32880,0.22720
793.29854,0.22839
792.26828,0.22937
791.23802,0.23042
790.20777,0.23177
789.17751,0.23315
788.14725,0.23428
787.11699,0.23551
786.08673,0.23701
785.05648,0.23863
784.02622,0.24010
782.99596,0.24179
781.96570,0.24425
780.93544,0.24638
779.90519,0.24739
778.87493,0.24833
777.84467,0.24952
776.81441,0.25099
775.78416,0.25283
774.75390,0.25454
773.72364,0.25598
772.69338,0.25718
771.66312,0.25805
770.63287,0.25945
769.60261,0.26190
768.57235,0.26429
767.54209,0.26604
766.51183,0.26748
765.48158,0.26919
764.45132,0.27176
763.42106,0.27429
762.39080,0.27670
761.36055,0.28011
760.33029,0.28393
759.30003,0.28721
758.26977,0.28987
757.23951,0.29209
756.20926,0.29402
755.17900,0.29543
754.14874,0.29629
753.11848,0.29685
752.08823,0.29696
751.05797,0.29673
750.02771,0.29697
748.99745,0.29792
747.96719,0.29918
746.93694,0.30023
745.90668,0.30109
744.87642,0.30231
743.84616,0.30349
742.81590,0.30435
741.78565,0.30511
740.75539,0.30557
739.72513,0.30628
738.69487,0.30764
737.66462,0.30894
736.63436,0.30994
735.60410,0.31066
734.57384,0.31160
733.54358,0.31366
732.51333,0.31583
731.48307,0.31687
730.45281,0.31777
729.42255,0.31954
728.39229,0.32103
727.36204,0.32189
726.33178,0.32320
725.30152,0.32427
724.27126,0.32485
723.24101,0.32655
722.21075,0.32959
721.18049,0.33219
720.15023,0.33313
719.11997,0.33306
718.08972,0.33360
717.05946,0.33514
716.02920,0.33679
714.99894,0.33813
713.96868,0.33926
712.93843,0.34076
711.90817,0.34268
710.87791,0.34443
709.84765,0.34589
708.81740,0.34669
707.78714,0.34693
706.75688,0.34725
705.72662,0.34825
704.69636,0.35025
703.66611,0.35218
702.63585,0.35284
701.60559,0.35368
700.57533,0.35556
699.54508,0.35705
698.51482,0.35840
697.48456,0.36068
696.45430,0.36260
695.42404,0.36312
694.39379,0.36372
693.36353,0.36536
692.33327,0.36726
691.30301,0.36837
690.27275,0.36879
689.24250,0.36910
688.21224,0.36991
687.18198,0.37226
686.15172,0.37506
685.12147,0.37653
684.09121,0.37720
683.06095,0.37734
682.03069,0.37710
681.00043,0.37798
679.97018,0.38026
678.93992,0.38211
677.90966,0.38314
676.87940,0.38481
675.84914,0.38697
674.81889,0.38886
673.78863,0.39072
672.75837,0.39256
671.72811,0.39380
670.69786,0.39453
669.66760,0.39523
668.63734,0.39465
667.60708,0.39406
666.57682,0.39609
665.54657,0.39702
664.51631,0.39727
663.48605,0.39850
662.45579,0.39995
661.42553,0.40140
660.39528,0.40358
659.36502,0.40453
658.33476,0.40377
657.30450,0.40492
656.27425,0.40868
655.24399,0.41122
654.21373,0.41102
653.18347,0.41001
652.15321,0.41023
651.12296,0.41309
650.09270,0.41651
649.06244,0.41776
648.03218,0.41856
647.00193,0.42004
645.97167,0.42054
644.94141,0.42026
643.91115,0.42055
642.88089,0.42235
641.85064,0.42445
640.82038,0.42521
639.79012,0.42605
638.75986,0.42763
637.72960,0.42878
636.69935,0.42955
635.66909,0.43056
634.63883,0.43127
633.60857,0.43161
632.57832,0.43180
631.54806,0.43186
630.51780,0.43312
629.48754,0.43486
628.45728,0.43539
627.42703,0.43532
626.39677,0.43548
625.36651,0.43735
624.33625,0.44098
623.30599,0.44361
622.27574,0.44453
621.24548,0.44516
620.21522,0.44533
619.18496,0.44477
618.15471,0.44488
617.12445,0.44561
616.09419,0.44532
615.06393,0.44512
614.03367,0.44701
613.00342,0.44851
611.97316,0.44716
610.94290,0.44697
609.91264,0.44952
608.88238,0.45105
607.85213,0.45083
606.82187,0.45068
605.79161,0.45099
604.76135,0.45206
603.73110,0.45409
602.70084,0.45543
601.67058,0.45578
600.64032,0.45723
599.61006,0.46001
598.57981,0.46277
597.54955,0.46542
596.51929,0.46699
595.48903,0.46673
594.45878,0.46660
593.42852,0.46698
592.39826,0.46666
591.36800,0.46513
590.33774,0.46356
589.30749,0.46444
588.27723,0.46721
587.24697,0.47009
586.21671,0.47281
585.18645,0.47416
584.15620,0.47391
583.12594,0.47275
582.09568,0.47165
581.06542,0.47258
580.03517,0.47396
579.00491,0.47414
577.97465,0.47445
576.94439,0.47555
575.91413,0.47751
574.88388,0.47892
573.85362,0.47950
572.82336,0.48121
571.79310,0.48276
570.76284,0.48240
569.73259,0.48166
568.70233,0.48086
567.67207,0.48093
566.64181,0.48298
565.61156,0.48287
564.58130,0.47984
563.55104,0.47812
562.52078,0.47912
561.49052,0.48237
560.46027,0.48437
559.43001,0.48393
558.39975,0.48458
557.36949,0.48537
556.33924,0.48625
555.30898,0.49085
554.27872,0.49579
553.24846,0.49501
552.21820,0.49079
551.18795,0.48871
550.15769,0.49020
549.12743,0.49083
548.09717,0.48748
547.06691,0.48515
546.03666,0.48699
545.00640,0.49052
543.97614,0.49124
542.94588,0.48883
541.91563,0.48888
540.88537,0.49159
539.85511,0.49395
538.82485,0.49580
537.79459,0.49671
536.76434,0.49658
535.73408,0.49571
534.70382,0.49446
533.67356,0.49323
532.64330,0.49263
531.61305,0.49414
530.58279,0.49762
529.55253,0.50118
528.52227,0.50221
527.49202,0.50065
526.46176,0.50040
525.43150,0.50291
524.40124,0.50465
523.37098,0.50255
522.34073,0.49986
521.31047,0.50095
520.28021,0.50456
519.24995,0.50777
518.21969,0.51035
517.18944,0.51279
516.15918,0.51428
515.12892,0.51594
514.09866,0.51788
513.06841,0.51789
512.03815,0.51833
511.00789,0.52265
509.97763,0.52781
508.94737,0.52954
507.91712,0.52855
506.88686,0.52856
505.85660,0.53112
504.82634,0.53530
503.79609,0.54146
502.76583,0.54682
501.73557,0.54633
500.70531,0.54327
499.67505,0.54412
498.64480,0.54813
497.61454,0.55013
496.58428,0.54910
495.55402,0.54686
494.52376,0.54323
493.49351,0.54132
492.46325,0.54297
491.43299,0.54284
490.40273,0.54077
489.37248,0.54031
488.34222,0.53951
487.31196,0.53545
486.28170,0.53228
485.25144,0.53446
484.22119,0.53734
483.19093,0.53762
482.16067,0.53727
481.13041,0.53606
480.10015,0.53387
479.06990,0.53287
478.03964,0.53118
477.00938,0.52661
475.97912,0.52229
474.94887,0.52181
473.91861,0.52587
472.88835,0.53220
471.85809,0.53649
470.82783,0.53713
469.79758,0.53946
468.76732,0.54744
467.73706,0.55776
466.70680,0.56486
465.67654,0.56753
464.64629,0.57025
463.61603,0.57414
462.58577,0.57596
461.55551,0.57480
460.52526,0.56993
459.49500,0.56454
458.46474,0.56449
457.43448,0.56629
456.40422,0.56196
455.37397,0.55693
454.34371,0.55590
453.31345,0.55478
452.28319,0.55180
451.25294,0.54948
450.22268,0.54576
449.19242,0.53800
448.16216,0.53368
447.13190,0.53867
446.10165,0.54375
445.07139,0.54480
444.04113,0.54508
443.01087,0.54476
441.98061,0.54640
440.95036,0.54864
439.92010,0.54777
438.88984,0.54408
437.85958,0.53939
436.82933,0.53751
435.79907,0.54118
434.76881,0.54818
433.73855,0.54985
432.70829,0.54431
431.67804,0.53865
430.64778,0.53682
429.61752,0.54184
428.58726,0.54941
427.55700,0.54734
426.52675,0.53459
425.49649,0.52232
424.46623,0.52307
423.43597,0.52889
422.40572,0.52652
421.37546,0.52432
420.34520,0.52440
419.31494,0.52114
418.28468,0.52176
417.25443,0.52888
416.22417,0.53908
415.19391,0.54569
414.16365,0.53830
413.13339,0.52298
412.10314,0.51702
411.07288,0.52672
410.04262,0.53580
409.01236,0.53471
407.98211,0.53606
406.95185,0.54574
405.92159,0.54887
404.89133,0.53963
403.86107,0.53127
402.83082,0.52604
401.80056,0.52412
400.77030,0.52643
399.74004,0.52864
