4998.81105,0.00432
4997.78079,0.00443
4996.75054,0.00399
4995.72028,0.00314
4994.69002,0.00299
4993.65976,0.00379
4992.62951,0.00369
4991.59925,0.00244
4990.56899,0.00205
4989.53873,0.00222
4988.50847,0.00188
4987.47822,0.00169
4986.44796,0.00150
4985.41770,0.00128
4984.38744,0.00181
4983.35718,0.00286
4982.32693,0.00381
4981.29667,0.00402
4980.26641,0.00373
4979.23615,0.00357
4978.20590,0.00370
4977.17564,0.00398
4976.14538,0.00382
4975.11512,0.00398
4974.08486,0.00482
4973.05461,0.00440
4972.02435,0.00281
4970.99409,0.00219
4969.96383,0.00248
4968.93357,0.00279
4967.90332,0.00306
4966.87306,0.00287
4965.84280,0.00273
4964.81254,0.00311
4963.78229,0.00281
4962.75203,0.00223
4961.72177,0.00250
4960.69151,0.00278
4959.66125,0.00267
4958.63100,0.00332
4957.60074,0.00482
4956.57048,0.00533
4955.54022,0.00431
4954.50997,0.00324
4953.47971,0.00292
4952.44945,0.00263
4951.41919,0.00190
4950.38893,0.00165
4949.35868,0.00219
4948.32842,0.00251
4947.29816,0.00261
4946.26790,0.00323
4945.23764,0.00325
4944.20739,0.00235
4943.17713,0.00223
4942.14687,0.00290
4941.11661,0.00350
4940.08636,0.00385
4939.05610,0.00353
4938.02584,0.00292
4936.99558,0.00255
4935.96532,0.00221
4934.93507,0.00235
4933.90481,0.00347
4932.87455,0.00454
4931.84429,0.00405
4930.81403,0.00214
4929.78378,0.00067
4928.75352,0.00108
4927.72326,0.00243
4926.69300,0.00289
4925.66275,0.00226
4924.63249,0.00191
4923.60223,0.00239
4922.57197,0.00288
4921.54171,0.00302
4920.51146,0.00303
4919.48120,0.00316
4918.45094,0.00343
4917.42068,0.00369
4916.39042,0.00372
4915.36017,0.00331
4914.32991,0.00284
4913.29965,0.00266
4912.26939,0.00252
4911.23914,0.00248
4910.20888,0.00281
4909.17862,0.00301
4908.14836,0.00282
4907.11810,0.00293
4906.08785,0.00331
4905.05759,0.00378
4904.02733,0.00366
4902.99707,0.00216
4901.96682,0.00145
4900.93656,0.00228
4899.90630,0.00240
4898.87604,0.00238
4897.84578,0.00300
4896.81553,0.00263
4895.78527,0.00154
4894.75501,0.00142
4893.72475,0.00207
4892.69449,0.00273
4891.66424,0.00299
4890.63398,0.00272
4889.60372,0.00237
4888.57346,0.00245
4887.54321,0.00303
4886.51295,0.00371
4885.48269,0.00423
4884.45243,0.00419
4883.42217,0.00327
4882.39192,0.00251
4881.36166,0.00292
4880.33140,0.00306
4879.30114,0.00226
4878.27088,0.00241
4877.24063,0.00312
4876.21037,0.00263
4875.18011,0.00180
4874.14985,0.00194
4873.11960,0.00256
4872.08934,0.00264
4871.05908,0.00255
4870.02882,0.00319
4868.99856,0.00397
4867.96831,0.00362
4866.93805,0.00239
4865.90779,0.00177
4864.87753,0.00185
4863.84727,0.00182
4862.81702,0.00149
4861.78676,0.00098
4860.75650,0.00075
4859.72624,0.00064
4858.69599,0.00063
4857.66573,0.00110
4856.63547,0.00144
4855.60521,0.00122
4854.57495,0.00096
4853.54470,0.00111
4852.51444,0.00117
4851.48418,0.00107
4850.45392,0.00138
4849.42367,0.00196
4848.39341,0.00304
4847.36315,0.00418
4846.33289,0.00385
4845.30263,0.00293
4844.27238,0.00271
4843.24212,0.00258
4842.21186,0.00241
4841.18160,0.00248
4840.15134,0.00236
4839.12109,0.00189
4838.09083,0.00142
4837.06057,0.00101
4836.03031,0.00079
4835.00006,0.00078
4833.96980,0.00095
4832.93954,0.00142
4831.90928,0.00155
4830.87902,0.00147
4829.84877,0.00202
4828.81851,0.00222
4827.78825,0.00172
4826.75799,0.00174
4825.72773,0.00212
4824.69748,0.00266
4823.66722,0.00362
4822.63696,0.00404
4821.60670,0.00340
4820.57645,0.00258
4819.54619,0.00195
4818.51593,0.00195
4817.48567,0.00282
4816.45541,0.00327
4815.42516,0.00319
4814.39490,0.00339
4813.36464,0.00305
4812.33438,0.00193
4811.30412,0.00147
4810.27387,0.00174
4809.24361,0.00194
4808.21335,0.00202
4807.18309,0.00172
4806.15284,0.00159
4805.12258,0.00226
4804.09232,0.00303
4803.06206,0.00305
4802.03180,0.00224
4801.00155,0.00188
4799.97129,0.00263
4798.94103,0.00328
4797.91077,0.00341
4796.88052,0.00312
4795.85026,0.00269
4794.82000,0.00242
4793.78974,0.00194
4792.75948,0.00165
4791.72923,0.00205
4790.69897,0.00283
4789.66871,0.00297
4788.63845,0.00243
4787.60819,0.00216
4786.57794,0.00201
4785.54768,0.00177
4784.51742,0.00190
4783.48716,0.00181
4782.45691,0.00103
4781.42665,0.00108
4780.39639,0.00185
4779.36613,0.00199
4778.33587,0.00193
4777.30562,0.00191
4776.27536,0.00183
4775.24510,0.00187
4774.21484,0.00170
4773.18458,0.00144
4772.15433,0.00146
4771.12407,0.00175
4770.09381,0.00204
4769.06355,0.00171
4768.03330,0.00126
4767.00304,0.00133
4765.97278,0.00136
4764.94252,0.00134
4763.91226,0.00167
4762.88201,0.00207
4761.85175,0.00235
4760.82149,0.00212
4759.79123,0.00143
4758.76098,0.00146
4757.73072,0.00257
4756.70046,0.00360
4755.67020,0.00403
4754.63994,0.00419
4753.60969,0.00370
4752.57943,0.00261
4751.54917,0.00235
4750.51891,0.00331
4749.48865,0.00391
4748.45840,0.00293
4747.42814,0.00160
4746.39788,0.00155
4745.36762,0.00213
4744.33737,0.00216
4743.30711,0.00189
4742.27685,0.00180
4741.24659,0.00159
4740.21633,0.00139
4739.18608,0.00181
4738.15582,0.00237
4737.12556,0.00206
4736.09530,0.00129
4735.06504,0.00098
4734.03479,0.00121
4733.00453,0.00183
4731.97427,0.00247
4730.94401,0.00269
4729.91376,0.00270
4728.88350,0.00245
4727.85324,0.00205
4726.82298,0.00188
4725.79272,0.00180
4724.76247,0.00145
4723.73221,0.00097
4722.70195,0.00075
4721.67169,0.00064
4720.64143,0.00110
4719.61118,0.00190
4718.58092,0.00164
4717.55066,0.00091
4716.52040,0.00096
4715.49015,0.00172
4714.45989,0.00263
4713.42963,0.00324
4712.39937,0.00331
4711.36911,0.00259
4710.33886,0.00155
4709.30860,0.00146
4708.27834,0.00183
4707.24808,0.00156
4706.21783,0.00112
4705.18757,0.00127
4704.15731,0.00189
4703.12705,0.00206
4702.09679,0.00168
4701.06654,0.00123
4700.03628,0.00075
4699.00602,0.00063
4697.97576,0.00130
4696.94550,0.00220
4695.91525,0.00234
4694.88499,0.00207
4693.85473,0.00221
4692.82447,0.00233
4691.79422,0.00213
4690.76396,0.00216
4689.73370,0.00263
4688.70344,0.00343
4687.67318,0.00376
4686.64293,0.00298
4685.61267,0.00203
4684.58241,0.00185
4683.55215,0.00193
4682.52189,0.00162
4681.49164,0.00107
4680.46138,0.00076
4679.43112,0.00106
4678.40086,0.00159
4677.37061,0.00191
4676.34035,0.00208
4675.31009,0.00206
4674.27983,0.00180
4673.24957,0.00181
4672.21932,0.00235
4671.18906,0.00260
4670.15880,0.00236
4669.12854,0.00195
4668.09828,0.00145
4667.06803,0.00139
4666.03777,0.00187
4665.00751,0.00227
4663.97725,0.00269
4662.94700,0.00327
4661.91674,0.00310
4660.88648,0.00235
4659.85622,0.00240
4658.82596,0.00296
4657.79571,0.00261
4656.76545,0.00177
4655.73519,0.00204
4654.70493,0.00311
4653.67468,0.00302
4652.64442,0.00203
4651.61416,0.00185
4650.58390,0.00208
4649.55364,0.00218
4648.52339,0.00204
4647.49313,0.00145
4646.46287,0.00093
4645.43261,0.00101
4644.40235,0.00179
4643.37210,0.00271
4642.34184,0.00296
4641.31158,0.00259
4640.28132,0.00202
4639.25107,0.00217
4638.22081,0.00337
4637.19055,0.00411
4636.16029,0.00359
4635.13003,0.00249
4634.09978,0.00209
4633.06952,0.00225
4632.03926,0.00164
4631.00900,0.00068
4629.97874,0.00031
4628.94849,0.00055
4627.91823,0.00147
4626.88797,0.00258
4625.85771,0.00285
4624.82746,0.00266
4623.79720,0.00283
4622.76694,0.00324
4621.73668,0.00310
4620.70642,0.00233
4619.67617,0.00231
4618.64591,0.00286
4617.61565,0.00277
4616.58539,0.00245
4615.55513,0.00224
4614.52488,0.00169
4613.49462,0.00131
4612.46436,0.00155
4611.43410,0.00175
4610.40385,0.00154
4609.37359,0.00118
4608.34333,0.00122
4607.31307,0.00181
4606.28281,0.00208
4605.25256,0.00151
4604.22230,0.00089
4603.19204,0.00072
4602.16178,0.00096
4601.13153,0.00157
4600.10127,0.00220
4599.07101,0.00229
4598.04075,0.00182
4597.01049,0.00139
4595.98024,0.00122
4594.94998,0.00133
4593.91972,0.00162
4592.88946,0.00181
4591.85920,0.00206
4590.82895,0.00226
4589.79869,0.00223
4588.76843,0.00235
4587.73817,0.00264
4586.70792,0.00296
4585.67766,0.00312
4584.64740,0.00278
4583.61714,0.00263
4582.58688,0.00261
4581.55663,0.00144
4580.52637,0.00041
4579.49611,0.00119
4578.46585,0.00234
4577.43559,0.00260
4576.40534,0.00252
4575.37508,0.00259
4574.34482,0.00271
4573.31456,0.00256
4572.28431,0.00244
4571.25405,0.00255
4570.22379,0.00257
4569.19353,0.00248
4568.16327,0.00216
4567.13302,0.00166
4566.10276,0.00169
4565.07250,0.00202
4564.04224,0.00195
4563.01198,0.00163
4561.98173,0.00147
4560.95147,0.00177
4559.92121,0.00216
4558.89095,0.00202
4557.86070,0.00137
4556.83044,0.00095
4555.80018,0.00118
4554.76992,0.00156
4553.73966,0.00145
4552.70941,0.00086
4551.67915,0.00076
4550.64889,0.00128
4549.61863,0.00139
4548.58838,0.00143
4547.55812,0.00174
4546.52786,0.00184
4545.49760,0.00182
4544.46734,0.00189
4543.43709,0.00219
4542.40683,0.00259
4541.37657,0.00242
4540.34631,0.00189
4539.31605,0.00178
4538.28580,0.00221
4537.25554,0.00252
4536.22528,0.00231
4535.19502,0.00203
4534.16477,0.00176
4533.13451,0.00153
4532.10425,0.00194
4531.07399,0.00265
4530.04373,0.00225
4529.01348,0.00104
4527.98322,0.00078
4526.95296,0.00137
4525.92270,0.00180
4524.89244,0.00230
4523.86219,0.00257
4522.83193,0.00209
4521.80167,0.00175
4520.77141,0.00196
4519.74116,0.00219
4518.71090,0.00226
4517.68064,0.00194
4516.65038,0.00157
4515.62012,0.00156
4514.58987,0.00147
4513.55961,0.00133
4512.52935,0.00167
4511.49909,0.00206
4510.46883,0.00190
4509.43858,0.00168
4508.40832,0.00184
4507.37806,0.00223
4506.34780,0.00220
4505.31755,0.00142
4504.28729,0.00100
4503.25703,0.00147
4502.22677,0.00189
4501.19651,0.00162
4500.16626,0.00102
4499.13600,0.00085
4498.10574,0.00111
4497.07548,0.00127
4496.04523,0.00159
4495.01497,0.00211
4493.98471,0.00221
4492.95445,0.00219
4491.92419,0.00287
4490.89394,0.00368
4489.86368,0.00357
4488.83342,0.00299
4487.80316,0.00273
4486.77290,0.00225
4485.74265,0.00142
4484.71239,0.00142
4483.68213,0.00214
4482.65187,0.00224
4481.62162,0.00173
4480.59136,0.00133
4479.56110,0.00134
4478.53084,0.00166
4477.50058,0.00199
4476.47033,0.00234
4475.44007,0.00228
4474.40981,0.00135
4473.37955,0.00074
4472.34929,0.00108
4471.31904,0.00153
4470.28878,0.00187
4469.25852,0.00195
4468.22826,0.00145
4467.19801,0.00135
4466.16775,0.00192
4465.13749,0.00203
4464.10723,0.00195
4463.07697,0.00249
4462.04672,0.00301
4461.01646,0.00276
4459.98620,0.00238
4458.95594,0.00200
4457.92568,0.00119
4456.89543,0.00043
4455.86517,0.00006
4454.83491,0.00044
4453.80465,0.00157
4452.77440,0.00274
4451.74414,0.00291
4450.71388,0.00247
4449.68362,0.00253
4448.65336,0.00254
4447.62311,0.00216
4446.59285,0.00221
4445.56259,0.00266
4444.53233,0.00290
4443.50208,0.00255
4442.47182,0.00151
4441.44156,0.00070
4440.41130,0.00106
4439.38104,0.00199
4438.35079,0.00238
4437.32053,0.00229
4436.29027,0.00219
4435.26001,0.00189
4434.22975,0.00135
4433.19950,0.00085
4432.16924,0.00076
4431.13898,0.00112
4430.10872,0.00155
4429.07847,0.00174
4428.04821,0.00171
4427.01795,0.00162
4425.98769,0.00160
4424.95743,0.00179
4423.92718,0.00197
4422.89692,0.00199
4421.86666,0.00220
4420.83640,0.00289
4419.80614,0.00340
4418.77589,0.00271
4417.74563,0.00201
4416.71537,0.00235
4415.68511,0.00264
4414.65486,0.00252
4413.62460,0.00241
4412.59434,0.00241
4411.56408,0.00216
4410.53382,0.00135
4409.50357,0.00089
4408.47331,0.00138
4407.44305,0.00224
4406.41279,0.00259
4405.38253,0.00234
4404.35228,0.00201
4403.32202,0.00191
4402.29176,0.00202
4401.26150,0.00201
4400.23125,0.00200
4399.20099,0.00223
4398.17073,0.00227
4397.14047,0.00234
4396.11021,0.00267
4395.07996,0.00258
4394.04970,0.00236
4393.01944,0.00235
4391.98918,0.00218
4390.95893,0.00192
4389.92867,0.00193
4388.89841,0.00225
4387.86815,0.00260
4386.83789,0.00268
4385.80764,0.00261
4384.77738,0.00283
4383.74712,0.00288
4382.71686,0.00250
4381.68660,0.00245
4380.65635,0.00275
4379.62609,0.00249
4378.59583,0.00175
4377.56557,0.00141
4376.53532,0.00150
4375.50506,0.00202
4374.47480,0.00276
4373.44454,0.00297
4372.41428,0.00249
4371.38403,0.00209
4370.35377,0.00232
4369.32351,0.00242
4368.29325,0.00237
4367.26299,0.00283
4366.23274,0.00335
4365.20248,0.00329
4364.17222,0.00283
4363.14196,0.00286
4362.11171,0.00321
4361.08145,0.00309
4360.05119,0.00258
4359.02093,0.00238
4357.99067,0.00282
4356.96042,0.00330
4355.93016,0.00325
4354.89990,0.00293
4353.86964,0.00268
4352.83939,0.00226
4351.80913,0.00195
4350.77887,0.00237
4349.74861,0.00305
4348.71835,0.00296
4347.68810,0.00196
4346.65784,0.00122
4345.62758,0.00131
4344.59732,0.00169
4343.56706,0.00221
4342.53681,0.00274
4341.50655,0.00273
4340.47629,0.00208
4339.44603,0.00154
4338.41578,0.00163
4337.38552,0.00193
4336.35526,0.00201
4335.32500,0.00208
4334.29474,0.00229
4333.26449,0.00251
4332.23423,0.00291
4331.20397,0.00332
4330.17371,0.00311
4329.14345,0.00249
4328.11320,0.00220
4327.08294,0.00208
4326.05268,0.00146
4325.02242,0.00089
4323.99217,0.00122
4322.96191,0.00183
4321.93165,0.00191
4320.90139,0.00205
4319.87113,0.00280
4318.84088,0.00308
4317.81062,0.00248
4316.78036,0.00228
4315.75010,0.00260
4314.71984,0.00262
4313.68959,0.00257
4312.65933,0.00259
4311.62907,0.00237
4310.59881,0.00204
4309.56856,0.00194
4308.53830,0.00184
4307.50804,0.00159
4306.47778,0.00169
4305.44752,0.00203
4304.41727,0.00235
4303.38701,0.00271
4302.35675,0.00282
4301.32649,0.00268
4300.29624,0.00221
4299.26598,0.00146
4298.23572,0.00104
4297.20546,0.00128
4296.17520,0.00187
4295.14495,0.00228
4294.11469,0.00227
4293.08443,0.00191
4292.05417,0.00184
4291.02391,0.00208
4289.99366,0.00191
4288.96340,0.00170
4287.93314,0.00188
4286.90288,0.00195
4285.87263,0.00183
4284.84237,0.00170
4283.81211,0.00164
4282.78185,0.00179
4281.75159,0.00180
4280.72134,0.00142
4279.69108,0.00108
4278.66082,0.00128
4277.63056,0.00164
4276.60030,0.00163
4275.57005,0.00165
4274.53979,0.00182
4273.50953,0.00187
4272.47927,0.00218
4271.44902,0.00298
4270.41876,0.00344
4269.38850,0.00295
4268.35824,0.00221
4267.32798,0.00193
4266.29773,0.00198
4265.26747,0.00230
4264.23721,0.00279
4263.20695,0.00278
4262.17669,0.00209
4261.14644,0.00155
4260.11618,0.00167
4259.08592,0.00202
4258.05566,0.00214
4257.02541,0.00219
4255.99515,0.00251
4254.96489,0.00262
4253.93463,0.00222
4252.90437,0.00184
4251.87412,0.00177
4250.84386,0.00198
4249.81360,0.00218
4248.78334,0.00200
4247.75309,0.00185
4246.72283,0.00211
4245.69257,0.00221
4244.66231,0.00211
4243.63205,0.00246
4242.60180,0.00307
4241.57154,0.00324
4240.54128,0.00284
4239.51102,0.00233
4238.48076,0.00212
4237.45051,0.00239
4236.42025,0.00273
4235.38999,0.00263
4234.35973,0.00248
4233.32948,0.00264
4232.29922,0.00277
4231.26896,0.00257
4230.23870,0.00224
4229.20844,0.00219
4228.17819,0.00236
4227.14793,0.00247
4226.11767,0.00249
4225.08741,0.00252
4224.05715,0.00281
4223.02690,0.00316
4221.99664,0.00293
4220.96638,0.00222
4219.93612,0.00211
4218.90587,0.00292
4217.87561,0.00339
4216.84535,0.00283
4215.81509,0.00240
4214.78483,0.00272
4213.75458,0.00291
4212.72432,0.00264
4211.69406,0.00263
4210.66380,0.00271
4209.63354,0.00229
4208.60329,0.00207
4207.57303,0.00244
4206.54277,0.00266
4205.51251,0.00240
4204.48226,0.00205
4203.45200,0.00180
4202.42174,0.00187
4201.39148,0.00218
4200.36122,0.00225
4199.33097,0.00203
4198.30071,0.00160
4197.27045,0.00136
4196.24019,0.00150
4195.20994,0.00153
4194.17968,0.00161
4193.14942,0.00217
4192.11916,0.00292
4191.08890,0.00316
4190.05865,0.00260
4189.02839,0.00214
4187.99813,0.00234
4186.96787,0.00246
4185.93761,0.00233
4184.90736,0.00267
4183.87710,0.00337
4182.84684,0.00365
4181.81658,0.00334
4180.78633,0.00287
4179.75607,0.00264
4178.72581,0.00275
4177.69555,0.00278
4176.66529,0.00272
4175.63504,0.00272
4174.60478,0.00255
4173.57452,0.00270
4172.54426,0.00323
4171.51400,0.00339
4170.48375,0.00307
4169.45349,0.00251
4168.42323,0.00195
4167.39297,0.00137
4166.36272,0.00095
4165.33246,0.00107
4164.30220,0.00164
4163.27194,0.00234
4162.24168,0.00284
4161.21143,0.00281
4160.18117,0.00264
4159.15091,0.00297
4158.12065,0.00339
4157.09039,0.00384
4156.06014,0.00433
4155.02988,0.00417
4153.99962,0.00357
4152.96936,0.00307
4151.93911,0.00263
4150.90885,0.00237
4149.87859,0.00238
4148.84833,0.00253
4147.81807,0.00281
4146.78782,0.00332
4145.75756,0.00369
4144.72730,0.00335
4143.69704,0.00247
4142.66679,0.00199
4141.63653,0.00241
4140.60627,0.00316
4139.57601,0.00333
4138.54575,0.00307
4137.51550,0.00308
4136.48524,0.00318
4135.45498,0.00301
4134.42472,0.00291
4133.39446,0.00332
4132.36421,0.00371
4131.33395,0.00364
4130.30369,0.00358
4129.27343,0.00350
4128.24318,0.00317
4127.21292,0.00302
4126.18266,0.00321
4125.15240,0.00327
4124.12214,0.00316
4123.09189,0.00302
4122.06163,0.00303
4121.03137,0.00333
4120.00111,0.00337
4118.97085,0.00297
4117.94060,0.00257
4116.91034,0.00253
4115.88008,0.00267
4114.84982,0.00255
4113.81957,0.00252
4112.78931,0.00306
4111.75905,0.00353
4110.72879,0.00342
4109.69853,0.00328
4108.66828,0.00344
4107.63802,0.00377
4106.60776,0.00422
4105.57750,0.00426
4104.54724,0.00360
4103.51699,0.00290
4102.48673,0.00279
4101.45647,0.00327
4100.42621,0.00371
4099.39596,0.00368
4098.36570,0.00347
4097.33544,0.00318
4096.30518,0.00300
4095.27492,0.00322
4094.24467,0.00349
4093.21441,0.00349
4092.18415,0.00343
4091.15389,0.00322
4090.12364,0.00308
4089.09338,0.00318
4088.06312,0.00299
4087.03286,0.00261
4086.00260,0.00263
4084.97235,0.00322
4083.94209,0.00374
4082.91183,0.00377
4081.88157,0.00350
4080.85131,0.00323
4079.82106,0.00335
4078.79080,0.00371
4077.76054,0.00379
4076.73028,0.00357
4075.70003,0.00350
4074.66977,0.00370
4073.63951,0.00376
4072.60925,0.00364
4071.57899,0.00380
4070.54874,0.00404
4069.51848,0.00406
4068.48822,0.00406
4067.45796,0.00401
4066.42770,0.00382
4065.39745,0.00363
4064.36719,0.00363
4063.33693,0.00401
4062.30667,0.00409
4061.27642,0.00363
4060.24616,0.00345
4059.21590,0.00351
4058.18564,0.00345
4057.15538,0.00351
4056.12513,0.00392
4055.09487,0.00420
4054.06461,0.00410
4053.03435,0.00396
4052.00409,0.00385
4050.97384,0.00384
4049.94358,0.00366
4048.91332,0.00329
4047.88306,0.00317
4046.85281,0.00323
4045.82255,0.00341
4044.79229,0.00373
4043.76203,0.00373
4042.73177,0.00337
4041.70152,0.00320
4040.67126,0.00352
4039.64100,0.00388
4038.61074,0.00399
4037.58049,0.00396
4036.55023,0.00371
4035.51997,0.00333
4034.48971,0.00322
4033.45945,0.00346
4032.42920,0.00357
4031.39894,0.00337
4030.36868,0.00337
4029.33842,0.00364
4028.30816,0.00358
4027.27791,0.00346
4026.24765,0.00395
4025.21739,0.00467
4024.18713,0.00464
4023.15688,0.00390
4022.12662,0.00318
4021.09636,0.00297
4020.06610,0.00359
4019.03584,0.00404
4018.00559,0.00362
4016.97533,0.00344
4015.94507,0.00405
4014.91481,0.00448
4013.88455,0.00426
4012.85430,0.00400
4011.82404,0.00384
4010.79378,0.00384
4009.76352,0.00408
4008.73327,0.00405
4007.70301,0.00369
4006.67275,0.00351
4005.64249,0.00364
4004.61223,0.00390
4003.58198,0.00378
4002.55172,0.00349
4001.52146,0.00351
4000.49120,0.00355
3999.46095,0.00385
3998.43069,0.00433
3997.40043,0.00440
3996.37017,0.00443
3995.33991,0.00442
3994.30966,0.00403
3993.27940,0.00370
3992.24914,0.00386
3991.21888,0.00436
3990.18862,0.00466
3989.15837,0.00436
3988.12811,0.00369
3987.09785,0.00326
3986.06759,0.00363
3985.03734,0.00452
3984.00708,0.00492
3982.97682,0.00449
3981.94656,0.00380
3980.91630,0.00336
3979.88605,0.00329
3978.85579,0.00350
3977.82553,0.00381
3976.79527,0.00415
3975.76501,0.00433
3974.73476,0.00415
3973.70450,0.00386
3972.67424,0.00343
3971.64398,0.00290
3970.61373,0.00303
3969.58347,0.00365
3968.55321,0.00404
3967.52295,0.00437
3966.49269,0.00472
3965.46244,0.00473
3964.43218,0.00462
3963.40192,0.00465
3962.37166,0.00451
3961.34140,0.00431
3960.31115,0.00417
3959.28089,0.00403
3958.25063,0.00404
3957.22037,0.00416
3956.19012,0.00403
3955.15986,0.00393
3954.12960,0.00424
3953.09934,0.00462
3952.06908,0.00472
3951.03883,0.00464
3950.00857,0.00451
3948.97831,0.00408
3947.94805,0.00368
3946.91780,0.00383
3945.88754,0.00409
3944.85728,0.00411
3943.82702,0.00416
3942.79676,0.00429
3941.76651,0.00421
3940.73625,0.00391
3939.70599,0.00381
3938.67573,0.00391
3937.64547,0.00389
3936.61522,0.00374
3935.58496,0.00368
3934.55470,0.00367
3933.52444,0.00340
3932.49419,0.00330
3931.46393,0.00375
3930.43367,0.00416
3929.40341,0.00442
3928.37315,0.00440
3927.34290,0.00396
3926.31264,0.00385
3925.28238,0.00434
3924.25212,0.00475
3923.22186,0.00475
3922.19161,0.00437
3921.16135,0.00408
3920.13109,0.00445
3919.10083,0.00473
3918.07058,0.00434
3917.04032,0.00380
3916.01006,0.00351
3914.97980,0.00359
3913.94954,0.00386
3912.91929,0.00412
3911.88903,0.00416
3910.85877,0.00411
3909.82851,0.00422
3908.79825,0.00424
3907.76800,0.00422
3906.73774,0.00428
3905.70748,0.00405
3904.67722,0.00350
3903.64697,0.00340
3902.61671,0.00377
3901.58645,0.00383
3900.55619,0.00368
3899.52593,0.00409
3898.49568,0.00457
3897.46542,0.00445
3896.43516,0.00429
3895.40490,0.00421
3894.37465,0.00397
3893.34439,0.00366
3892.31413,0.00339
3891.28387,0.00325
3890.25361,0.00347
3889.22336,0.00355
3888.19310,0.00343
3887.16284,0.00381
3886.13258,0.00453
3885.10232,0.00499
3884.07207,0.00510
3883.04181,0.00486
3882.01155,0.00447
3880.98129,0.00410
3879.95104,0.00378
3878.92078,0.00389
3877.89052,0.00442
3876.86026,0.00478
3875.83000,0.00488
3874.79975,0.00518
3873.76949,0.00547
3872.73923,0.00529
3871.70897,0.00505
3870.67871,0.00500
3869.64846,0.00479
3868.61820,0.00456
3867.58794,0.00467
3866.55768,0.00454
3865.52743,0.00406
3864.49717,0.00414
3863.46691,0.00475
3862.43665,0.00463
3861.40639,0.00401
3860.37614,0.00396
3859.34588,0.00408
3858.31562,0.00406
3857.28536,0.00422
3856.25510,0.00415
3855.22485,0.00400
3854.19459,0.00466
3853.16433,0.00527
3852.13407,0.00510
3851.10382,0.00511
3850.07356,0.00511
3849.04330,0.00493
3848.01304,0.00469
3846.98278,0.00427
3845.95253,0.00383
3844.92227,0.00362
3843.89201,0.00366
3842.86175,0.00379
3841.83150,0.00411
3840.80124,0.00452
3839.77098,0.00462
3838.74072,0.00474
3837.71046,0.00476
3836.68021,0.00445
3835.64995,0.00435
3834.61969,0.00437
3833.58943,0.00421
3832.55917,0.00384
3831.52892,0.00374
3830.49866,0.00427
3829.46840,0.00497
3828.43814,0.00548
3827.40789,0.00556
3826.37763,0.00537
3825.34737,0.00525
3824.31711,0.00503
3823.28685,0.00479
3822.25660,0.00485
3821.22634,0.00540
3820.19608,0.00564
3819.16582,0.00497
3818.13556,0.00446
3817.10531,0.00431
3816.07505,0.00409
3815.04479,0.00417
3814.01453,0.00437
3812.98428,0.00444
3811.95402,0.00457
3810.92376,0.00460
3809.89350,0.00455
3808.86324,0.00467
3807.83299,0.00482
3806.80273,0.00474
3805.77247,0.00464
3804.74221,0.00462
3803.71195,0.00455
3802.68170,0.00457
3801.65144,0.00499
3800.62118,0.00544
3799.59092,0.00558
3798.56067,0.00583
3797.53041,0.00596
3796.50015,0.00551
3795.46989,0.00500
3794.43963,0.00494
3793.40938,0.00509
3792.37912,0.00512
3791.34886,0.00509
3790.31860,0.00538
3789.28835,0.00576
3788.25809,0.00582
3787.22783,0.00580
3786.19757,0.00570
3785.16731,0.00536
3784.13706,0.00526
3783.10680,0.00545
3782.07654,0.00542
3781.04628,0.00538
3780.01602,0.00542
3778.98577,0.00556
3777.95551,0.00614
3776.92525,0.00658
3775.89499,0.00636
3774.86474,0.00607
3773.83448,0.00603
3772.80422,0.00607
3771.77396,0.00585
3770.74370,0.00527
3769.71345,0.00507
3768.68319,0.00563
3767.65293,0.00622
3766.62267,0.00641
3765.59241,0.00602
3764.56216,0.00554
3763.53190,0.00611
3762.50164,0.00750
3761.47138,0.00824
3760.44113,0.00803
3759.41087,0.00777
3758.38061,0.00756
3757.35035,0.00708
3756.32009,0.00676
3755.28984,0.00660
3754.25958,0.00654
3753.22932,0.00682
3752.19906,0.00678
3751.16880,0.00637
3750.13855,0.00682
3749.10829,0.00747
3748.07803,0.00694
3747.04777,0.00603
3746.01752,0.00581
3744.98726,0.00664
3743.95700,0.00731
3742.92674,0.00682
3741.89648,0.00674
3740.86623,0.00729
3739.83597,0.00768
3738.80571,0.00776
3737.77545,0.00778
3736.74520,0.00765
3735.71494,0.00746
3734.68468,0.00755
3733.65442,0.00790
3732.62416,0.00784
3731.59391,0.00719
3730.56365,0.00713
3729.53339,0.00765
3728.50313,0.00792
3727.47287,0.00794
3726.44262,0.00814
3725.41236,0.00873
3724.38210,0.00912
3723.35184,0.00901
3722.32159,0.00901
3721.29133,0.00913
3720.26107,0.00930
3719.23081,0.00999
3718.20055,0.01051
3717.17030,0.01032
3716.14004,0.01024
3715.10978,0.01076
3714.07952,0.01191
3713.04926,0.01287
3712.01901,0.01217
3710.98875,0.01069
3709.95849,0.01060
3708.92823,0.01137
3707.89798,0.01182
3706.86772,0.01209
3705.83746,0.01242
3704.80720,0.01270
3703.77694,0.01265
3702.74669,0.01249
3701.71643,0.01270
3700.68617,0.01331
3699.65591,0.01396
3698.62565,0.01455
3697.59540,0.01518
3696.56514,0.01576
3695.53488,0.01621
3694.50462,0.01675
3693.47437,0.01726
3692.44411,0.01729
3691.41385,0.01721
3690.38359,0.01793
3689.35333,0.01874
3688.32308,0.01883
3687.29282,0.01923
3686.26256,0.02018
3685.23230,0.02088
3684.20205,0.02140
3683.17179,0.02207
3682.14153,0.02287
3681.11127,0.02356
3680.08101,0.02400
3679.05076,0.02433
3678.02050,0.02509
3676.99024,0.02633
3675.95998,0.02776
3674.92972,0.02911
3673.89947,0.02991
3672.86921,0.03020
3671.83895,0.03045
3670.80869,0.03148
3669.77844,0.03342
3668.74818,0.03475
3667.71792,0.03500
3666.68766,0.03530
3665.65740,0.03623
3664.62715,0.03741
3663.59689,0.03862
3662.56663,0.03981
3661.53637,0.04088
3660.50611,0.04197
3659.47586,0.04310
3658.44560,0.04390
3657.41534,0.04463
3656.38508,0.04572
3655.35483,0.04649
3654.32457,0.04700
3653.29431,0.04831
3652.26405,0.05002
3651.23379,0.05112
3650.20354,0.05195
3649.17328,0.05327
3648.14302,0.05440
3647.11276,0.05520
3646.08250,0.05647
3645.05225,0.05765
3644.02199,0.05836
3642.99173,0.05928
3641.96147,0.06039
3640.93122,0.06140
3639.90096,0.06240
3638.87070,0.06313
3637.84044,0.06384
3636.81018,0.06511
3635.77993,0.06656
3634.74967,0.06748
3633.71941,0.06814
3632.68915,0.06945
3631.65890,0.07128
3630.62864,0.07248
3629.59838,0.07264
3628.56812,0.07299
3627.53786,0.07430
3626.50761,0.07544
3625.47735,0.07591
3624.44709,0.07623
3623.41683,0.07706
3622.38657,0.07803
3621.35632,0.07855
3620.32606,0.07904
3619.29580,0.08011
3618.26554,0.08163
3617.23529,0.08318
3616.20503,0.08429
3615.17477,0.08477
3614.14451,0.08485
3613.11425,0.08524
3612.08400,0.08638
3611.05374,0.08759
3610.02348,0.08845
3608.99322,0.08936
3607.96296,0.09052
3606.93271,0.09215
3605.90245,0.09375
3604.87219,0.09429
3603.84193,0.09441
3602.81168,0.09496
3601.78142,0.09556
3600.75116,0.09610
3599.72090,0.09728
3598.69064,0.09877
3597.66039,0.09987
3596.63013,0.10089
3595.59987,0.10204
3594.56961,0.10320
3593.53936,0.10409
3592.50910,0.10438
3591.47884,0.10476
3590.44858,0.10579
3589.41832,0.10739
3588.38807,0.10913
3587.35781,0.11006
3586.32755,0.11036
3585.29729,0.11097
3584.26703,0.11202
3583.23678,0.11342
3582.20652,0.11441
3581.17626,0.11463
3580.14600,0.11511
3579.11575,0.11621
3578.08549,0.11717
3577.05523,0.11818
3576.02497,0.11973
3574.99471,0.12081
3573.96446,0.12107
3572.93420,0.12186
3571.90394,0.12340
3570.87368,0.12488
3569.84342,0.12622
3568.81317,0.12745
3567.78291,0.12795
3566.75265,0.12819
3565.72239,0.12907
3564.69214,0.13002
3563.66188,0.13119
3562.63162,0.13281
3561.60136,0.13398
3560.57110,0.13464
3559.54085,0.13577
3558.51059,0.13742
3557.48033,0.13873
3556.45007,0.13941
3555.41981,0.13997
3554.38956,0.14098
3553.35930,0.14242
3552.32904,0.14350
3551.29878,0.14397
3550.26853,0.14466
3549.23827,0.14609
3548.20801,0.14785
3547.17775,0.14912
3546.14749,0.14996
3545.11724,0.15101
3544.08698,0.15228
3543.05672,0.15345
3542.02646,0.15448
3540.99621,0.15536
3539.96595,0.15605
3538.93569,0.15717
3537.90543,0.15889
3536.87517,0.16039
3535.84492,0.16150
3534.81466,0.16274
3533.78440,0.16388
3532.75414,0.16461
3531.72388,0.16535
3530.69363,0.16617
3529.66337,0.16710
3528.63311,0.16878
3527.60285,0.17103
3526.57260,0.17258
3525.54234,0.17323
3524.51208,0.17396
3523.48182,0.17507
3522.45156,0.17612
3521.42131,0.17706
3520.39105,0.17824
3519.36079,0.17969
3518.33053,0.18114
3517.30027,0.18241
3516.27002,0.18332
3515.23976,0.18429
3514.20950,0.18591
3513.17924,0.18779
3512.14899,0.18950
3511.11873,0.19078
3510.08847,0.19147
3509.05821,0.19227
3508.02795,0.19337
3506.99770,0.19436
3505.96744,0.19485
3504.93718,0.19553
3503.90692,0.19738
3502.87666,0.19930
3501.84641,0.20070
3500.81615,0.20241
3499.78589,0.20380
3498.75563,0.20433
3497.72538,0.20509
3496.69512,0.20671
3495.66486,0.20861
3494.63460,0.21043
3493.60434,0.21182
3492.57409,0.21261
3491.54383,0.21323
3490.51357,0.21386
3489.48331,0.21500
3488.45306,0.21675
3487.42280,0.21807
3486.39254,0.21887
3485.36228,0.22006
3484.33202,0.22179
3483.30177,0.22351
3482.27151,0.22493
3481.24125,0.22610
3480.21099,0.22735
3479.18073,0.22877
3478.15048,0.23011
3477.12022,0.23115
3476.08996,0.23172
3475.05970,0.23220
3474.02945,0.23339
3472.99919,0.23540
3471.96893,0.23749
3470.93867,0.23877
3469.90841,0.23922
3468.87816,0.24002
3467.84790,0.24154
3466.81764,0.24325
3465.78738,0.24497
3464.75712,0.24647
3463.72687,0.24780
3462.69661,0.24927
3461.66635,0.25078
3460.63609,0.25193
3459.60584,0.25304
3458.57558,0.25492
3457.54532,0.25721
3456.51506,0.25906
3455.48480,0.25995
3454.45455,0.26051
3453.42429,0.26185
3452.39403,0.26329
3451.36377,0.26441
3450.33351,0.26591
3449.30326,0.26744
3448.27300,0.26824
3447.24274,0.26874
3446.21248,0.27016
3445.18223,0.27225
3444.15197,0.27417
3443.12171,0.27576
3442.09145,0.27687
3441.06119,0.27740
3440.03094,0.27762
3439.00068,0.27841
3437.97042,0.28015
3436.94016,0.28209
3435.90991,0.28384
3434.87965,0.28513
3433.84939,0.28587
3432.81913,0.28701
3431.78887,0.28861
3430.75862,0.29021
3429.72836,0.29213
3428.69810,0.29407
3427.66784,0.29560
3426.63758,0.29668
3425.60733,0.29728
3424.57707,0.29810
3423.54681,0.29971
3422.51655,0.30163
3421.48630,0.30313
3420.45604,0.30434
3419.42578,0.30564
3418.39552,0.30667
3417.36526,0.30746
3416.33501,0.30881
3415.30475,0.31059
3414.27449,0.31162
3413.24423,0.31220
3412.21397,0.31361
3411.18372,0.31522
3410.15346,0.31636
3409.12320,0.31759
3408.09294,0.31898
3407.06269,0.32004
3406.03243,0.32057
3405.00217,0.32130
3403.97191,0.32284
3402.94165,0.32429
3401.91140,0.32532
3400.88114,0.32643
3399.85088,0.32737
3398.82062,0.32843
3397.79036,0.32992
3396.76011,0.33098
3395.72985,0.33175
3394.69959,0.33286
3393.66933,0.33396
3392.63908,0.33480
3391.60882,0.33538
3390.57856,0.33612
3389.54830,0.33715
3388.51804,0.33772
3387.48779,0.33810
3386.45753,0.33912
3385.42727,0.34061
3384.39701,0.34194
3383.36676,0.34317
3382.33650,0.34434
3381.30624,0.34448
3380.27598,0.34389
3379.24572,0.34448
3378.21547,0.34587
3377.18521,0.34678
3376.15495,0.34788
3375.12469,0.34910
3374.09443,0.34953
3373.06418,0.34981
3372.03392,0.35031
3371.00366,0.35043
3369.97340,0.35047
3368.94315,0.35102
3367.91289,0.35181
3366.88263,0.35250
3365.85237,0.35335
3364.82211,0.35375
3363.79186,0.35383
3362.76160,0.35507
3361.73134,0.35666
3360.70108,0.35727
3359.67082,0.35764
3358.64057,0.35846
3357.61031,0.35906
3356.58005,0.35883
3355.54979,0.35872
3354.51954,0.35951
3353.48928,0.35996
3352.45902,0.35959
3351.42876,0.35929
3350.39850,0.35950
3349.36825,0.36042
3348.33799,0.36134
3347.30773,0.36146
3346.27747,0.36125
3345.24721,0.36108
3344.21696,0.36101
3343.18670,0.36124
3342.15644,0.36147
3341.12618,0.36150
3340.09593,0.36186
3339.06567,0.36244
3338.03541,0.36267
3337.00515,0.36291
3335.97489,0.36358
3334.94464,0.36400
3333.91438,0.36362
3332.88412,0.36343
3331.85386,0.36419
3330.82361,0.36452
3329.79335,0.36362
3328.76309,0.36266
3327.73283,0.36193
3326.70257,0.36138
3325.67232,0.36142
3324.64206,0.36161
3323.61180,0.36194
3322.58154,0.36279
3321.55128,0.36338
3320.52103,0.36340
3319.49077,0.36344
3318.46051,0.36357
3317.43025,0.36340
3316.40000,0.36279
3315.36974,0.36229
3314.33948,0.36269
3313.30922,0.36407
3312.27896,0.36557
3311.24871,0.36594
3310.21845,0.36454
3309.18819,0.36269
3308.15793,0.36220
3307.12767,0.36269
3306.09742,0.36268
3305.06716,0.36219
3304.03690,0.36211
3303.00664,0.36237
3301.97639,0.36249
3300.94613,0.36267
3299.91587,0.36350
3298.88561,0.36437
3297.85535,0.36427
3296.82510,0.36389
3295.79484,0.36408
3294.76458,0.36444
3293.73432,0.36448
3292.70406,0.36394
3291.67381,0.36300
3290.64355,0.36257
3289.61329,0.36297
3288.58303,0.36336
3287.55278,0.36331
3286.52252,0.36358
3285.49226,0.36399
3284.46200,0.36361
3283.43174,0.36324
3282.40149,0.36351
3281.37123,0.36356
3280.34097,0.36343
3279.31071,0.36329
3278.28046,0.36304
3277.25020,0.36313
3276.21994,0.36339
3275.18968,0.36386
3274.15942,0.36439
3273.12917,0.36374
3272.09891,0.36240
3271.06865,0.36189
3270.03839,0.36242
3269.00813,0.36328
3267.97788,0.36388
3266.94762,0.36396
3265.91736,0.36350
3264.88710,0.36315
3263.85685,0.36333
3262.82659,0.36362
3261.79633,0.36367
3260.76607,0.36348
3259.73581,0.36302
3258.70556,0.36231
3257.67530,0.36188
3256.64504,0.36236
3255.61478,0.36311
3254.58452,0.36292
3253.55427,0.36201
3252.52401,0.36137
3251.49375,0.36129
3250.46349,0.36152
3249.43324,0.36147
3248.40298,0.36084
3247.37272,0.36003
3246.34246,0.35951
3245.31220,0.35927
3244.28195,0.35910
3243.25169,0.35895
3242.22143,0.35895
3241.19117,0.35911
3240.16092,0.35919
3239.13066,0.35885
3238.10040,0.35851
3237.07014,0.35850
3236.03988,0.35779
3235.00963,0.35645
3233.97937,0.35589
3232.94911,0.35595
3231.91885,0.35551
3230.88859,0.35486
3229.85834,0.35416
3228.82808,0.35322
3227.79782,0.35316
3226.76756,0.35357
3225.73731,0.35277
3224.70705,0.35138
3223.67679,0.35050
3222.64653,0.34965
3221.61627,0.34918
3220.58602,0.34931
3219.55576,0.34849
3218.52550,0.34705
3217.49524,0.34606
3216.46498,0.34506
3215.43473,0.34383
3214.40447,0.34238
3213.37421,0.34125
3212.34395,0.34074
3211.31370,0.33996
3210.28344,0.33917
3209.25318,0.33905
3208.22292,0.33875
3207.19266,0.33762
3206.16241,0.33629
3205.13215,0.33545
3204.10189,0.33468
3203.07163,0.33327
3202.04137,0.33160
3201.01112,0.33017
3199.98086,0.32907
3198.95060,0.32833
3197.92034,0.32709
3196.89009,0.32493
3195.85983,0.32312
3194.82957,0.32196
3193.79931,0.32061
3192.76905,0.31902
3191.73880,0.31749
3190.70854,0.31611
3189.67828,0.31499
3188.64802,0.31379
3187.61777,0.31228
3186.58751,0.31080
3185.55725,0.30967
3184.52699,0.30873
3183.49673,0.30735
3182.46648,0.30538
3181.43622,0.30357
3180.40596,0.30203
3179.37570,0.30019
3178.34544,0.29807
3177.31519,0.29616
3176.28493,0.29457
3175.25467,0.29333
3174.22441,0.29241
3173.19416,0.29150
3172.16390,0.29037
3171.13364,0.28871
3170.10338,0.28672
3169.07312,0.28469
3168.04287,0.28261
3167.01261,0.28065
3165.98235,0.27906
3164.95209,0.27779
3163.92183,0.27623
3162.89158,0.27413
3161.86132,0.27190
3160.83106,0.26975
3159.80080,0.26769
3158.77055,0.26600
3157.74029,0.26476
3156.71003,0.26348
3155.67977,0.26191
3154.64951,0.26024
3153.61926,0.25823
3152.58900,0.25608
3151.55874,0.25440
3150.52848,0.25287
3149.49822,0.25133
3148.46797,0.24983
3147.43771,0.24814
3146.40745,0.24647
3145.37719,0.24476
3144.34694,0.24278
3143.31668,0.24117
3142.28642,0.23987
3141.25616,0.23810
3140.22590,0.23605
3139.19565,0.23417
3138.16539,0.23264
3137.13513,0.23106
3136.10487,0.22893
3135.07462,0.22642
3134.04436,0.22402
3133.01410,0.22232
3131.98384,0.22119
3130.95358,0.21990
3129.92333,0.21796
3128.89307,0.21564
3127.86281,0.21366
3126.83255,0.21187
3125.80229,0.21000
3124.77204,0.20843
3123.74178,0.20723
3122.71152,0.20581
3121.68126,0.20364
3120.65101,0.20135
3119.62075,0.19970
3118.59049,0.19825
3117.56023,0.19656
3116.52997,0.19489
3115.49972,0.19316
3114.46946,0.19124
3113.43920,0.18972
3112.40894,0.18849
3111.37868,0.18648
3110.34843,0.18410
3109.31817,0.18252
3108.28791,0.18139
3107.25765,0.17995
3106.22740,0.17855
3105.19714,0.17729
3104.16688,0.17566
3103.13662,0.17416
3102.10636,0.17319
3101.07611,0.17205
3100.04585,0.17025
3099.01559,0.16839
3097.98533,0.16684
3096.95507,0.16529
3095.92482,0.16387
3094.89456,0.16247
3093.86430,0.16091
3092.83404,0.15936
3091.80379,0.15766
3090.77353,0.15597
3089.74327,0.15471
3088.71301,0.15344
3087.68275,0.15188
3086.65250,0.15066
3085.62224,0.14991
3084.59198,0.14873
3083.56172,0.14681
3082.53147,0.14514
3081.50121,0.14391
3080.47095,0.14238
3079.44069,0.14092
3078.41043,0.13999
3077.38018,0.13882
3076.34992,0.13733
3075.31966,0.13620
3074.28940,0.13515
3073.25914,0.13368
3072.22889,0.13222
3071.19863,0.13081
3070.16837,0.12925
3069.13811,0.12782
3068.10786,0.12652
3067.07760,0.12522
3066.04734,0.12412
3065.01708,0.12328
3063.98682,0.12237
3062.95657,0.12114
3061.92631,0.11973
3060.89605,0.11851
3059.86579,0.11758
3058.83553,0.11658
3057.80528,0.11559
3056.77502,0.11491
3055.74476,0.11399
3054.71450,0.11248
3053.68425,0.11091
3052.65399,0.10982
3051.62373,0.10911
3050.59347,0.10824
3049.56321,0.10686
3048.53296,0.10535
3047.50270,0.10420
3046.47244,0.10342
3045.44218,0.10268
3044.41192,0.10180
3043.38167,0.10072
3042.35141,0.09950
3041.32115,0.09837
3040.29089,0.09738
3039.26064,0.09654
3038.23038,0.09594
3037.20012,0.09509
3036.16986,0.09386
3035.13960,0.09272
3034.10935,0.09178
3033.07909,0.09118
3032.04883,0.09067
3031.01857,0.08969
3029.98832,0.08847
3028.95806,0.08755
3027.92780,0.08692
3026.89754,0.08613
3025.86728,0.08497
3024.83703,0.08411
3023.80677,0.08370
3022.77651,0.08281
3021.74625,0.08168
3020.71599,0.08089
3019.68574,0.08008
3018.65548,0.07920
3017.62522,0.07837
3016.59496,0.07752
3015.56471,0.07655
3014.53445,0.07554
3013.50419,0.07484
3012.47393,0.07449
3011.44367,0.07395
3010.41342,0.07302
3009.38316,0.07229
3008.35290,0.07195
3007.32264,0.07160
3006.29238,0.07094
3005.26213,0.06988
3004.23187,0.06873
3003.20161,0.06783
3002.17135,0.06726
3001.14110,0.06698
3000.11084,0.06680
2999.08058,0.06634
2998.05032,0.06553
2997.02006,0.06480
2995.98981,0.06415
2994.95955,0.06330
2993.92929,0.06256
2992.89903,0.06209
2991.86877,0.06162
2990.83852,0.06091
2989.80826,0.06013
2988.77800,0.05969
2987.74774,0.05928
2986.71749,0.05840
2985.68723,0.05777
2984.65697,0.05763
2983.62671,0.05724
2982.59645,0.05666
2981.56620,0.05613
2980.53594,0.05552
2979.50568,0.05505
2978.47542,0.05488
2977.44517,0.05456
2976.41491,0.05376
2975.38465,0.05286
2974.35439,0.05210
2973.32413,0.05147
2972.29388,0.05101
2971.26362,0.05045
2970.23336,0.04978
2969.20310,0.04943
2968.17284,0.04933
2967.14259,0.04906
2966.11233,0.04844
2965.08207,0.04777
2964.05181,0.04735
2963.02156,0.04705
2961.99130,0.04671
2960.96104,0.04632
2959.93078,0.04585
2958.90052,0.04520
2957.87027,0.04441
2956.84001,0.04376
2955.80975,0.04336
2954.77949,0.04307
2953.74923,0.04267
2952.71898,0.04233
2951.68872,0.04208
2950.65846,0.04162
2949.62820,0.04123
2948.59795,0.04112
2947.56769,0.04094
2946.53743,0.04039
2945.50717,0.03955
2944.47691,0.03903
2943.44666,0.03905
2942.41640,0.03901
2941.38614,0.03850
2940.35588,0.03777
2939.32562,0.03729
2938.29537,0.03703
2937.26511,0.03670
2936.23485,0.03643
2935.20459,0.03621
2934.17434,0.03584
2933.14408,0.03540
2932.11382,0.03493
2931.08356,0.03449
2930.05330,0.03415
2929.02305,0.03396
2927.99279,0.03391
2926.96253,0.03385
2925.93227,0.03390
2924.90202,0.03374
2923.87176,0.03309
2922.84150,0.03255
2921.81124,0.03203
2920.78098,0.03145
2919.75073,0.03111
2918.72047,0.03080
2917.69021,0.03066
2916.65995,0.03067
2915.62969,0.03050
2914.59944,0.03014
2913.56918,0.02981
2912.53892,0.02958
2911.50866,0.02938
2910.47841,0.02925
2909.44815,0.02906
2908.41789,0.02859
2907.38763,0.02814
2906.35737,0.02800
2905.32712,0.02791
2904.29686,0.02762
2903.26660,0.02728
2902.23634,0.02691
2901.20608,0.02639
2900.17583,0.02607
2899.14557,0.02604
2898.11531,0.02605
2897.08505,0.02606
2896.05480,0.02593
2895.02454,0.02556
2893.99428,0.02511
2892.96402,0.02477
2891.93376,0.02464
2890.90351,0.02455
2889.87325,0.02423
2888.84299,0.02373
2887.81273,0.02342
2886.78247,0.02343
2885.75222,0.02342
2884.72196,0.02319
2883.69170,0.02299
2882.66144,0.02288
2881.63119,0.02283
2880.60093,0.02275
2879.57067,0.02249
2878.54041,0.02203
2877.51015,0.02150
2876.47990,0.02116
2875.44964,0.02092
2874.41938,0.02066
2873.38912,0.02063
2872.35887,0.02082
2871.32861,0.02081
2870.29835,0.02041
2869.26809,0.02004
2868.23783,0.02004
2867.20758,0.02009
2866.17732,0.02002
2865.14706,0.01994
2864.11680,0.01986
2863.08654,0.01966
2862.05629,0.01936
2861.02603,0.01901
2859.99577,0.01875
2858.96551,0.01882
2857.93526,0.01906
2856.90500,0.01898
2855.87474,0.01858
2854.84448,0.01825
2853.81422,0.01808
2852.78397,0.01781
2851.75371,0.01735
2850.72345,0.01711
2849.69319,0.01703
2848.66293,0.01670
2847.63268,0.01648
2846.60242,0.01661
2845.57216,0.01681
2844.54190,0.01686
2843.51165,0.01671
2842.48139,0.01637
2841.45113,0.01618
2840.42087,0.01649
2839.39061,0.01685
2838.36036,0.01682
2837.33010,0.01663
2836.29984,0.01644
2835.26958,0.01619
2834.23933,0.01575
2833.20907,0.01534
2832.17881,0.01523
2831.14855,0.01512
2830.11829,0.01508
2829.08804,0.01523
2828.05778,0.01519
2827.02752,0.01502
2825.99726,0.01492
2824.96700,0.01475
2823.93675,0.01455
2822.90649,0.01432
2821.87623,0.01413
2820.84597,0.01423
2819.81572,0.01437
2818.78546,0.01423
2817.75520,0.01404
2816.72494,0.01388
2815.69468,0.01373
2814.66443,0.01381
2813.63417,0.01390
2812.60391,0.01372
2811.57365,0.01346
2810.54339,0.01327
2809.51314,0.01310
2808.48288,0.01309
2807.45262,0.01334
2806.42236,0.01342
2805.39211,0.01303
2804.36185,0.01245
2803.33159,0.01214
2802.30133,0.01215
2801.27107,0.01229
2800.24082,0.01239
2799.21056,0.01235
2798.18030,0.01230
2797.15004,0.01242
2796.11978,0.01234
2795.08953,0.01189
2794.05927,0.01160
2793.02901,0.01171
2791.99875,0.01188
2790.96850,0.01203
2789.93824,0.01217
2788.90798,0.01227
2787.87772,0.01219
2786.84746,0.01179
2785.81721,0.01139
2784.78695,0.01138
2783.75669,0.01162
2782.72643,0.01165
2781.69618,0.01142
2780.66592,0.01104
2779.63566,0.01060
2778.60540,0.01048
2777.57514,0.01056
2776.54489,0.01058
2775.51463,0.01060
2774.48437,0.01074
2773.45411,0.01089
2772.42385,0.01077
2771.39360,0.01044
2770.36334,0.01034
2769.33308,0.01056
2768.30282,0.01068
2767.27257,0.01059
2766.24231,0.01056
2765.21205,0.01045
2764.18179,0.01012
2763.15153,0.00990
2762.12128,0.00993
2761.09102,0.00987
2760.06076,0.00972
2759.03050,0.00976
2758.00024,0.00991
2756.96999,0.00985
2755.93973,0.00958
2754.90947,0.00939
2753.87921,0.00940
2752.84896,0.00945
2751.81870,0.00962
2750.78844,0.00988
2749.75818,0.00989
2748.72792,0.00966
2747.69767,0.00956
2746.66741,0.00943
2745.63715,0.00906
2744.60689,0.00888
2743.57663,0.00913
2742.54638,0.00916
2741.51612,0.00881
2740.48586,0.00888
2739.45560,0.00926
2738.42535,0.00933
2737.39509,0.00935
2736.36483,0.00950
2735.33457,0.00948
2734.30431,0.00915
2733.27406,0.00878
2732.24380,0.00867
2731.21354,0.00885
2730.18328,0.00897
2729.15303,0.00889
2728.12277,0.00874
2727.09251,0.00856
2726.06225,0.00838
2725.03199,0.00830
2724.00174,0.00831
2722.97148,0.00825
2721.94122,0.00805
2720.91096,0.00786
2719.88070,0.00783
2718.85045,0.00785
2717.82019,0.00794
2716.78993,0.00809
2715.75967,0.00808
2714.72942,0.00791
2713.69916,0.00794
2712.66890,0.00814
2711.63864,0.00831
2710.60838,0.00846
2709.57813,0.00823
2708.54787,0.00785
2707.51761,0.00787
2706.48735,0.00783
2705.45709,0.00764
2704.42684,0.00767
2703.39658,0.00770
2702.36632,0.00767
2701.33606,0.00767
2700.30581,0.00754
2699.27555,0.00735
2698.24529,0.00736
2697.21503,0.00748
2696.18477,0.00755
2695.15452,0.00759
2694.12426,0.00762
2693.09400,0.00773
2692.06374,0.00779
2691.03348,0.00777
2690.00323,0.00786
2688.97297,0.00789
2687.94271,0.00779
2686.91245,0.00781
2685.88220,0.00784
2684.85194,0.00756
2683.82168,0.00727
2682.79142,0.00730
2681.76116,0.00743
2680.73091,0.00745
2679.70065,0.00743
2678.67039,0.00744
2677.64013,0.00739
2676.60988,0.00748
2675.57962,0.00755
2674.54936,0.00730
2673.51910,0.00701
2672.48884,0.00691
2671.45859,0.00692
2670.42833,0.00707
2669.39807,0.00735
2668.36781,0.00759
2667.33755,0.00771
2666.30730,0.00770
2665.27704,0.00751
2664.24678,0.00732
2663.21652,0.00728
2662.18627,0.00736
2661.15601,0.00748
2660.12575,0.00759
2659.09549,0.00768
2658.06523,0.00776
2657.03498,0.00768
2656.00472,0.00744
2654.97446,0.00727
2653.94420,0.00708
2652.91394,0.00694
2651.88369,0.00709
2650.85343,0.00741
2649.82317,0.00751
2648.79291,0.00720
2647.76266,0.00680
2646.73240,0.00671
2645.70214,0.00691
2644.67188,0.00711
2643.64162,0.00725
2642.61137,0.00728
2641.58111,0.00712
2640.55085,0.00693
2639.52059,0.00686
2638.49033,0.00691
2637.46008,0.00691
2636.42982,0.00679
2635.39956,0.00670
2634.36930,0.00674
2633.33905,0.00696
2632.30879,0.00745
2631.27853,0.00771
2630.24827,0.00736
2629.21801,0.00686
2628.18776,0.00656
2627.15750,0.00632
2626.12724,0.00599
2625.09698,0.00604
2624.06673,0.00662
2623.03647,0.00711
2622.00621,0.00725
2620.97595,0.00702
2619.94569,0.00682
2618.91544,0.00701
2617.88518,0.00697
2616.85492,0.00655
2615.82466,0.00625
2614.79440,0.00631
2613.76415,0.00648
2612.73389,0.00666
2611.70363,0.00706
2610.67337,0.00740
2609.64312,0.00733
2608.61286,0.00701
2607.58260,0.00670
2606.55234,0.00666
2605.52208,0.00697
2604.49183,0.00717
2603.46157,0.00693
2602.43131,0.00663
2601.40105,0.00663
2600.37079,0.00674
2599.34054,0.00658
2598.31028,0.00624
2597.28002,0.00627
2596.24976,0.00671
2595.21951,0.00693
2594.18925,0.00657
2593.15899,0.00606
2592.12873,0.00618
2591.09847,0.00693
2590.06822,0.00722
2589.03796,0.00664
2588.00770,0.00625
2586.97744,0.00643
2585.94718,0.00676
2584.91693,0.00706
2583.88667,0.00695
2582.85641,0.00641
2581.82615,0.00626
2580.79590,0.00653
2579.76564,0.00668
2578.73538,0.00682
2577.70512,0.00690
2576.67486,0.00681
2575.64461,0.00682
2574.61435,0.00682
2573.58409,0.00668
2572.55383,0.00641
2571.52358,0.00601
2570.49332,0.00597
2569.46306,0.00631
2568.43280,0.00659
2567.40254,0.00696
2566.37229,0.00703
2565.34203,0.00645
2564.31177,0.00615
2563.28151,0.00633
2562.25125,0.00631
2561.22100,0.00633
2560.19074,0.00685
2559.16048,0.00738
2558.13022,0.00751
2557.09997,0.00724
2556.06971,0.00659
2555.03945,0.00606
2554.00919,0.00605
2552.97893,0.00638
2551.94868,0.00685
2550.91842,0.00714
2549.88816,0.00687
2548.85790,0.00655
2547.82764,0.00690
2546.79739,0.00751
2545.76713,0.00763
2544.73687,0.00739
2543.70661,0.00712
2542.67636,0.00693
2541.64610,0.00712
2540.61584,0.00757
2539.58558,0.00772
2538.55532,0.00754
2537.52507,0.00734
2536.49481,0.00719
2535.46455,0.00710
2534.43429,0.00710
2533.40403,0.00683
2532.37378,0.00635
2531.34352,0.00641
2530.31326,0.00717
2529.28300,0.00776
2528.25275,0.00766
2527.22249,0.00747
2526.19223,0.00756
2525.16197,0.00760
2524.13171,0.00731
2523.10146,0.00675
2522.07120,0.00649
2521.04094,0.00671
2520.01068,0.00669
2518.98043,0.00655
2517.95017,0.00684
2516.91991,0.00721
2515.88965,0.00714
2514.85939,0.00675
2513.82914,0.00662
2512.79888,0.00686
2511.76862,0.00721
2510.73836,0.00763
2509.70810,0.00796
2508.67785,0.00809
2507.64759,0.00822
2506.61733,0.00834
2505.58707,0.00852
2504.55682,0.00867
2503.52656,0.00817
2502.49630,0.00740
2501.46604,0.00734
2500.43578,0.00765
2499.40553,0.00762
2498.37527,0.00761
2497.34501,0.00786
2496.31475,0.00776
2495.28449,0.00734
2494.25424,0.00749
2493.22398,0.00792
2492.19372,0.00794
2491.16346,0.00814
2490.13321,0.00857
2489.10295,0.00839
2488.07269,0.00793
2487.04243,0.00773
2486.01217,0.00741
2484.98192,0.00711
2483.95166,0.00727
2482.92140,0.00754
2481.89114,0.00785
2480.86088,0.00839
2479.83063,0.00870
2478.80037,0.00851
2477.77011,0.00808
2476.73985,0.00799
2475.70960,0.00830
2474.67934,0.00850
2473.64908,0.00862
2472.61882,0.00889
2471.58856,0.00883
2470.55831,0.00859
2469.52805,0.00869
2468.49779,0.00878
2467.46753,0.00883
2466.43728,0.00920
2465.40702,0.00965
2464.37676,0.00967
2463.34650,0.00935
2462.31624,0.00899
2461.28599,0.00857
2460.25573,0.00821
2459.22547,0.00810
2458.19521,0.00849
2457.16495,0.00902
2456.13470,0.00911
2455.10444,0.00917
2454.07418,0.00949
2453.04392,0.00943
2452.01367,0.00889
2450.98341,0.00850
2449.95315,0.00846
2448.92289,0.00865
2447.89263,0.00894
2446.86238,0.00908
2445.83212,0.00885
2444.80186,0.00849
2443.77160,0.00854
2442.74134,0.00888
2441.71109,0.00910
2440.68083,0.00924
2439.65057,0.00930
2438.62031,0.00916
2437.59006,0.00891
2436.55980,0.00879
2435.52954,0.00881
2434.49928,0.00892
2433.46902,0.00915
2432.43877,0.00945
2431.40851,0.00951
2430.37825,0.00945
2429.34799,0.00969
2428.31774,0.00996
2427.28748,0.00996
2426.25722,0.00984
2425.22696,0.00962
2424.19670,0.00941
2423.16645,0.00957
2422.13619,0.00990
2421.10593,0.00981
2420.07567,0.00941
2419.04541,0.00934
2418.01516,0.00977
2416.98490,0.01022
2415.95464,0.01037
2414.92438,0.01039
2413.89413,0.01025
2412.86387,0.01008
2411.83361,0.01012
2410.80335,0.01022
2409.77309,0.01020
2408.74284,0.01012
2407.71258,0.01012
2406.68232,0.01035
2405.65206,0.01054
2404.62180,0.01040
2403.59155,0.01009
2402.56129,0.00989
2401.53103,0.00975
2400.50077,0.00970
2399.47052,0.00989
2398.44026,0.01008
2397.41000,0.01020
2396.37974,0.01030
2395.34948,0.01032
2394.31923,0.01044
2393.28897,0.01074
2392.25871,0.01087
2391.22845,0.01068
2390.19819,0.01061
2389.16794,0.01087
2388.13768,0.01104
2387.10742,0.01077
2386.07716,0.01031
2385.04691,0.01026
2384.01665,0.01070
2382.98639,0.01111
2381.95613,0.01101
2380.92587,0.01064
2379.89562,0.01080
2378.86536,0.01162
2377.83510,0.01216
2376.80484,0.01188
2375.77459,0.01126
2374.74433,0.01113
2373.71407,0.01166
2372.68381,0.01229
2371.65355,0.01302
2370.62330,0.01338
2369.59304,0.01276
2368.56278,0.01234
2367.53252,0.01266
2366.50226,0.01244
2365.47201,0.01183
2364.44175,0.01214
2363.41149,0.01264
2362.38123,0.01275
2361.35098,0.01368
2360.32072,0.01464
2359.29046,0.01374
2358.26020,0.01173
2357.22994,0.01065
2356.19969,0.01100
2355.16943,0.01168
2354.13917,0.01200
2353.10891,0.01227
2352.07865,0.01238
2351.04840,0.01235
2350.01814,0.01256
2348.98788,0.01265
2347.95762,0.01248
2346.92737,0.01238
2345.89711,0.01261
2344.86685,0.01302
2343.83659,0.01303
2342.80633,0.01263
2341.77608,0.01231
2340.74582,0.01265
2339.71556,0.01338
2338.68530,0.01347
2337.65504,0.01311
2336.62479,0.01308
2335.59453,0.01336
2334.56427,0.01334
2333.53401,0.01294
2332.50376,0.01298
2331.47350,0.01364
2330.44324,0.01359
2329.41298,0.01275
2328.38272,0.01234
2327.35247,0.01247
2326.32221,0.01281
2325.29195,0.01321
2324.26169,0.01354
2323.23144,0.01377
2322.20118,0.01423
2321.17092,0.01457
2320.14066,0.01414
2319.11040,0.01346
2318.08015,0.01319
2317.04989,0.01357
2316.01963,0.01433
2314.98937,0.01456
2313.95911,0.01402
2312.92886,0.01372
2311.89860,0.01391
2310.86834,0.01417
2309.83808,0.01456
2308.80783,0.01466
2307.77757,0.01454
2306.74731,0.01463
2305.71705,0.01504
2304.68679,0.01563
2303.65654,0.01575
2302.62628,0.01515
2301.59602,0.01441
2300.56576,0.01419
2299.53550,0.01424
2298.50525,0.01434
2297.47499,0.01476
2296.44473,0.01505
2295.41447,0.01507
2294.38422,0.01532
2293.35396,0.01548
2292.32370,0.01535
2291.29344,0.01539
2290.26318,0.01540
2289.23293,0.01523
2288.20267,0.01557
2287.17241,0.01647
2286.14215,0.01675
2285.11189,0.01608
2284.08164,0.01547
2283.05138,0.01544
2282.02112,0.01556
2280.99086,0.01566
2279.96061,0.01583
2278.93035,0.01601
2277.90009,0.01615
2276.86983,0.01592
2275.83957,0.01541
2274.80932,0.01527
2273.77906,0.01571
2272.74880,0.01603
2271.71854,0.01592
2270.68829,0.01607
2269.65803,0.01643
2268.62777,0.01657
2267.59751,0.01676
2266.56725,0.01653
2265.53700,0.01544
2264.50674,0.01478
2263.47648,0.01506
2262.44622,0.01559
2261.41596,0.01627
2260.38571,0.01726
2259.35545,0.01814
2258.32519,0.01827
2257.29493,0.01825
2256.26468,0.01828
2255.23442,0.01747
2254.20416,0.01665
2253.17390,0.01695
2252.14364,0.01703
2251.11339,0.01621
2250.08313,0.01619
2249.05287,0.01725
2248.02261,0.01819
2246.99235,0.01878
2245.96210,0.01864
2244.93184,0.01765
2243.90158,0.01648
2242.87132,0.01549
2241.84107,0.01570
2240.81081,0.01706
2239.78055,0.01860
2238.75029,0.01956
2237.72003,0.01956
2236.68978,0.01937
2235.65952,0.01914
2234.62926,0.01878
2233.59900,0.01803
2232.56874,0.01712
2231.53849,0.01743
2230.50823,0.01794
2229.47797,0.01726
2228.44771,0.01639
2227.41746,0.01627
2226.38720,0.01673
2225.35694,0.01723
2224.32668,0.01783
2223.29642,0.01904
2222.26617,0.02007
2221.23591,0.01980
2220.20565,0.01888
2219.17539,0.01781
2218.14514,0.01673
2217.11488,0.01698
2216.08462,0.01881
2215.05436,0.02071
2214.02410,0.02155
2212.99385,0.02107
2211.96359,0.01984
2210.93333,0.01884
2209.90307,0.01813
2208.87281,0.01756
2207.84256,0.01691
2206.81230,0.01607
2205.78204,0.01689
2204.75178,0.01968
2203.72153,0.02110
2202.69127,0.02042
2201.66101,0.02106
2200.63075,0.02254
2199.60049,0.02204
2198.57024,0.02076
2197.53998,0.02047
2196.50972,0.02093
2195.47946,0.02068
2194.44920,0.02016
2193.41895,0.02089
2192.38869,0.02127
2191.35843,0.02044
2190.32817,0.02000
2189.29792,0.02036
2188.26766,0.02101
2187.23740,0.02126
2186.20714,0.02098
2185.17688,0.02052
2184.14663,0.01974
2183.11637,0.01924
2182.08611,0.01940
2181.05585,0.01985
2180.02559,0.02039
2178.99534,0.02146
2177.96508,0.02251
2176.93482,0.02242
2175.90456,0.02181
2174.87431,0.02092
2173.84405,0.02004
2172.81379,0.02046
2171.78353,0.02102
2170.75327,0.02029
2169.72302,0.01992
2168.69276,0.02026
2167.66250,0.02021
2166.63224,0.01973
2165.60199,0.01936
2164.57173,0.02023
2163.54147,0.02109
2162.51121,0.02043
2161.48095,0.01937
2160.45070,0.01916
2159.42044,0.02128
2158.39018,0.02322
2157.35992,0.02112
2156.32966,0.01840
2155.29941,0.01890
2154.26915,0.02096
2153.23889,0.02077
2152.20863,0.01808
2151.17838,0.01810
2150.14812,0.02217
2149.11786,0.02520
2148.08760,0.02564
2147.05734,0.02522
2146.02709,0.02418
2144.99683,0.02394
2143.96657,0.02497
2142.93631,0.02508
2141.90605,0.02379
2140.87580,0.02278
2139.84554,0.02244
2138.81528,0.02181
2137.78502,0.02183
2136.75477,0.02270
2135.72451,0.02293
2134.69425,0.02295
2133.66399,0.02337
2132.63373,0.02352
2131.60348,0.02307
2130.57322,0.02264
2129.54296,0.02269
2128.51270,0.02285
2127.48244,0.02294
2126.45219,0.02314
2125.42193,0.02344
2124.39167,0.02345
2123.36141,0.02262
2122.33116,0.02147
2121.30090,0.02172
2120.27064,0.02333
2119.24038,0.02420
2118.21012,0.02373
2117.17987,0.02335
2116.14961,0.02349
2115.11935,0.02349
2114.08909,0.02351
2113.05884,0.02358
2112.02858,0.02352
2110.99832,0.02374
2109.96806,0.02421
2108.93780,0.02448
2107.90755,0.02383
2106.87729,0.02299
2105.84703,0.02346
2104.81677,0.02399
2103.78651,0.02369
2102.75626,0.02402
2101.72600,0.02469
2100.69574,0.02448
2099.66548,0.02401
2098.63523,0.02365
2097.60497,0.02318
2096.57471,0.02302
2095.54445,0.02312
2094.51419,0.02300
2093.48394,0.02280
2092.45368,0.02305
2091.42342,0.02373
2090.39316,0.02415
2089.36290,0.02390
2088.33265,0.02324
2087.30239,0.02248
2086.27213,0.02150
2085.24187,0.02104
2084.21162,0.02180
2083.18136,0.02260
2082.15110,0.02271
2081.12084,0.02300
2080.09058,0.02368
2079.06033,0.02392
2078.03007,0.02316
2076.99981,0.02215
2075.96955,0.02178
2074.93930,0.02201
2073.90904,0.02241
2072.87878,0.02227
2071.84852,0.02108
2070.81826,0.02030
2069.78801,0.02190
2068.75775,0.02307
2067.72749,0.02097
2066.69723,0.01891
2065.66697,0.01935
2064.63672,0.02013
2063.60646,0.01968
2062.57620,0.01922
2061.54594,0.02040
2060.51569,0.02230
2059.48543,0.02280
2058.45517,0.02203
2057.42491,0.02093
2056.39465,0.02036
2055.36440,0.02133
2054.33414,0.02337
2053.30388,0.02440
2052.27362,0.02311
2051.24336,0.02043
2050.21311,0.01877
2049.18285,0.01996
2048.15259,0.02245
2047.12233,0.02362
2046.09208,0.02384
2045.06182,0.02442
2044.03156,0.02463
2043.00130,0.02293
2041.97104,0.02047
2040.94079,0.01952
2039.91053,0.01940
2038.88027,0.01856
2037.85001,0.01767
2036.81975,0.01688
2035.78950,0.01619
2034.75924,0.01746
2033.72898,0.01991
2032.69872,0.02069
2031.66847,0.01928
2030.63821,0.01786
2029.60795,0.01817
2028.57769,0.01958
2027.54743,0.02137
2026.51718,0.02259
2025.48692,0.02243
2024.45666,0.02162
2023.42640,0.02093
2022.39615,0.02061
2021.36589,0.02170
2020.33563,0.02254
2019.30537,0.02050
2018.27511,0.01924
2017.24486,0.02003
2016.21460,0.01843
2015.18434,0.01593
2014.15408,0.01595
2013.12382,0.01646
2012.09357,0.01594
2011.06331,0.01532
2010.03305,0.01552
2009.00279,0.01674
2007.97254,0.01880
2006.94228,0.02008
2005.91202,0.01949
2004.88176,0.01916
2003.85150,0.01947
2002.82125,0.01954
2001.79099,0.01940
2000.76073,0.01853
1999.73047,0.01792
1998.70021,0.01848
1997.66996,0.01903
1996.63970,0.01891
1995.60944,0.01822
1994.57918,0.01795
1993.54893,0.01857
1992.51867,0.01823
1991.48841,0.01763
1990.45815,0.01896
1989.42789,0.01977
1988.39764,0.01831
1987.36738,0.01711
1986.33712,0.01671
1985.30686,0.01518
1984.27660,0.01331
1983.24635,0.01272
1982.21609,0.01334
1981.18583,0.01442
1980.15557,0.01476
1979.12532,0.01408
1978.09506,0.01513
1977.06480,0.01768
1976.03454,0.01782
1975.00428,0.01713
1973.97403,0.01743
1972.94377,0.01671
1971.91351,0.01481
1970.88325,0.01340
1969.85300,0.01444
1968.82274,0.01675
1967.79248,0.01711
1966.76222,0.01565
1965.73196,0.01535
1964.70171,0.01659
1963.67145,0.01642
1962.64119,0.01431
1961.61093,0.01272
1960.58067,0.01305
1959.55042,0.01474
1958.52016,0.01591
1957.48990,0.01553
1956.45964,0.01454
1955.42939,0.01420
1954.39913,0.01441
1953.36887,0.01413
1952.33861,0.01390
1951.30835,0.01466
1950.27810,0.01553
1949.24784,0.01558
1948.21758,0.01445
1947.18732,0.01289
1946.15706,0.01298
1945.12681,0.01395
1944.09655,0.01313
1943.06629,0.01189
1942.03603,0.01231
1941.00578,0.01306
1939.97552,0.01368
1938.94526,0.01429
1937.91500,0.01457
1936.88474,0.01453
1935.85449,0.01380
1934.82423,0.01288
1933.79397,0.01250
1932.76371,0.01268
1931.73345,0.01331
1930.70320,0.01399
1929.67294,0.01440
1928.64268,0.01466
1927.61242,0.01475
1926.58217,0.01485
1925.55191,0.01544
1924.52165,0.01587
1923.49139,0.01523
1922.46113,0.01413
1921.43088,0.01335
1920.40062,0.01318
1919.37036,0.01370
1918.34010,0.01439
1917.30985,0.01466
1916.27959,0.01442
1915.24933,0.01435
1914.21907,0.01483
1913.18881,0.01485
1912.15856,0.01421
1911.12830,0.01413
1910.09804,0.01450
1909.06778,0.01459
1908.03752,0.01431
1907.00727,0.01395
1905.97701,0.01393
1904.94675,0.01392
1903.91649,0.01398
1902.88624,0.01439
1901.85598,0.01459
1900.82572,0.01450
1899.79546,0.01459
1898.76520,0.01456
1897.73495,0.01426
1896.70469,0.01356
1895.67443,0.01284
1894.64417,0.01328
1893.61391,0.01416
1892.58366,0.01429
1891.55340,0.01422
1890.52314,0.01434
1889.49288,0.01439
1888.46263,0.01456
1887.43237,0.01482
1886.40211,0.01487
1885.37185,0.01478
1884.34159,0.01487
1883.31134,0.01497
1882.28108,0.01444
1881.25082,0.01384
1880.22056,0.01386
1879.19030,0.01409
1878.16005,0.01409
1877.12979,0.01421
1876.09953,0.01482
1875.06927,0.01543
1874.03902,0.01550
1873.00876,0.01512
1871.97850,0.01484
1870.94824,0.01519
1869.91798,0.01604
1868.88773,0.01614
1867.85747,0.01533
1866.82721,0.01471
1865.79695,0.01423
1864.76670,0.01383
1863.73644,0.01390
1862.70618,0.01440
1861.67592,0.01470
1860.64566,0.01458
1859.61541,0.01426
1858.58515,0.01411
1857.55489,0.01411
1856.52463,0.01383
1855.49437,0.01347
1854.46412,0.01358
1853.43386,0.01431
1852.40360,0.01511
1851.37334,0.01551
1850.34309,0.01555
1849.31283,0.01545
1848.28257,0.01542
1847.25231,0.01534
1846.22205,0.01519
1845.19180,0.01522
1844.16154,0.01535
1843.13128,0.01511
1842.10102,0.01471
1841.07076,0.01474
1840.04051,0.01532
1839.01025,0.01577
1837.97999,0.01571
1836.94973,0.01564
1835.91948,0.01572
1834.88922,0.01568
1833.85896,0.01550
1832.82870,0.01530
1831.79844,0.01521
1830.76819,0.01510
1829.73793,0.01497
1828.70767,0.01507
1827.67741,0.01529
1826.64715,0.01560
1825.61690,0.01584
1824.58664,0.01584
1823.55638,0.01582
1822.52612,0.01589
1821.49587,0.01588
1820.46561,0.01558
1819.43535,0.01533
1818.40509,0.01537
1817.37483,0.01564
1816.34458,0.01609
1815.31432,0.01646
1814.28406,0.01669
1813.25380,0.01705
1812.22355,0.01760
1811.19329,0.01785
1810.16303,0.01759
1809.13277,0.01729
1808.10251,0.01725
1807.07226,0.01731
1806.04200,0.01728
1805.01174,0.01721
1803.98148,0.01720
1802.95122,0.01722
1801.92097,0.01726
1800.89071,0.01720
1799.86045,0.01714
1798.83019,0.01754
1797.79994,0.01823
1796.76968,0.01856
1795.73942,0.01848
1794.70916,0.01850
1793.67890,0.01876
1792.64865,0.01896
1791.61839,0.01896
1790.58813,0.01895
1789.55787,0.01915
1788.52761,0.01924
1787.49736,0.01900
1786.46710,0.01871
1785.43684,0.01868
1784.40658,0.01895
1783.37633,0.01930
1782.34607,0.01978
1781.31581,0.02026
1780.28555,0.02033
1779.25529,0.02011
1778.22504,0.02006
1777.19478,0.02018
1776.16452,0.02034
1775.13426,0.02041
1774.10400,0.02024
1773.07375,0.02017
1772.04349,0.02055
1771.01323,0.02101
1769.98297,0.02130
1768.95272,0.02160
1767.92246,0.02208
1766.89220,0.02246
1765.86194,0.02266
1764.83168,0.02279
1763.80143,0.02279
1762.77117,0.02279
1761.74091,0.02312
1760.71065,0.02372
1759.68040,0.02417
1758.65014,0.02454
1757.61988,0.02490
1756.58962,0.02520
1755.55936,0.02535
1754.52911,0.02528
1753.49885,0.02518
1752.46859,0.02541
1751.43833,0.02598
1750.40807,0.02658
1749.37782,0.02700
1748.34756,0.02735
1747.31730,0.02777
1746.28704,0.02831
1745.25679,0.02875
1744.22653,0.02894
1743.19627,0.02906
1742.16601,0.02935
1741.13575,0.02986
1740.10550,0.03053
1739.07524,0.03127
1738.04498,0.03198
1737.01472,0.03265
1735.98446,0.03316
1734.95421,0.03341
1733.92395,0.03363
1732.89369,0.03413
1731.86343,0.03474
1730.83318,0.03530
1729.80292,0.03595
1728.77266,0.03693
1727.74240,0.03796
1726.71214,0.03872
1725.68189,0.03933
1724.65163,0.04003
1723.62137,0.04067
1722.59111,0.04122
1721.56085,0.04202
1720.53060,0.04297
1719.50034,0.04374
1718.47008,0.04460
1717.43982,0.04596
1716.40957,0.04689
1715.37931,0.04747
1714.34905,0.04831
1713.31879,0.04928
1712.28853,0.05016
1711.25828,0.05122
1710.22802,0.05263
1709.19776,0.05402
1708.16750,0.05497
1707.13725,0.05580
1706.10699,0.05705
1705.07673,0.05868
1704.04647,0.06018
1703.01621,0.06124
1701.98596,0.06218
1700.95570,0.06338
1699.92544,0.06521
1698.89518,0.06699
1697.86492,0.06837
1696.83467,0.06988
1695.80441,0.07216
1694.77415,0.07440
1693.74389,0.07603
1692.71364,0.07767
1691.68338,0.07921
1690.65312,0.08060
1689.62286,0.08195
1688.59260,0.08368
1687.56235,0.08581
1686.53209,0.08778
1685.50183,0.08967
1684.47157,0.09189
1683.44131,0.09405
1682.41106,0.09599
1681.38080,0.09789
1680.35054,0.09990
1679.32028,0.10209
1678.29003,0.10418
1677.25977,0.10608
1676.22951,0.10783
1675.19925,0.10995
1674.16899,0.11253
1673.13874,0.11485
1672.10848,0.11691
1671.07822,0.11876
1670.04796,0.12089
1669.01771,0.12346
1667.98745,0.12576
1666.95719,0.12773
1665.92693,0.12979
1664.89667,0.13185
1663.86642,0.13382
1662.83616,0.13606
1661.80590,0.13872
1660.77564,0.14120
1659.74538,0.14329
1658.71513,0.14507
1657.68487,0.14685
1656.65461,0.14897
1655.62435,0.15146
1654.59410,0.15387
1653.56384,0.15525
1652.53358,0.15672
1651.50332,0.15941
1650.47306,0.16177
1649.44281,0.16362
1648.41255,0.16517
1647.38229,0.16705
1646.35203,0.16932
1645.32177,0.17075
1644.29152,0.17158
1643.26126,0.17250
1642.23100,0.17357
1641.20074,0.17456
1640.17049,0.17525
1639.14023,0.17591
1638.10997,0.17656
1637.07971,0.17690
1636.04945,0.17671
1635.01920,0.17642
1633.98894,0.17667
1632.95868,0.17685
1631.92842,0.17637
1630.89816,0.17544
1629.86791,0.17456
1628.83765,0.17369
1627.80739,0.17201
1626.77713,0.17006
1625.74688,0.16882
1624.71662,0.16764
1623.68636,0.16554
1622.65610,0.16283
1621.62584,0.16081
1620.59559,0.15903
1619.56533,0.15686
1618.53507,0.15471
1617.50481,0.15277
1616.47456,0.14981
1615.44430,0.14674
1614.41404,0.14449
1613.38378,0.14215
1612.35352,0.13961
1611.32327,0.13706
1610.29301,0.13441
1609.26275,0.13173
1608.23249,0.12938
1607.20223,0.12714
1606.17198,0.12482
1605.14172,0.12257
1604.11146,0.12037
1603.08120,0.11788
1602.05095,0.11536
1601.02069,0.11318
1599.99043,0.11118
1598.96017,0.10912
1597.92991,0.10709
1596.89966,0.10533
1595.86940,0.10367
1594.83914,0.10198
1593.80888,0.10030
1592.77862,0.09873
1591.74837,0.09715
1590.71811,0.09556
1589.68785,0.09408
1588.65759,0.09265
1587.62734,0.09122
1586.59708,0.08985
1585.56682,0.08850
1584.53656,0.08712
1583.50630,0.08564
1582.47605,0.08425
1581.44579,0.08336
1580.41553,0.08276
1579.38527,0.08203
1578.35501,0.08132
1577.32476,0.08062
1576.29450,0.07903
1575.26424,0.07705
1574.23398,0.07617
1573.20373,0.07567
1572.17347,0.07507
1571.14321,0.07452
1570.11295,0.07407
1569.08269,0.07323
1568.05244,0.07219
1567.02218,0.07150
1565.99192,0.07101
1564.96166,0.07036
1563.93141,0.06957
1562.90115,0.06879
1561.87089,0.06826
1560.84063,0.06811
1559.81037,0.06784
1558.78012,0.06663
1557.74986,0.06530
1556.71960,0.06510
1555.68934,0.06536
1554.65908,0.06530
1553.62883,0.06458
1552.59857,0.06376
1551.56831,0.06303
1550.53805,0.06248
1549.50780,0.06232
1548.47754,0.06216
1547.44728,0.06181
1546.41702,0.06153
1545.38676,0.06128
1544.35651,0.06068
1543.32625,0.06002
1542.29599,0.05963
1541.26573,0.05925
1540.23547,0.05847
1539.20522,0.05783
1538.17496,0.05799
1537.14470,0.05822
1536.11444,0.05819
1535.08419,0.05795
1534.05393,0.05756
1533.02367,0.05715
1531.99341,0.05695
1530.96315,0.05684
1529.93290,0.05671
1528.90264,0.05649
1527.87238,0.05605
1526.84212,0.05571
1525.81186,0.05567
1524.78161,0.05559
1523.75135,0.05527
1522.72109,0.05464
1521.69083,0.05390
1520.66058,0.05362
1519.63032,0.05380
1518.60006,0.05402
1517.56980,0.05389
1516.53954,0.05354
1515.50929,0.05348
1514.47903,0.05357
1513.44877,0.05364
1512.41851,0.05356
1511.38826,0.05336
1510.35800,0.05317
1509.32774,0.05300
1508.29748,0.05269
1507.26722,0.05181
1506.23697,0.05109
1505.20671,0.05141
1504.17645,0.05181
1503.14619,0.05203
1502.11593,0.05193
1501.08568,0.05167
1500.05542,0.05158
1499.02516,0.05151
1497.99490,0.05146
1496.96465,0.05162
1495.93439,0.05154
1494.90413,0.05107
1493.87387,0.05071
1492.84361,0.05063
1491.81336,0.05081
1490.78310,0.05093
1489.75284,0.05070
1488.72258,0.05043
1487.69232,0.05034
1486.66207,0.05017
1485.63181,0.04996
1484.60155,0.04993
1483.57129,0.05014
1482.54104,0.05034
1481.51078,0.05029
1480.48052,0.05012
1479.45026,0.05001
1478.42000,0.04999
1477.38975,0.04992
1476.35949,0.04962
1475.32923,0.04925
1474.29897,0.04914
1473.26871,0.04939
1472.23846,0.04957
1471.20820,0.04921
1470.17794,0.04890
1469.14768,0.04884
1468.11743,0.04886
1467.08717,0.04887
1466.05691,0.04892
1465.02665,0.04898
1463.99639,0.04902
1462.96614,0.04904
1461.93588,0.04903
1460.90562,0.04893
1459.87536,0.04875
1458.84511,0.04871
1457.81485,0.04868
1456.78459,0.04820
1455.75433,0.04792
1454.72407,0.04809
1453.69382,0.04823
1452.66356,0.04823
1451.63330,0.04829
1450.60304,0.04834
1449.57278,0.04828
1448.54253,0.04825
1447.51227,0.04831
1446.48201,0.04824
1445.45175,0.04803
1444.42150,0.04800
1443.39124,0.04822
1442.36098,0.04836
1441.33072,0.04837
1440.30046,0.04833
1439.27021,0.04822
1438.23995,0.04815
1437.20969,0.04813
1436.17943,0.04805
1435.14917,0.04790
1434.11892,0.04777
1433.08866,0.04759
1432.05840,0.04733
1431.02814,0.04728
1429.99789,0.04743
1428.96763,0.04745
1427.93737,0.04730
1426.90711,0.04720
1425.87685,0.04718
1424.84660,0.04713
1423.81634,0.04717
1422.78608,0.04718
1421.75582,0.04705
1420.72556,0.04700
1419.69531,0.04683
1418.66505,0.04656
1417.63479,0.04663
1416.60453,0.04681
1415.57428,0.04701
1414.54402,0.04717
1413.51376,0.04716
1412.48350,0.04715
1411.45324,0.04715
1410.42299,0.04709
1409.39273,0.04706
1408.36247,0.04692
1407.33221,0.04675
1406.30196,0.04681
1405.27170,0.04702
1404.24144,0.04700
1403.21118,0.04677
1402.18092,0.04670
1401.15067,0.04686
1400.12041,0.04711
1399.09015,0.04718
1398.05989,0.04688
1397.02963,0.04663
1395.99938,0.04665
1394.96912,0.04670
1393.93886,0.04664
1392.90860,0.04666
1391.87835,0.04682
1390.84809,0.04687
1389.81783,0.04671
1388.78757,0.04667
1387.75731,0.04680
1386.72706,0.04678
1385.69680,0.04656
1384.66654,0.04641
1383.63628,0.04645
1382.60602,0.04655
1381.57577,0.04648
1380.54551,0.04629
1379.51525,0.04629
1378.48499,0.04648
1377.45474,0.04659
1376.42448,0.04668
1375.39422,0.04678
1374.36396,0.04672
1373.33370,0.04652
1372.30345,0.04636
1371.27319,0.04632
1370.24293,0.04635
1369.21267,0.04644
1368.18241,0.04644
1367.15216,0.04630
1366.12190,0.04619
1365.09164,0.04620
1364.06138,0.04628
1363.03113,0.04645
1362.00087,0.04662
1360.97061,0.04664
1359.94035,0.04656
1358.91009,0.04650
1357.87984,0.04640
1356.84958,0.04644
1355.81932,0.04671
1354.78906,0.04685
1353.75881,0.04688
1352.72855,0.04683
1351.69829,0.04664
1350.66803,0.04663
1349.63777,0.04671
1348.60752,0.04646
1347.57726,0.04616
1346.54700,0.04617
1345.51674,0.04632
1344.48648,0.04636
1343.45623,0.04624
1342.42597,0.04610
1341.39571,0.04625
1340.36545,0.04672
1339.33520,0.04699
1338.30494,0.04687
1337.27468,0.04673
1336.24442,0.04664
1335.21416,0.04659
1334.18391,0.04670
1333.15365,0.04688
1332.12339,0.04686
1331.09313,0.04656
1330.06287,0.04628
1329.03262,0.04630
1328.00236,0.04633
1326.97210,0.04620
1325.94184,0.04627
1324.91159,0.04659
1323.88133,0.04677
1322.85107,0.04671
1321.82081,0.04674
1320.79055,0.04685
1319.76030,0.04677
1318.73004,0.04648
1317.69978,0.04630
1316.66952,0.04638
1315.63927,0.04655
1314.60901,0.04650
1313.57875,0.04636
1312.54849,0.04642
1311.51823,0.04658
1310.48798,0.04678
1309.45772,0.04699
1308.42746,0.04705
1307.39720,0.04691
1306.36694,0.04669
1305.33669,0.04663
1304.30643,0.04665
1303.27617,0.04656
1302.24591,0.04639
1301.21566,0.04624
1300.18540,0.04612
1299.15514,0.04615
1298.12488,0.04632
1297.09462,0.04642
1296.06437,0.04641
1295.03411,0.04648
1294.00385,0.04652
1292.97359,0.04638
1291.94333,0.04627
1290.91308,0.04627
1289.88282,0.04643
1288.85256,0.04669
1287.82230,0.04683
1286.79205,0.04679
1285.76179,0.04668
1284.73153,0.04650
1283.70127,0.04642
1282.67101,0.04644
1281.64076,0.04632
1280.61050,0.04614
1279.58024,0.04621
1278.54998,0.04646
1277.51972,0.04659
1276.48947,0.04658
1275.45921,0.04659
1274.42895,0.04666
1273.39869,0.04669
1272.36844,0.04657
1271.33818,0.04651
1270.30792,0.04657
1269.27766,0.04646
1268.24740,0.04618
1267.21715,0.04606
1266.18689,0.04625
1265.15663,0.04657
1264.12637,0.04685
1263.09612,0.04682
1262.06586,0.04646
1261.03560,0.04619
1260.00534,0.04620
1258.97508,0.04614
1257.94483,0.04606
1256.91457,0.04635
1255.88431,0.04671
1254.85405,0.04662
1253.82379,0.04648
1252.79354,0.04653
1251.76328,0.04660
1250.73302,0.04665
1249.70276,0.04663
1248.67251,0.04649
1247.64225,0.04637
1246.61199,0.04641
1245.58173,0.04653
1244.55147,0.04654
1243.52122,0.04646
1242.49096,0.04643
1241.46070,0.04648
1240.43044,0.04666
1239.40018,0.04695
1238.36993,0.04708
1237.33967,0.04688
1236.30941,0.04652
1235.27915,0.04632
1234.24890,0.04638
1233.21864,0.04661
1232.18838,0.04674
1231.15812,0.04661
1230.12786,0.04647
1229.09761,0.04651
1228.06735,0.04650
1227.03709,0.04636
1226.00683,0.04630
1224.97657,0.04634
1223.94632,0.04638
1222.91606,0.04640
1221.88580,0.04645
1220.85554,0.04648
1219.82529,0.04634
1218.79503,0.04629
1217.76477,0.04648
1216.73451,0.04660
1215.70425,0.04663
1214.67400,0.04679
1213.64374,0.04690
1212.61348,0.04686
1211.58322,0.04667
1210.55297,0.04632
1209.52271,0.04618
1208.49245,0.04635
1207.46219,0.04637
1206.43193,0.04626
1205.40168,0.04623
1204.37142,0.04605
1203.34116,0.04581
1202.31090,0.04580
1201.28064,0.04582
1200.25039,0.04586
1199.22013,0.04610
1198.18987,0.04633
1197.15961,0.04627
1196.12936,0.04613
1195.09910,0.04624
1194.06884,0.04656
1193.03858,0.04675
1192.00832,0.04662
1190.97807,0.04635
1189.94781,0.04622
1188.91755,0.04622
1187.88729,0.04618
1186.85703,0.04623
1185.82678,0.04642
1184.79652,0.04665
1183.76626,0.04682
1182.73600,0.04674
1181.70575,0.04665
1180.67549,0.04673
1179.64523,0.04675
1178.61497,0.04667
1177.58471,0.04655
1176.55446,0.04640
1175.52420,0.04624
1174.49394,0.04616
1173.46368,0.04622
1172.43342,0.04648
1171.40317,0.04656
1170.37291,0.04619
1169.34265,0.04596
1168.31239,0.04610
1167.28214,0.04622
1166.25188,0.04627
1165.22162,0.04633
1164.19136,0.04635
1163.16110,0.04637
1162.13085,0.04646
1161.10059,0.04642
1160.07033,0.04624
1159.04007,0.04619
1158.00982,0.04618
1156.97956,0.04613
1155.94930,0.04614
1154.91904,0.04629
1153.88878,0.04650
1152.85853,0.04660
1151.82827,0.04649
1150.79801,0.04642
1149.76775,0.04660
1148.73749,0.04656
1147.70724,0.04642
1146.67698,0.04660
1145.64672,0.04665
1144.61646,0.04634
1143.58621,0.04615
1142.55595,0.04618
1141.52569,0.04614
1140.49543,0.04624
1139.46517,0.04658
1138.43492,0.04666
1137.40466,0.04650
1136.37440,0.04650
1135.34414,0.04662
1134.31388,0.04683
1133.28363,0.04712
1132.25337,0.04714
1131.22311,0.04695
1130.19285,0.04679
1129.16260,0.04668
1128.13234,0.04682
1127.10208,0.04708
1126.07182,0.04702
1125.04156,0.04677
1124.01131,0.04651
1122.98105,0.04630
1121.95079,0.04642
1120.92053,0.04674
1119.89027,0.04687
1118.86002,0.04685
1117.82976,0.04678
1116.79950,0.04658
1115.76924,0.04649
1114.73899,0.04668
1113.70873,0.04700
1112.67847,0.04715
1111.64821,0.04721
1110.61795,0.04731
1109.58770,0.04727
1108.55744,0.04731
1107.52718,0.04770
1106.49692,0.04809
1105.46667,0.04795
1104.43641,0.04753
1103.40615,0.04749
1102.37589,0.04763
1101.34563,0.04772
1100.31538,0.04805
1099.28512,0.04828
1098.25486,0.04810
1097.22460,0.04796
1096.19434,0.04815
1095.16409,0.04851
1094.13383,0.04886
1093.10357,0.04900
1092.07331,0.04876
1091.04306,0.04837
1090.01280,0.04824
1088.98254,0.04839
1087.95228,0.04857
1086.92202,0.04872
1085.89177,0.04883
1084.86151,0.04903
1083.83125,0.04944
1082.80099,0.04973
1081.77073,0.04978
1080.74048,0.04966
1079.71022,0.04937
1078.67996,0.04914
1077.64970,0.04923
1076.61945,0.04964
1075.58919,0.04997
1074.55893,0.04991
1073.52867,0.04976
1072.49841,0.04983
1071.46816,0.04989
1070.43790,0.04964
1069.40764,0.04935
1068.37738,0.04938
1067.34712,0.04947
1066.31687,0.04943
1065.28661,0.04947
1064.25635,0.04956
1063.22609,0.04957
1062.19584,0.04962
1061.16558,0.04956
1060.13532,0.04926
1059.10506,0.04911
1058.07480,0.04944
1057.04455,0.04992
1056.01429,0.05003
1054.98403,0.04998
1053.95377,0.05004
1052.92352,0.04997
1051.89326,0.04964
1050.86300,0.04938
1049.83274,0.04929
1048.80248,0.04931
1047.77223,0.04947
1046.74197,0.04971
1045.71171,0.04996
1044.68145,0.05010
1043.65119,0.05025
1042.62094,0.05057
1041.59068,0.05064
1040.56042,0.05029
1039.53016,0.04992
1038.49991,0.04972
1037.46965,0.04985
1036.43939,0.05025
1035.40913,0.05054
1034.37887,0.05067
1033.34862,0.05066
1032.31836,0.05045
1031.28810,0.05018
1030.25784,0.05010
1029.22758,0.05030
1028.19733,0.05073
1027.16707,0.05114
1026.13681,0.05114
1025.10655,0.05081
1024.07630,0.05078
1023.04604,0.05135
1022.01578,0.05201
1020.98552,0.05229
1019.95526,0.05228
1018.92501,0.05234
1017.89475,0.05258
1016.86449,0.05267
1015.83423,0.05255
1014.80397,0.05253
1013.77372,0.05262
1012.74346,0.05279
1011.71320,0.05298
1010.68294,0.05283
1009.65269,0.05277
1008.62243,0.05316
1007.59217,0.05360
1006.56191,0.05400
1005.53165,0.05432
1004.50140,0.05438
1003.47114,0.05444
1002.44088,0.05481
1001.41062,0.05511
1000.38037,0.05506
999.35011,0.05507
998.31985,0.05550
997.28959,0.05597
996.25933,0.05609
995.22908,0.05621
994.19882,0.05634
993.16856,0.05636
992.13830,0.05653
991.10804,0.05678
990.07779,0.05712
989.04753,0.05756
988.01727,0.05765
986.98701,0.05750
985.95676,0.05757
984.92650,0.05791
983.89624,0.05832
982.86598,0.05847
981.83572,0.05828
980.80547,0.05811
979.77521,0.05815
978.74495,0.05846
977.71469,0.05917
976.68443,0.05987
975.65418,0.06018
974.62392,0.06031
973.59366,0.06048
972.56340,0.06074
971.53315,0.06115
970.50289,0.06165
969.47263,0.06194
968.44237,0.06202
967.41211,0.06228
966.38186,0.06262
965.35160,0.06288
964.32134,0.06317
963.29108,0.06338
962.26082,0.06352
961.23057,0.06396
960.20031,0.06459
959.17005,0.06505
958.13979,0.06536
957.10954,0.06574
956.07928,0.06608
955.04902,0.06636
954.01876,0.06684
952.98850,0.06742
951.95825,0.06768
950.92799,0.06759
949.89773,0.06761
948.86747,0.06812
947.83722,0.06895
946.80696,0.06926
945.77670,0.06917
944.74644,0.06963
943.71618,0.07051
942.68593,0.07117
941.65567,0.07165
940.62541,0.07210
939.59515,0.07257
938.56489,0.07324
937.53464,0.07379
936.50438,0.07397
935.47412,0.07429
934.44386,0.07497
933.41361,0.07566
932.38335,0.07617
931.35309,0.07642
930.32283,0.07658
929.29257,0.07689
928.26232,0.07765
927.23206,0.07887
926.20180,0.07982
925.17154,0.08020
924.14128,0.08040
923.11103,0.08076
922.08077,0.08142
921.05051,0.08201
920.02025,0.08252
918.99000,0.08345
917.95974,0.08446
916.92948,0.08495
915.89922,0.08529
914.86896,0.08590
913.83871,0.08681
912.80845,0.08802
911.77819,0.08894
910.74793,0.08896
909.71768,0.08884
908.68742,0.08955
907.65716,0.09079
906.62690,0.09204
905.59664,0.09314
904.56639,0.09393
903.53613,0.09487
902.50587,0.09584
901.47561,0.09613
900.44535,0.09637
899.41510,0.09720
898.38484,0.09815
897.35458,0.09910
896.32432,0.10014
895.29407,0.10080
894.26381,0.10103
893.23355,0.10172
892.20329,0.10303
891.17303,0.10446
890.14278,0.10569
889.11252,0.10645
888.08226,0.10714
887.05200,0.10800
886.02174,0.10880
884.99149,0.10961
883.96123,0.11050
882.93097,0.11135
881.90071,0.11216
880.87046,0.11310
879.84020,0.11427
878.80994,0.11534
877.77968,0.11620
876.74942,0.11726
875.71917,0.11852
874.68891,0.11960
873.65865,0.12034
872.62839,0.12100
871.59813,0.12201
870.56788,0.12316
869.53762,0.12410
868.50736,0.12525
867.47710,0.12671
866.44685,0.12766
865.41659,0.12826
864.38633,0.12920
863.35607,0.13044
862.32581,0.13174
861.29556,0.13293
860.26530,0.13378
859.23504,0.13432
858.20478,0.13483
857.17453,0.13567
856.14427,0.13704
855.11401,0.13869
854.08375,0.14030
853.05349,0.14165
852.02324,0.14276
850.99298,0.14400
849.96272,0.14541
848.93246,0.14646
847.90220,0.14741
846.87195,0.14888
845.84169,0.15013
844.81143,0.15081
843.78117,0.15181
842.75092,0.15315
841.72066,0.15422
840.69040,0.15516
839.66014,0.15647
838.62988,0.15804
837.59963,0.15942
836.56937,0.16072
835.53911,0.16221
834.50885,0.16381
833.47859,0.16510
832.44834,0.16587
831.41808,0.16646
830.38782,0.16745
829.35756,0.16887
828.32731,0.17031
827.29705,0.17176
826.26679,0.17296
825.23653,0.17389
824.20627,0.17514
823.17602,0.17700
822.14576,0.17886
821.11550,0.17979
820.08524,0.18001
819.05498,0.18064
818.02473,0.18201
816.99447,0.18364
815.96421,0.18543
814.93395,0.18695
813.90370,0.18780
812.87344,0.18867
811.84318,0.19004
810.81292,0.19168
809.78266,0.19337
808.75241,0.19468
807.72215,0.19547
806.69189,0.19657
805.66163,0.19804
804.63138,0.19955
803.60112,0.20099
802.57086,0.20202
801.54060,0.20301
800.51034,0.20430
799.48009,0.20546
798.44983,0.20643
797.41957,0.20779
796.38931,0.20974
795.35905,0.21195
794.32880,0.21376
793.29854,0.21466
792.26828,0.21503
791.23802,0.21587
790.20777,0.21764
789.17751,0.21940
788.14725,0.22080
787.11699,0.22234
786.08673,0.22387
785.05648,0.22547
784.02622,0.22702
782.99596,0.22826
781.96570,0.22939
780.93544,0.23030
779.90519,0.23112
778.87493,0.23259
777.84467,0.23468
776.81441,0.23605
775.78416,0.23666
774.75390,0.23775
773.72364,0.23933
772.69338,0.24079
771.66312,0.24183
770.63287,0.24269
769.60261,0.24377
768.57235,0.24517
767.54209,0.24706
766.51183,0.24920
765.48158,0.25112
764.45132,0.25268
763.42106,0.25371
762.39080,0.25457
761.36055,0.25602
760.33029,0.25765
759.30003,0.25885
758.26977,0.25996
757.23951,0.26112
756.20926,0.26197
755.17900,0.26314
754.14874,0.26546
753.11848,0.26761
752.08823,0.26881
751.05797,0.27006
750.02771,0.27162
748.99745,0.27326
747.96719,0.27486
746.93694,0.27606
745.90668,0.27711
744.87642,0.27852
743.84616,0.27973
742.81590,0.28051
741.78565,0.28174
740.75539,0.28321
739.72513,0.28434
738.69487,0.28572
737.66462,0.28737
736.63436,0.28870
735.60410,0.28973
734.57384,0.29088
733.54358,0.29271
732.51333,0.29511
731.48307,0.29693
730.45281,0.29807
729.42255,0.29909
728.39229,0.29985
727.36204,0.30115
726.33178,0.30327
725.30152,0.30453
724.27126,0.30526
723.24101,0.30681
722.21075,0.30832
721.18049,0.30935
720.15023,0.31034
719.11997,0.31179
718.08972,0.31417
717.05946,0.31662
716.02920,0.31812
714.99894,0.31936
713.96868,0.32094
712.93843,0.32250
711.90817,0.32382
710.87791,0.32511
709.84765,0.32685
708.81740,0.32860
707.78714,0.32929
706.75688,0.33003
705.72662,0.33211
704.69636,0.33394
703.66611,0.33456
702.63585,0.33512
701.60559,0.33605
700.57533,0.33672
699.54508,0.33777
698.51482,0.34031
697.48456,0.34282
696.45430,0.34438
695.42404,0.34575
694.39379,0.34719
693.36353,0.34912
692.33327,0.35116
691.30301,0.35220
690.27275,0.35313
689.24250,0.35494
688.21224,0.35667
687.18198,0.35745
686.15172,0.35738
685.12147,0.35775
684.09121,0.35970
683.06095,0.36189
682.03069,0.36323
681.00043,0.36429
679.97018,0.36555
678.93992,0.36715
677.90966,0.36895
676.87940,0.37059
675.84914,0.37180
674.81889,0.37298
673.78863,0.37446
672.75837,0.37560
671.72811,0.37613
670.69786,0.37735
669.66760,0.38010
668.63734,0.38217
667.60708,0.38105
666.57682,0.38216
665.54657,0.38491
664.51631,0.38692
663.48605,0.38776
662.45579,0.38861
661.42553,0.38980
660.39528,0.39050
659.36502,0.39073
658.33476,0.39147
657.30450,0.39336
656.27425,0.39600
655.24399,0.39763
654.21373,0.39810
653.18347,0.39922
652.15321,0.40116
651.12296,0.40351
650.09270,0.40583
649.06244,0.40731
648.03218,0.40784
647.00193,0.40772
645.97167,0.40802
644.94141,0.40986
643.91115,0.41176
642.88089,0.41186
641.85064,0.41229
640.82038,0.41542
639.79012,0.41845
638.75986,0.41874
637.72960,0.41917
636.69935,0.42146
635.66909,0.42301
634.63883,0.42351
633.60857,0.42484
632.57832,0.42609
631.54806,0.42638
630.51780,0.42729
629.48754,0.42957
628.45728,0.43205
627.42703,0.43337
626.39677,0.43340
625.36651,0.43357
624.33625,0.43451
623.30599,0.43567
622.27574,0.43729
621.24548,0.43922
620.21522,0.44120
619.18496,0.44311
618.15471,0.44400
617.12445,0.44381
616.09419,0.44468
615.06393,0.44738
614.03367,0.44933
613.00342,0.44916
611.97316,0.44817
610.94290,0.44837
609.91264,0.44979
608.88238,0.45116
607.85213,0.45265
606.82187,0.45410
605.79161,0.45557
604.76135,0.45791
603.73110,0.45956
602.70084,0.45938
601.67058,0.45970
600.64032,0.46117
599.61006,0.46272
598.57981,0.46442
597.54955,0.46674
596.51929,0.46857
595.48903,0.46965
594.45878,0.47125
593.42852,0.47084
592.39826,0.46831
591.36800,0.46809
590.33774,0.47093
589.30749,0.47474
588.27723,0.47696
587.24697,0.47661
586.21671,0.47580
585.18645,0.47574
584.15620,0.47737
583.12594,0.48090
582.09568,0.48373
581.06542,0.48428
580.03517,0.48370
579.00491,0.48427
577.97465,0.48617
576.94439,0.48637
575.91413,0.48534
574.88388,0.48648
573.85362,0.48888
572.82336,0.49143
571.79310,0.49492
570.76284,0.49793
569.73259,0.49799
568.70233,0.49692
567.67207,0.49810
566.64181,0.50003
565.61156,0.50012
564.58130,0.49829
563.55104,0.49704
562.52078,0.49821
561.49052,0.49933
560.46027,0.49915
559.43001,0.50009
558.39975,0.50327
557.36949,0.50539
556.33924,0.50509
555.30898,0.50584
554.27872,0.50728
553.24846,0.50721
552.21820,0.50818
551.18795,0.51150
550.15769,0.51393
549.12743,0.51357
548.09717,0.51287
547.06691,0.51336
546.03666,0.51427
545.00640,0.51639
543.97614,0.51921
542.94588,0.52096
541.91563,0.52198
540.88537,0.52199
539.85511,0.52073
538.82485,0.52024
537.79459,0.52289
536.76434,0.52605
535.73408,0.52539
534.70382,0.52411
533.67356,0.52576
532.64330,0.52769
531.61305,0.52805
530.58279,0.52760
529.55253,0.52739
528.52227,0.52826
527.49202,0.52983
526.46176,0.53246
525.43150,0.53698
524.40124,0.53997
523.37098,0.53797
522.34073,0.53280
521.31047,0.52790
520.28021,0.52727
519.24995,0.53253
518.21969,0.53756
517.18944,0.53859
516.15918,0.53756
515.12892,0.53723
514.09866,0.54002
513.06841,0.54257
512.03815,0.54151
511.00789,0.54057
509.97763,0.54144
508.94737,0.54191
507.91712,0.54034
506.88686,0.53733
505.85660,0.53726
504.82634,0.53945
503.79609,0.53893
502.76583,0.54047
501.73557,0.54690
500.70531,0.54928
499.67505,0.54820
498.64480,0.54772
497.61454,0.54671
496.58428,0.54755
495.55402,0.55003
494.52376,0.55023
493.49351,0.54970
492.46325,0.55062
491.43299,0.55105
490.40273,0.55054
489.37248,0.55071
488.34222,0.55306
487.31196,0.55622
486.28170,0.55774
485.25144,0.56056
484.22119,0.56480
483.19093,0.56636
482.16067,0.56517
481.13041,0.56238
480.10015,0.55871
479.06990,0.55560
478.03964,0.55540
477.00938,0.55793
475.97912,0.55954
474.94887,0.56115
473.91861,0.56146
472.88835,0.55775
471.85809,0.55954
470.82783,0.56805
469.79758,0.57020
468.76732,0.56555
467.73706,0.56271
466.70680,0.56296
465.67654,0.56421
464.64629,0.56522
463.61603,0.56283
462.58577,0.55832
461.55551,0.55789
460.52526,0.56329
459.49500,0.57024
458.46474,0.57522
457.43448,0.57440
456.40422,0.56999
455.37397,0.56702
454.34371,0.56419
453.31345,0.56117
452.28319,0.56057
451.25294,0.56203
450.22268,0.56418
449.19242,0.56760
448.16216,0.57032
447.13190,0.57249
446.10165,0.57596
445.07139,0.57598
444.04113,0.57083
443.01087,0.56754
441.98061,0.57340
440.95036,0.58212
439.92010,0.58424
438.88984,0.58265
437.85958,0.58030
436.82933,0.57937
435.79907,0.58040
434.76881,0.57955
433.73855,0.57737
432.70829,0.57534
431.67804,0.57560
430.64778,0.58148
429.61752,0.59045
428.58726,0.59320
427.55700,0.58714
426.52675,0.57900
425.49649,0.57092
424.46623,0.56819
423.43597,0.57276
422.40572,0.57682
421.37546,0.57826
420.34520,0.57530
419.31494,0.57077
418.28468,0.58406
417.25443,0.59504
416.22417,0.59138
415.19391,0.59126
414.16365,0.59244
413.13339,0.58796
412.10314,0.58663
411.07288,0.58821
410.04262,0.58601
409.01236,0.58292
407.98211,0.58471
406.95185,0.59078
405.92159,0.59395
404.89133,0.59090
403.86107,0.58515
402.83082,0.58376
401.80056,0.59272
400.77030,0.60141
399.74004,0.59176
