4998.81105,0.00252
4997.78079,0.00382
4996.75054,0.00375
4995.72028,0.00327
4994.69002,0.00317
4993.65976,0.00343
4992.62951,0.00370
4991.59925,0.00394
4990.56899,0.00396
4989.53873,0.00351
4988.50847,0.00299
4987.47822,0.00261
4986.44796,0.00243
4985.41770,0.00235
4984.38744,0.00236
4983.35718,0.00287
4982.32693,0.00337
4981.29667,0.00334
4980.26641,0.00347
4979.23615,0.00417
4978.20590,0.00481
4977.17564,0.00465
4976.14538,0.00395
4975.11512,0.00382
4974.08486,0.00456
4973.05461,0.00452
4972.02435,0.00309
4970.99409,0.00219
4969.96383,0.00223
4968.93357,0.00249
4967.90332,0.00322
4966.87306,0.00341
4965.84280,0.00279
4964.81254,0.00287
4963.78229,0.00324
4962.75203,0.00277
4961.72177,0.00216
4960.69151,0.00251
4959.66125,0.00376
4958.63100,0.00531
4957.60074,0.00611
4956.57048,0.00529
4955.54022,0.00382
4954.50997,0.00310
4953.47971,0.00323
4952.44945,0.00327
4951.41919,0.00286
4950.38893,0.00264
4949.35868,0.00325
4948.32842,0.00427
4947.29816,0.00472
4946.26790,0.00449
4945.23764,0.00329
4944.20739,0.00150
4943.17713,0.00102
4942.14687,0.00152
4941.11661,0.00185
4940.08636,0.00259
4939.05610,0.00336
4938.02584,0.00322
4936.99558,0.00258
4935.96532,0.00210
4934.93507,0.00168
4933.90481,0.00163
4932.87455,0.00233
4931.84429,0.00236
4930.81403,0.00126
4929.78378,0.00097
4928.75352,0.00223
4927.72326,0.00382
4926.69300,0.00467
4925.66275,0.00429
4924.63249,0.00302
4923.60223,0.00223
4922.57197,0.00290
4921.54171,0.00438
4920.51146,0.00517
4919.48120,0.00480
4918.45094,0.00375
4917.42068,0.00277
4916.39042,0.00250
4915.36017,0.00277
4914.32991,0.00288
4913.29965,0.00265
4912.26939,0.00265
4911.23914,0.00301
4910.20888,0.00307
4909.17862,0.00296
4908.14836,0.00321
4907.11810,0.00323
4906.08785,0.00264
4905.05759,0.00244
4904.02733,0.00271
4902.99707,0.00232
4901.96682,0.00223
4900.93656,0.00310
4899.90630,0.00390
4898.87604,0.00424
4897.84578,0.00360
4896.81553,0.00240
4895.78527,0.00188
4894.75501,0.00242
4893.72475,0.00356
4892.69449,0.00406
4891.66424,0.00347
4890.63398,0.00301
4889.60372,0.00315
4888.57346,0.00287
4887.54321,0.00219
4886.51295,0.00230
4885.48269,0.00314
4884.45243,0.00377
4883.42217,0.00375
4882.39192,0.00309
4881.36166,0.00263
4880.33140,0.00271
4879.30114,0.00255
4878.27088,0.00229
4877.24063,0.00182
4876.21037,0.00113
4875.18011,0.00139
4874.14985,0.00226
4873.11960,0.00246
4872.08934,0.00212
4871.05908,0.00175
4870.02882,0.00181
4868.99856,0.00266
4867.96831,0.00376
4866.93805,0.00425
4865.90779,0.00451
4864.87753,0.00454
4863.84727,0.00375
4862.81702,0.00298
4861.78676,0.00272
4860.75650,0.00248
4859.72624,0.00210
4858.69599,0.00181
4857.66573,0.00159
4856.63547,0.00136
4855.60521,0.00122
4854.57495,0.00093
4853.54470,0.00074
4852.51444,0.00106
4851.48418,0.00166
4850.45392,0.00200
4849.42367,0.00231
4848.39341,0.00291
4847.36315,0.00300
4846.33289,0.00269
4845.30263,0.00294
4844.27238,0.00330
4843.24212,0.00300
4842.21186,0.00259
4841.18160,0.00293
4840.15134,0.00332
4839.12109,0.00287
4838.09083,0.00216
4837.06057,0.00166
4836.03031,0.00163
4835.00006,0.00194
4833.96980,0.00198
4832.93954,0.00225
4831.90928,0.00265
4830.87902,0.00209
4829.84877,0.00141
4828.81851,0.00127
4827.78825,0.00136
4826.75799,0.00217
4825.72773,0.00302
4824.69748,0.00299
4823.66722,0.00264
4822.63696,0.00264
4821.60670,0.00295
4820.57645,0.00286
4819.54619,0.00236
4818.51593,0.00238
4817.48567,0.00264
4816.45541,0.00234
4815.42516,0.00210
4814.39490,0.00243
4813.36464,0.00246
4812.33438,0.00197
4811.30412,0.00192
4810.27387,0.00202
4809.24361,0.00209
4808.21335,0.00269
4807.18309,0.00288
4806.15284,0.00214
4805.12258,0.00153
4804.09232,0.00175
4803.06206,0.00213
4802.03180,0.00213
4801.00155,0.00253
4799.97129,0.00314
4798.94103,0.00362
4797.91077,0.00443
4796.88052,0.00453
4795.85026,0.00357
4794.82000,0.00268
4793.78974,0.00237
4792.75948,0.00254
4791.72923,0.00269
4790.69897,0.00311
4789.66871,0.00375
4788.63845,0.00349
4787.60819,0.00246
4786.57794,0.00182
4785.54768,0.00183
4784.51742,0.00207
4783.48716,0.00199
4782.45691,0.00153
4781.42665,0.00180
4780.39639,0.00255
4779.36613,0.00304
4778.33587,0.00324
4777.30562,0.00237
4776.27536,0.00130
4775.24510,0.00161
4774.21484,0.00242
4773.18458,0.00280
4772.15433,0.00295
4771.12407,0.00267
4770.09381,0.00217
4769.06355,0.00190
4768.03330,0.00157
4767.00304,0.00093
4765.97278,0.00057
4764.94252,0.00099
4763.91226,0.00159
4762.88201,0.00214
4761.85175,0.00287
4760.82149,0.00320
4759.79123,0.00252
4758.76098,0.00147
4757.73072,0.00175
4756.70046,0.00347
4755.67020,0.00442
4754.63994,0.00427
4753.60969,0.00420
4752.57943,0.00391
4751.54917,0.00369
4750.51891,0.00395
4749.48865,0.00382
4748.45840,0.00320
4747.42814,0.00299
4746.39788,0.00345
4745.36762,0.00348
4744.33737,0.00215
4743.30711,0.00070
4742.27685,0.00050
4741.24659,0.00078
4740.21633,0.00104
4739.18608,0.00197
4738.15582,0.00287
4737.12556,0.00262
4736.09530,0.00210
4735.06504,0.00195
4734.03479,0.00176
4733.00453,0.00182
4731.97427,0.00226
4730.94401,0.00230
4729.91376,0.00187
4728.88350,0.00176
4727.85324,0.00235
4726.82298,0.00280
4725.79272,0.00230
4724.76247,0.00178
4723.73221,0.00188
4722.70195,0.00192
4721.67169,0.00154
4720.64143,0.00175
4719.61118,0.00274
4718.58092,0.00323
4717.55066,0.00278
4716.52040,0.00211
4715.49015,0.00205
4714.45989,0.00276
4713.42963,0.00347
4712.39937,0.00335
4711.36911,0.00243
4710.33886,0.00173
4709.30860,0.00204
4708.27834,0.00231
4707.24808,0.00146
4706.21783,0.00038
4705.18757,0.00034
4704.15731,0.00124
4703.12705,0.00185
4702.09679,0.00210
4701.06654,0.00220
4700.03628,0.00177
4699.00602,0.00126
4697.97576,0.00127
4696.94550,0.00156
4695.91525,0.00192
4694.88499,0.00236
4693.85473,0.00250
4692.82447,0.00207
4691.79422,0.00180
4690.76396,0.00219
4689.73370,0.00269
4688.70344,0.00338
4687.67318,0.00386
4686.64293,0.00360
4685.61267,0.00349
4684.58241,0.00325
4683.55215,0.00224
4682.52189,0.00130
4681.49164,0.00094
4680.46138,0.00119
4679.43112,0.00183
4678.40086,0.00190
4677.37061,0.00193
4676.34035,0.00256
4675.31009,0.00252
4674.27983,0.00157
4673.24957,0.00135
4672.21932,0.00242
4671.18906,0.00304
4670.15880,0.00275
4669.12854,0.00233
4668.09828,0.00206
4667.06803,0.00256
4666.03777,0.00344
4665.00751,0.00336
4663.97725,0.00267
4662.94700,0.00266
4661.91674,0.00295
4660.88648,0.00291
4659.85622,0.00321
4658.82596,0.00364
4657.79571,0.00327
4656.76545,0.00281
4655.73519,0.00306
4654.70493,0.00303
4653.67468,0.00222
4652.64442,0.00161
4651.61416,0.00148
4650.58390,0.00166
4649.55364,0.00233
4648.52339,0.00267
4647.49313,0.00220
4646.46287,0.00161
4645.43261,0.00142
4644.40235,0.00187
4643.37210,0.00239
4642.34184,0.00221
4641.31158,0.00168
4640.28132,0.00141
4639.25107,0.00184
4638.22081,0.00277
4637.19055,0.00319
4636.16029,0.00250
4635.13003,0.00130
4634.09978,0.00094
4633.06952,0.00145
4632.03926,0.00166
4631.00900,0.00138
4629.97874,0.00159
4628.94849,0.00234
4627.91823,0.00289
4626.88797,0.00314
4625.85771,0.00301
4624.82746,0.00289
4623.79720,0.00338
4622.76694,0.00409
4621.73668,0.00410
4620.70642,0.00339
4619.67617,0.00312
4618.64591,0.00312
4617.61565,0.00243
4616.58539,0.00195
4615.55513,0.00226
4614.52488,0.00220
4613.49462,0.00207
4612.46436,0.00250
4611.43410,0.00268
4610.40385,0.00249
4609.37359,0.00226
4608.34333,0.00215
4607.31307,0.00269
4606.28281,0.00358
4605.25256,0.00352
4604.22230,0.00252
4603.19204,0.00157
4602.16178,0.00149
4601.13153,0.00238
4600.10127,0.00326
4599.07101,0.00337
4598.04075,0.00269
4597.01049,0.00188
4595.98024,0.00172
4594.94998,0.00196
4593.91972,0.00219
4592.88946,0.00221
4591.85920,0.00199
4590.82895,0.00207
4589.79869,0.00252
4588.76843,0.00287
4587.73817,0.00292
4586.70792,0.00276
4585.67766,0.00259
4584.64740,0.00240
4583.61714,0.00219
4582.58688,0.00172
4581.55663,0.00070
4580.52637,0.00047
4579.49611,0.00154
4578.46585,0.00215
4577.43559,0.00196
4576.40534,0.00212
4575.37508,0.00248
4574.34482,0.00221
4573.31456,0.00186
4572.28431,0.00191
4571.25405,0.00202
4570.22379,0.00212
4569.19353,0.00179
4568.16327,0.00120
4567.13302,0.00148
4566.10276,0.00249
4565.07250,0.00295
4564.04224,0.00271
4563.01198,0.00235
4561.98173,0.00202
4560.95147,0.00218
4559.92121,0.00274
4558.89095,0.00247
4557.86070,0.00147
4556.83044,0.00094
4555.80018,0.00122
4554.76992,0.00190
4553.73966,0.00231
4552.70941,0.00186
4551.67915,0.00115
4550.64889,0.00128
4549.61863,0.00190
4548.58838,0.00233
4547.55812,0.00257
4546.52786,0.00256
4545.49760,0.00236
4544.46734,0.00258
4543.43709,0.00325
4542.40683,0.00329
4541.37657,0.00260
4540.34631,0.00239
4539.31605,0.00283
4538.28580,0.00322
4537.25554,0.00332
4536.22528,0.00317
4535.19502,0.00319
4534.16477,0.00316
4533.13451,0.00262
4532.10425,0.00261
4531.07399,0.00307
4530.04373,0.00250
4529.01348,0.00135
4527.98322,0.00108
4526.95296,0.00166
4525.92270,0.00223
4524.89244,0.00235
4523.86219,0.00188
4522.83193,0.00149
4521.80167,0.00198
4520.77141,0.00288
4519.74116,0.00330
4518.71090,0.00302
4517.68064,0.00261
4516.65038,0.00247
4515.62012,0.00243
4514.58987,0.00245
4513.55961,0.00244
4512.52935,0.00257
4511.49909,0.00300
4510.46883,0.00316
4509.43858,0.00296
4508.40832,0.00277
4507.37806,0.00269
4506.34780,0.00257
4505.31755,0.00215
4504.28729,0.00208
4503.25703,0.00239
4502.22677,0.00242
4501.19651,0.00204
4500.16626,0.00121
4499.13600,0.00098
4498.10574,0.00163
4497.07548,0.00192
4496.04523,0.00163
4495.01497,0.00161
4493.98471,0.00219
4492.95445,0.00294
4491.92419,0.00339
4490.89394,0.00364
4489.86368,0.00359
4488.83342,0.00303
4487.80316,0.00253
4486.77290,0.00240
4485.74265,0.00205
4484.71239,0.00174
4483.68213,0.00221
4482.65187,0.00288
4481.62162,0.00309
4480.59136,0.00285
4479.56110,0.00251
4478.53084,0.00261
4477.50058,0.00294
4476.47033,0.00318
4475.44007,0.00304
4474.40981,0.00197
4473.37955,0.00084
4472.34929,0.00069
4471.31904,0.00137
4470.28878,0.00227
4469.25852,0.00238
4468.22826,0.00174
4467.19801,0.00163
4466.16775,0.00198
4465.13749,0.00209
4464.10723,0.00270
4463.07697,0.00381
4462.04672,0.00410
4461.01646,0.00337
4459.98620,0.00258
4458.95594,0.00176
4457.92568,0.00108
4456.89543,0.00107
4455.86517,0.00151
4454.83491,0.00219
4453.80465,0.00265
4452.77440,0.00240
4451.74414,0.00194
4450.71388,0.00202
4449.68362,0.00255
4448.65336,0.00279
4447.62311,0.00270
4446.59285,0.00261
4445.56259,0.00263
4444.53233,0.00295
4443.50208,0.00301
4442.47182,0.00212
4441.44156,0.00138
4440.41130,0.00167
4439.38104,0.00223
4438.35079,0.00263
4437.32053,0.00289
4436.29027,0.00289
4435.26001,0.00289
4434.22975,0.00285
4433.19950,0.00249
4432.16924,0.00215
4431.13898,0.00222
4430.10872,0.00252
4429.07847,0.00264
4428.04821,0.00260
4427.01795,0.00270
4425.98769,0.00282
4424.95743,0.00304
4423.92718,0.00301
4422.89692,0.00244
4421.86666,0.00207
4420.83640,0.00259
4419.80614,0.00351
4418.77589,0.00353
4417.74563,0.00297
4416.71537,0.00277
4415.68511,0.00277
4414.65486,0.00280
4413.62460,0.00252
4412.59434,0.00225
4411.56408,0.00227
4410.53382,0.00214
4409.50357,0.00244
4408.47331,0.00348
4407.44305,0.00389
4406.41279,0.00305
4405.38253,0.00215
4404.35228,0.00215
4403.32202,0.00242
4402.29176,0.00237
4401.26150,0.00218
4400.23125,0.00187
4399.20099,0.00165
4398.17073,0.00184
4397.14047,0.00237
4396.11021,0.00285
4395.07996,0.00315
4394.04970,0.00347
4393.01944,0.00361
4391.98918,0.00325
4390.95893,0.00253
4389.92867,0.00187
4388.89841,0.00157
4387.86815,0.00180
4386.83789,0.00235
4385.80764,0.00273
4384.77738,0.00300
4383.74712,0.00331
4382.71686,0.00343
4381.68660,0.00301
4380.65635,0.00246
4379.62609,0.00263
4378.59583,0.00296
4377.56557,0.00259
4376.53532,0.00210
4375.50506,0.00206
4374.47480,0.00224
4373.44454,0.00257
4372.41428,0.00248
4371.38403,0.00196
4370.35377,0.00223
4369.32351,0.00280
4368.29325,0.00301
4367.26299,0.00326
4366.23274,0.00326
4365.20248,0.00275
4364.17222,0.00225
4363.14196,0.00234
4362.11171,0.00249
4361.08145,0.00219
4360.05119,0.00191
4359.02093,0.00208
4357.99067,0.00279
4356.96042,0.00372
4355.93016,0.00421
4354.89990,0.00397
4353.86964,0.00336
4352.83939,0.00267
4351.80913,0.00236
4350.77887,0.00280
4349.74861,0.00341
4348.71835,0.00325
4347.68810,0.00246
4346.65784,0.00197
4345.62758,0.00190
4344.59732,0.00215
4343.56706,0.00302
4342.53681,0.00387
4341.50655,0.00366
4340.47629,0.00256
4339.44603,0.00168
4338.41578,0.00172
4337.38552,0.00251
4336.35526,0.00325
4335.32500,0.00338
4334.29474,0.00316
4333.26449,0.00287
4332.23423,0.00263
4331.20397,0.00262
4330.17371,0.00252
4329.14345,0.00230
4328.11320,0.00244
4327.08294,0.00279
4326.05268,0.00289
4325.02242,0.00285
4323.99217,0.00267
4322.96191,0.00222
4321.93165,0.00205
4320.90139,0.00223
4319.87113,0.00248
4318.84088,0.00257
4317.81062,0.00236
4316.78036,0.00239
4315.75010,0.00284
4314.71984,0.00308
4313.68959,0.00283
4312.65933,0.00237
4311.62907,0.00193
4310.59881,0.00166
4309.56856,0.00158
4308.53830,0.00164
4307.50804,0.00165
4306.47778,0.00168
4305.44752,0.00200
4304.41727,0.00245
4303.38701,0.00293
4302.35675,0.00324
4301.32649,0.00329
4300.29624,0.00294
4299.26598,0.00212
4298.23572,0.00153
4297.20546,0.00162
4296.17520,0.00189
4295.14495,0.00216
4294.11469,0.00258
4293.08443,0.00284
4292.05417,0.00311
4291.02391,0.00324
4289.99366,0.00287
4288.96340,0.00278
4287.93314,0.00307
4286.90288,0.00314
4285.87263,0.00315
4284.84237,0.00302
4283.81211,0.00268
4282.78185,0.00261
4281.75159,0.00291
4280.72134,0.00307
4279.69108,0.00280
4278.66082,0.00243
4277.63056,0.00212
4276.60030,0.00198
4275.57005,0.00232
4274.53979,0.00270
4273.50953,0.00263
4272.47927,0.00248
4271.44902,0.00263
4270.41876,0.00313
4269.38850,0.00343
4268.35824,0.00322
4267.32798,0.00301
4266.29773,0.00282
4265.26747,0.00216
4264.23721,0.00162
4263.20695,0.00187
4262.17669,0.00226
4261.14644,0.00247
4260.11618,0.00284
4259.08592,0.00336
4258.05566,0.00350
4257.02541,0.00327
4255.99515,0.00346
4254.96489,0.00359
4253.93463,0.00311
4252.90437,0.00286
4251.87412,0.00323
4250.84386,0.00360
4249.81360,0.00326
4248.78334,0.00232
4247.75309,0.00177
4246.72283,0.00204
4245.69257,0.00243
4244.66231,0.00274
4243.63205,0.00319
4242.60180,0.00329
4241.57154,0.00299
4240.54128,0.00287
4239.51102,0.00288
4238.48076,0.00275
4237.45051,0.00282
4236.42025,0.00294
4235.38999,0.00262
4234.35973,0.00232
4233.32948,0.00245
4232.29922,0.00286
4231.26896,0.00328
4230.23870,0.00342
4229.20844,0.00339
4228.17819,0.00316
4227.14793,0.00268
4226.11767,0.00247
4225.08741,0.00263
4224.05715,0.00294
4223.02690,0.00338
4221.99664,0.00386
4220.96638,0.00410
4219.93612,0.00408
4218.90587,0.00436
4217.87561,0.00448
4216.84535,0.00363
4215.81509,0.00284
4214.78483,0.00293
4213.75458,0.00309
4212.72432,0.00292
4211.69406,0.00285
4210.66380,0.00283
4209.63354,0.00276
4208.60329,0.00291
4207.57303,0.00312
4206.54277,0.00296
4205.51251,0.00261
4204.48226,0.00260
4203.45200,0.00258
4202.42174,0.00248
4201.39148,0.00283
4200.36122,0.00323
4199.33097,0.00318
4198.30071,0.00289
4197.27045,0.00265
4196.24019,0.00255
4195.20994,0.00261
4194.17968,0.00290
4193.14942,0.00328
4192.11916,0.00346
4191.08890,0.00376
4190.05865,0.00384
4189.02839,0.00321
4187.99813,0.00300
4186.96787,0.00312
4185.93761,0.00274
4184.90736,0.00290
4183.87710,0.00361
4182.84684,0.00367
4181.81658,0.00340
4180.78633,0.00339
4179.75607,0.00352
4178.72581,0.00357
4177.69555,0.00356
4176.66529,0.00364
4175.63504,0.00353
4174.60478,0.00315
4173.57452,0.00288
4172.54426,0.00289
4171.51400,0.00319
4170.48375,0.00346
4169.45349,0.00327
4168.42323,0.00303
4167.39297,0.00294
4166.36272,0.00278
4165.33246,0.00273
4164.30220,0.00302
4163.27194,0.00344
4162.24168,0.00367
4161.21143,0.00355
4160.18117,0.00337
4159.15091,0.00341
4158.12065,0.00324
4157.09039,0.00308
4156.06014,0.00342
4155.02988,0.00371
4153.99962,0.00384
4152.96936,0.00390
4151.93911,0.00368
4150.90885,0.00349
4149.87859,0.00335
4148.84833,0.00319
4147.81807,0.00339
4146.78782,0.00388
4145.75756,0.00412
4144.72730,0.00394
4143.69704,0.00357
4142.66679,0.00335
4141.63653,0.00356
4140.60627,0.00372
4139.57601,0.00345
4138.54575,0.00311
4137.51550,0.00333
4136.48524,0.00395
4135.45498,0.00391
4134.42472,0.00325
4133.39446,0.00293
4132.36421,0.00284
4131.33395,0.00277
4130.30369,0.00328
4129.27343,0.00406
4128.24318,0.00405
4127.21292,0.00354
4126.18266,0.00350
4125.15240,0.00380
4124.12214,0.00376
4123.09189,0.00333
4122.06163,0.00302
4121.03137,0.00312
4120.00111,0.00337
4118.97085,0.00324
4117.94060,0.00273
4116.91034,0.00240
4115.88008,0.00256
4114.84982,0.00291
4113.81957,0.00330
4112.78931,0.00377
4111.75905,0.00408
4110.72879,0.00404
4109.69853,0.00392
4108.66828,0.00388
4107.63802,0.00404
4106.60776,0.00419
4105.57750,0.00392
4104.54724,0.00352
4103.51699,0.00328
4102.48673,0.00314
4101.45647,0.00319
4100.42621,0.00317
4099.39596,0.00308
4098.36570,0.00337
4097.33544,0.00397
4096.30518,0.00431
4095.27492,0.00384
4094.24467,0.00320
4093.21441,0.00328
4092.18415,0.00350
4091.15389,0.00320
4090.12364,0.00307
4089.09338,0.00345
4088.06312,0.00320
4087.03286,0.00243
4086.00260,0.00252
4084.97235,0.00351
4083.94209,0.00437
4082.91183,0.00455
4081.88157,0.00439
4080.85131,0.00415
4079.82106,0.00394
4078.79080,0.00400
4077.76054,0.00409
4076.73028,0.00401
4075.70003,0.00401
4074.66977,0.00403
4073.63951,0.00371
4072.60925,0.00351
4071.57899,0.00375
4070.54874,0.00370
4069.51848,0.00341
4068.48822,0.00376
4067.45796,0.00429
4066.42770,0.00423
4065.39745,0.00382
4064.36719,0.00364
4063.33693,0.00385
4062.30667,0.00372
4061.27642,0.00320
4060.24616,0.00300
4059.21590,0.00295
4058.18564,0.00300
4057.15538,0.00365
4056.12513,0.00442
4055.09487,0.00450
4054.06461,0.00421
4053.03435,0.00409
4052.00409,0.00410
4050.97384,0.00417
4049.94358,0.00406
4048.91332,0.00384
4047.88306,0.00386
4046.85281,0.00385
4045.82255,0.00368
4044.79229,0.00371
4043.76203,0.00400
4042.73177,0.00414
4041.70152,0.00387
4040.67126,0.00362
4039.64100,0.00384
4038.61074,0.00403
4037.58049,0.00389
4036.55023,0.00380
4035.51997,0.00377
4034.48971,0.00376
4033.45945,0.00404
4032.42920,0.00435
4031.39894,0.00408
4030.36868,0.00354
4029.33842,0.00346
4028.30816,0.00371
4027.27791,0.00370
4026.24765,0.00359
4025.21739,0.00380
4024.18713,0.00412
4023.15688,0.00403
4022.12662,0.00357
4021.09636,0.00331
4020.06610,0.00353
4019.03584,0.00392
4018.00559,0.00390
4016.97533,0.00370
4015.94507,0.00414
4014.91481,0.00469
4013.88455,0.00470
4012.85430,0.00469
4011.82404,0.00461
4010.79378,0.00420
4009.76352,0.00387
4008.73327,0.00392
4007.70301,0.00401
4006.67275,0.00388
4005.64249,0.00385
4004.61223,0.00409
4003.58198,0.00403
4002.55172,0.00346
4001.52146,0.00320
4000.49120,0.00370
3999.46095,0.00438
3998.43069,0.00445
3997.40043,0.00415
3996.37017,0.00426
3995.33991,0.00459
3994.30966,0.00427
3993.27940,0.00357
3992.24914,0.00346
3991.21888,0.00373
3990.18862,0.00377
3989.15837,0.00380
3988.12811,0.00381
3987.09785,0.00354
3986.06759,0.00330
3985.03734,0.00362
3984.00708,0.00419
3982.97682,0.00414
3981.94656,0.00356
3980.91630,0.00324
3979.88605,0.00342
3978.85579,0.00372
3977.82553,0.00394
3976.79527,0.00424
3975.76501,0.00420
3974.73476,0.00363
3973.70450,0.00320
3972.67424,0.00311
3971.64398,0.00322
3970.61373,0.00362
3969.58347,0.00405
3968.55321,0.00416
3967.52295,0.00429
3966.49269,0.00445
3965.46244,0.00417
3964.43218,0.00397
3963.40192,0.00425
3962.37166,0.00432
3961.34140,0.00419
3960.31115,0.00417
3959.28089,0.00426
3958.25063,0.00457
3957.22037,0.00466
3956.19012,0.00419
3955.15986,0.00383
3954.12960,0.00419
3953.09934,0.00456
3952.06908,0.00439
3951.03883,0.00436
3950.00857,0.00467
3948.97831,0.00465
3947.94805,0.00414
3946.91780,0.00392
3945.88754,0.00416
3944.85728,0.00418
3943.82702,0.00398
3942.79676,0.00399
3941.76651,0.00400
3940.73625,0.00374
3939.70599,0.00357
3938.67573,0.00360
3937.64547,0.00352
3936.61522,0.00353
3935.58496,0.00386
3934.55470,0.00399
3933.52444,0.00369
3932.49419,0.00364
3931.46393,0.00400
3930.43367,0.00419
3929.40341,0.00407
3928.37315,0.00386
3927.34290,0.00371
3926.31264,0.00383
3925.28238,0.00422
3924.25212,0.00449
3923.22186,0.00455
3922.19161,0.00445
3921.16135,0.00425
3920.13109,0.00425
3919.10083,0.00447
3918.07058,0.00473
3917.04032,0.00464
3916.01006,0.00416
3914.97980,0.00398
3913.94954,0.00399
3912.91929,0.00387
3911.88903,0.00401
3910.85877,0.00432
3909.82851,0.00436
3908.79825,0.00422
3907.76800,0.00396
3906.73774,0.00375
3905.70748,0.00404
3904.67722,0.00425
3903.64697,0.00385
3902.61671,0.00359
3901.58645,0.00367
3900.55619,0.00397
3899.52593,0.00461
3898.49568,0.00497
3897.46542,0.00462
3896.43516,0.00425
3895.40490,0.00405
3894.37465,0.00382
3893.34439,0.00349
3892.31413,0.00284
3891.28387,0.00243
3890.25361,0.00313
3889.22336,0.00379
3888.19310,0.00382
3887.16284,0.00391
3886.13258,0.00412
3885.10232,0.00425
3884.07207,0.00437
3883.04181,0.00435
3882.01155,0.00442
3880.98129,0.00467
3879.95104,0.00479
3878.92078,0.00452
3877.89052,0.00399
3876.86026,0.00378
3875.83000,0.00397
3874.79975,0.00414
3873.76949,0.00419
3872.73923,0.00410
3871.70897,0.00391
3870.67871,0.00386
3869.64846,0.00409
3868.61820,0.00473
3867.58794,0.00532
3866.55768,0.00502
3865.52743,0.00422
3864.49717,0.00416
3863.46691,0.00428
3862.43665,0.00385
3861.40639,0.00367
3860.37614,0.00381
3859.34588,0.00371
3858.31562,0.00376
3857.28536,0.00415
3856.25510,0.00421
3855.22485,0.00391
3854.19459,0.00388
3853.16433,0.00390
3852.13407,0.00384
3851.10382,0.00426
3850.07356,0.00449
3849.04330,0.00440
3848.01304,0.00439
3846.98278,0.00439
3845.95253,0.00442
3844.92227,0.00456
3843.89201,0.00444
3842.86175,0.00397
3841.83150,0.00375
3840.80124,0.00386
3839.77098,0.00393
3838.74072,0.00397
3837.71046,0.00397
3836.68021,0.00431
3835.64995,0.00497
3834.61969,0.00525
3833.58943,0.00484
3832.55917,0.00420
3831.52892,0.00412
3830.49866,0.00449
3829.46840,0.00475
3828.43814,0.00502
3827.40789,0.00503
3826.37763,0.00468
3825.34737,0.00448
3824.31711,0.00463
3823.28685,0.00491
3822.25660,0.00518
3821.22634,0.00533
3820.19608,0.00489
3819.16582,0.00425
3818.13556,0.00408
3817.10531,0.00420
3816.07505,0.00419
3815.04479,0.00406
3814.01453,0.00394
3812.98428,0.00399
3811.95402,0.00423
3810.92376,0.00442
3809.89350,0.00462
3808.86324,0.00498
3807.83299,0.00527
3806.80273,0.00505
3805.77247,0.00463
3804.74221,0.00451
3803.71195,0.00469
3802.68170,0.00499
3801.65144,0.00507
3800.62118,0.00481
3799.59092,0.00474
3798.56067,0.00498
3797.53041,0.00500
3796.50015,0.00467
3795.46989,0.00453
3794.43963,0.00461
3793.40938,0.00474
3792.37912,0.00497
3791.34886,0.00527
3790.31860,0.00537
3789.28835,0.00510
3788.25809,0.00496
3787.22783,0.00543
3786.19757,0.00587
3785.16731,0.00556
3784.13706,0.00486
3783.10680,0.00455
3782.07654,0.00502
3781.04628,0.00557
3780.01602,0.00560
3778.98577,0.00551
3777.95551,0.00560
3776.92525,0.00554
3775.89499,0.00522
3774.86474,0.00502
3773.83448,0.00493
3772.80422,0.00496
3771.77396,0.00522
3770.74370,0.00525
3769.71345,0.00504
3768.68319,0.00500
3767.65293,0.00500
3766.62267,0.00489
3765.59241,0.00481
3764.56216,0.00500
3763.53190,0.00552
3762.50164,0.00623
3761.47138,0.00678
3760.44113,0.00682
3759.41087,0.00650
3758.38061,0.00650
3757.35035,0.00669
3756.32009,0.00667
3755.28984,0.00652
3754.25958,0.00662
3753.22932,0.00688
3752.19906,0.00646
3751.16880,0.00581
3750.13855,0.00625
3749.10829,0.00696
3748.07803,0.00681
3747.04777,0.00631
3746.01752,0.00638
3744.98726,0.00737
3743.95700,0.00754
3742.92674,0.00661
3741.89648,0.00649
3740.86623,0.00710
3739.83597,0.00745
3738.80571,0.00723
3737.77545,0.00730
3736.74520,0.00787
3735.71494,0.00808
3734.68468,0.00789
3733.65442,0.00806
3732.62416,0.00813
3731.59391,0.00738
3730.56365,0.00670
3729.53339,0.00665
3728.50313,0.00688
3727.47287,0.00725
3726.44262,0.00775
3725.41236,0.00810
3724.38210,0.00806
3723.35184,0.00796
3722.32159,0.00826
3721.29133,0.00876
3720.26107,0.00903
3719.23081,0.00928
3718.20055,0.00940
3717.17030,0.00913
3716.14004,0.00882
3715.10978,0.00867
3714.07952,0.00906
3713.04926,0.00993
3712.01901,0.01016
3710.98875,0.00962
3709.95849,0.00971
3708.92823,0.01040
3707.89798,0.01075
3706.86772,0.01089
3705.83746,0.01113
3704.80720,0.01109
3703.77694,0.01091
3702.74669,0.01102
3701.71643,0.01139
3700.68617,0.01175
3699.65591,0.01179
3698.62565,0.01186
3697.59540,0.01247
3696.56514,0.01304
3695.53488,0.01309
3694.50462,0.01306
3693.47437,0.01331
3692.44411,0.01383
3691.41385,0.01452
3690.38359,0.01544
3689.35333,0.01620
3688.32308,0.01621
3687.29282,0.01623
3686.26256,0.01675
3685.23230,0.01725
3684.20205,0.01753
3683.17179,0.01768
3682.14153,0.01815
3681.11127,0.01908
3680.08101,0.02015
3679.05076,0.02096
3678.02050,0.02180
3676.99024,0.02287
3675.95998,0.02332
3674.92972,0.02290
3673.89947,0.02339
3672.86921,0.02446
3671.83895,0.02484
3670.80869,0.02501
3669.77844,0.02646
3668.74818,0.02813
3667.71792,0.02877
3666.68766,0.02947
3665.65740,0.03075
3664.62715,0.03180
3663.59689,0.03244
3662.56663,0.03312
3661.53637,0.03399
3660.50611,0.03501
3659.47586,0.03584
3658.44560,0.03618
3657.41534,0.03682
3656.38508,0.03834
3655.35483,0.03965
3654.32457,0.04052
3653.29431,0.04154
3652.26405,0.04221
3651.23379,0.04252
3650.20354,0.04334
3649.17328,0.04451
3648.14302,0.04539
3647.11276,0.04618
3646.08250,0.04714
3645.05225,0.04786
3644.02199,0.04822
3642.99173,0.04879
3641.96147,0.05001
3640.93122,0.05132
3639.90096,0.05198
3638.87070,0.05229
3637.84044,0.05301
3636.81018,0.05436
3635.77993,0.05584
3634.74967,0.05706
3633.71941,0.05804
3632.68915,0.05873
3631.65890,0.05921
3630.62864,0.05981
3629.59838,0.06060
3628.56812,0.06112
3627.53786,0.06183
3626.50761,0.06296
3625.47735,0.06383
3624.44709,0.06481
3623.41683,0.06610
3622.38657,0.06684
3621.35632,0.06730
3620.32606,0.06814
3619.29580,0.06883
3618.26554,0.06933
3617.23529,0.07020
3616.20503,0.07091
3615.17477,0.07099
3614.14451,0.07100
3613.11425,0.07170
3612.08400,0.07292
3611.05374,0.07374
3610.02348,0.07433
3608.99322,0.07545
3607.96296,0.07667
3606.93271,0.07766
3605.90245,0.07867
3604.87219,0.07945
3603.84193,0.07983
3602.81168,0.08017
3601.78142,0.08100
3600.75116,0.08220
3599.72090,0.08342
3598.69064,0.08446
3597.66039,0.08530
3596.63013,0.08643
3595.59987,0.08773
3594.56961,0.08828
3593.53936,0.08844
3592.50910,0.08907
3591.47884,0.08997
3590.44858,0.09098
3589.41832,0.09254
3588.38807,0.09405
3587.35781,0.09449
3586.32755,0.09467
3585.29729,0.09553
3584.26703,0.09687
3583.23678,0.09822
3582.20652,0.09917
3581.17626,0.09991
3580.14600,0.10062
3579.11575,0.10118
3578.08549,0.10174
3577.05523,0.10259
3576.02497,0.10365
3574.99471,0.10449
3573.96446,0.10514
3572.93420,0.10621
3571.90394,0.10765
3570.87368,0.10895
3569.84342,0.11013
3568.81317,0.11137
3567.78291,0.11228
3566.75265,0.11280
3565.72239,0.11349
3564.69214,0.11403
3563.66188,0.11452
3562.63162,0.11571
3561.60136,0.11731
3560.57110,0.11866
3559.54085,0.11977
3558.51059,0.12094
3557.48033,0.12234
3556.45007,0.12349
3555.41981,0.12425
3554.38956,0.12492
3553.35930,0.12549
3552.32904,0.12613
3551.29878,0.12706
3550.26853,0.12810
3549.23827,0.12919
3548.20801,0.13031
3547.17775,0.13142
3546.14749,0.13271
3545.11724,0.13427
3544.08698,0.13580
3543.05672,0.13678
3542.02646,0.13751
3540.99621,0.13848
3539.96595,0.13945
3538.93569,0.14048
3537.90543,0.14171
3536.87517,0.14299
3535.84492,0.14417
3534.81466,0.14503
3533.78440,0.14560
3532.75414,0.14636
3531.72388,0.14762
3530.69363,0.14906
3529.66337,0.15035
3528.63311,0.15162
3527.60285,0.15300
3526.57260,0.15383
3525.54234,0.15425
3524.51208,0.15532
3523.48182,0.15693
3522.45156,0.15815
3521.42131,0.15905
3520.39105,0.16014
3519.36079,0.16138
3518.33053,0.16242
3517.30027,0.16343
3516.27002,0.16472
3515.23976,0.16588
3514.20950,0.16700
3513.17924,0.16854
3512.14899,0.17017
3511.11873,0.17137
3510.08847,0.17228
3509.05821,0.17371
3508.02795,0.17527
3506.99770,0.17599
3505.96744,0.17651
3504.93718,0.17733
3503.90692,0.17849
3502.87666,0.18028
3501.84641,0.18208
3500.81615,0.18322
3499.78589,0.18396
3498.75563,0.18459
3497.72538,0.18535
3496.69512,0.18643
3495.66486,0.18789
3494.63460,0.18973
3493.60434,0.19128
3492.57409,0.19214
3491.54383,0.19290
3490.51357,0.19396
3489.48331,0.19527
3488.45306,0.19673
3487.42280,0.19834
3486.39254,0.19955
3485.36228,0.20002
3484.33202,0.20056
3483.30177,0.20175
3482.27151,0.20316
3481.24125,0.20422
3480.21099,0.20528
3479.18073,0.20666
3478.15048,0.20806
3477.12022,0.20937
3476.08996,0.21065
3475.05970,0.21171
3474.02945,0.21254
3472.99919,0.21387
3471.96893,0.21578
3470.93867,0.21727
3469.90841,0.21787
3468.87816,0.21839
3467.84790,0.21946
3466.81764,0.22063
3465.78738,0.22195
3464.75712,0.22363
3463.72687,0.22479
3462.69661,0.22561
3461.66635,0.22702
3460.63609,0.22838
3459.60584,0.22930
3458.57558,0.23052
3457.54532,0.23233
3456.51506,0.23442
3455.48480,0.23598
3454.45455,0.23676
3453.42429,0.23762
3452.39403,0.23876
3451.36377,0.24010
3450.33351,0.24156
3449.30326,0.24284
3448.27300,0.24371
3447.24274,0.24448
3446.21248,0.24573
3445.18223,0.24712
3444.15197,0.24823
3443.12171,0.24954
3442.09145,0.25135
3441.06119,0.25253
3440.03094,0.25273
3439.00068,0.25322
3437.97042,0.25459
3436.94016,0.25644
3435.90991,0.25802
3434.87965,0.25890
3433.84939,0.25966
3432.81913,0.26096
3431.78887,0.26260
3430.75862,0.26392
3429.72836,0.26477
3428.69810,0.26573
3427.66784,0.26683
3426.63758,0.26754
3425.60733,0.26860
3424.57707,0.27066
3423.54681,0.27265
3422.51655,0.27382
3421.48630,0.27446
3420.45604,0.27534
3419.42578,0.27696
3418.39552,0.27831
3417.36526,0.27877
3416.33501,0.27932
3415.30475,0.28063
3414.27449,0.28218
3413.24423,0.28359
3412.21397,0.28475
3411.18372,0.28548
3410.15346,0.28641
3409.12320,0.28786
3408.09294,0.28903
3407.06269,0.29011
3406.03243,0.29154
3405.00217,0.29291
3403.97191,0.29378
3402.94165,0.29424
3401.91140,0.29501
3400.88114,0.29631
3399.85088,0.29741
3398.82062,0.29834
3397.79036,0.29941
3396.76011,0.30037
3395.72985,0.30132
3394.69959,0.30213
3393.66933,0.30253
3392.63908,0.30277
3391.60882,0.30356
3390.57856,0.30511
3389.54830,0.30646
3388.51804,0.30691
3387.48779,0.30722
3386.45753,0.30801
3385.42727,0.30866
3384.39701,0.30895
3383.36676,0.30971
3382.33650,0.31086
3381.30624,0.31125
3380.27598,0.31138
3379.24572,0.31266
3378.21547,0.31429
3377.18521,0.31436
3376.15495,0.31390
3375.12469,0.31474
3374.09443,0.31610
3373.06418,0.31701
3372.03392,0.31717
3371.00366,0.31698
3369.97340,0.31727
3368.94315,0.31778
3367.91289,0.31817
3366.88263,0.31908
3365.85237,0.32066
3364.82211,0.32157
3363.79186,0.32149
3362.76160,0.32194
3361.73134,0.32316
3360.70108,0.32417
3359.67082,0.32448
3358.64057,0.32393
3357.61031,0.32352
3356.58005,0.32418
3355.54979,0.32509
3354.51954,0.32568
3353.48928,0.32617
3352.45902,0.32618
3351.42876,0.32572
3350.39850,0.32601
3349.36825,0.32739
3348.33799,0.32830
3347.30773,0.32802
3346.27747,0.32758
3345.24721,0.32736
3344.21696,0.32745
3343.18670,0.32798
3342.15644,0.32818
3341.12618,0.32795
3340.09593,0.32781
3339.06567,0.32774
3338.03541,0.32803
3337.00515,0.32887
3335.97489,0.32957
3334.94464,0.32982
3333.91438,0.32983
3332.88412,0.33029
3331.85386,0.33121
3330.82361,0.33136
3329.79335,0.33074
3328.76309,0.33039
3327.73283,0.33040
3326.70257,0.33021
3325.67232,0.33000
3324.64206,0.33006
3323.61180,0.33012
3322.58154,0.33036
3321.55128,0.33105
3320.52103,0.33159
3319.49077,0.33164
3318.46051,0.33177
3317.43025,0.33196
3316.40000,0.33203
3315.36974,0.33238
3314.33948,0.33277
3313.30922,0.33298
3312.27896,0.33301
3311.24871,0.33280
3310.21845,0.33250
3309.18819,0.33186
3308.15793,0.33123
3307.12767,0.33125
3306.09742,0.33127
3305.06716,0.33143
3304.03690,0.33213
3303.00664,0.33220
3301.97639,0.33158
3300.94613,0.33142
3299.91587,0.33210
3298.88561,0.33303
3297.85535,0.33328
3296.82510,0.33291
3295.79484,0.33286
3294.76458,0.33363
3293.73432,0.33455
3292.70406,0.33482
3291.67381,0.33427
3290.64355,0.33352
3289.61329,0.33338
3288.58303,0.33378
3287.55278,0.33443
3286.52252,0.33537
3285.49226,0.33633
3284.46200,0.33624
3283.43174,0.33479
3282.40149,0.33331
3281.37123,0.33303
3280.34097,0.33399
3279.31071,0.33505
3278.28046,0.33523
3277.25020,0.33457
3276.21994,0.33421
3275.18968,0.33489
3274.15942,0.33559
3273.12917,0.33531
3272.09891,0.33459
3271.06865,0.33439
3270.03839,0.33496
3269.00813,0.33570
3267.97788,0.33579
3266.94762,0.33542
3265.91736,0.33504
3264.88710,0.33499
3263.85685,0.33529
3262.82659,0.33563
3261.79633,0.33563
3260.76607,0.33516
3259.73581,0.33499
3258.70556,0.33491
3257.67530,0.33441
3256.64504,0.33442
3255.61478,0.33489
3254.58452,0.33460
3253.55427,0.33420
3252.52401,0.33451
3251.49375,0.33434
3250.46349,0.33394
3249.43324,0.33435
3248.40298,0.33476
3247.37272,0.33484
3246.34246,0.33469
3245.31220,0.33391
3244.28195,0.33331
3243.25169,0.33349
3242.22143,0.33373
3241.19117,0.33366
3240.16092,0.33380
3239.13066,0.33393
3238.10040,0.33360
3237.07014,0.33355
3236.03988,0.33374
3235.00963,0.33372
3233.97937,0.33364
3232.94911,0.33306
3231.91885,0.33208
3230.88859,0.33122
3229.85834,0.33029
3228.82808,0.32965
3227.79782,0.32955
3226.76756,0.32927
3225.73731,0.32890
3224.70705,0.32865
3223.67679,0.32801
3222.64653,0.32740
3221.61627,0.32711
3220.58602,0.32621
3219.55576,0.32512
3218.52550,0.32455
3217.49524,0.32381
3216.46498,0.32300
3215.43473,0.32249
3214.40447,0.32162
3213.37421,0.32037
3212.34395,0.31984
3211.31370,0.32020
3210.28344,0.32042
3209.25318,0.31987
3208.22292,0.31884
3207.19266,0.31763
3206.16241,0.31656
3205.13215,0.31627
3204.10189,0.31652
3203.07163,0.31615
3202.04137,0.31485
3201.01112,0.31322
3199.98086,0.31198
3198.95060,0.31142
3197.92034,0.31071
3196.89009,0.30969
3195.85983,0.30892
3194.82957,0.30787
3193.79931,0.30664
3192.76905,0.30570
3191.73880,0.30480
3190.70854,0.30401
3189.67828,0.30324
3188.64802,0.30231
3187.61777,0.30134
3186.58751,0.30039
3185.55725,0.29947
3184.52699,0.29856
3183.49673,0.29737
3182.46648,0.29615
3181.43622,0.29515
3180.40596,0.29395
3179.37570,0.29237
3178.34544,0.29035
3177.31519,0.28834
3176.28493,0.28694
3175.25467,0.28611
3174.22441,0.28582
3173.19416,0.28554
3172.16390,0.28464
3171.13364,0.28310
3170.10338,0.28136
3169.07312,0.27994
3168.04287,0.27862
3167.01261,0.27753
3165.98235,0.27702
3164.95209,0.27604
3163.92183,0.27415
3162.89158,0.27238
3161.86132,0.27124
3160.83106,0.27025
3159.80080,0.26911
3158.77055,0.26809
3157.74029,0.26717
3156.71003,0.26600
3155.67977,0.26476
3154.64951,0.26334
3153.61926,0.26140
3152.58900,0.25957
3151.55874,0.25838
3150.52848,0.25755
3149.49822,0.25688
3148.46797,0.25603
3147.43771,0.25481
3146.40745,0.25324
3145.37719,0.25104
3144.34694,0.24877
3143.31668,0.24726
3142.28642,0.24629
3141.25616,0.24542
3140.22590,0.24439
3139.19565,0.24328
3138.16539,0.24245
3137.13513,0.24159
3136.10487,0.24035
3135.07462,0.23865
3134.04436,0.23674
3133.01410,0.23527
3131.98384,0.23450
3130.95358,0.23364
3129.92333,0.23202
3128.89307,0.23021
3127.86281,0.22878
3126.83255,0.22745
3125.80229,0.22622
3124.77204,0.22517
3123.74178,0.22436
3122.71152,0.22365
3121.68126,0.22202
3120.65101,0.21970
3119.62075,0.21812
3118.59049,0.21717
3117.56023,0.21617
3116.52997,0.21507
3115.49972,0.21382
3114.46946,0.21240
3113.43920,0.21097
3112.40894,0.20974
3111.37868,0.20880
3110.34843,0.20771
3109.31817,0.20618
3108.28791,0.20475
3107.25765,0.20369
3106.22740,0.20265
3105.19714,0.20157
3104.16688,0.20030
3103.13662,0.19880
3102.10636,0.19744
3101.07611,0.19621
3100.04585,0.19534
3099.01559,0.19483
3097.98533,0.19392
3096.95507,0.19265
3095.92482,0.19153
3094.89456,0.19050
3093.86430,0.18944
3092.83404,0.18839
3091.80379,0.18698
3090.77353,0.18519
3089.74327,0.18391
3088.71301,0.18289
3087.68275,0.18141
3086.65250,0.18021
3085.62224,0.17961
3084.59198,0.17903
3083.56172,0.17822
3082.53147,0.17719
3081.50121,0.17580
3080.47095,0.17405
3079.44069,0.17254
3078.41043,0.17165
3077.38018,0.17074
3076.34992,0.16966
3075.31966,0.16890
3074.28940,0.16834
3073.25914,0.16771
3072.22889,0.16687
3071.19863,0.16556
3070.16837,0.16392
3069.13811,0.16252
3068.10786,0.16116
3067.07760,0.15969
3066.04734,0.15880
3065.01708,0.15836
3063.98682,0.15753
3062.95657,0.15636
3061.92631,0.15541
3060.89605,0.15488
3059.86579,0.15432
3058.83553,0.15344
3057.80528,0.15249
3056.77502,0.15180
3055.74476,0.15102
3054.71450,0.14984
3053.68425,0.14861
3052.65399,0.14754
3051.62373,0.14680
3050.59347,0.14626
3049.56321,0.14534
3048.53296,0.14408
3047.50270,0.14299
3046.47244,0.14230
3045.44218,0.14183
3044.41192,0.14128
3043.38167,0.14042
3042.35141,0.13939
3041.32115,0.13826
3040.29089,0.13721
3039.26064,0.13655
3038.23038,0.13591
3037.20012,0.13480
3036.16986,0.13361
3035.13960,0.13285
3034.10935,0.13266
3033.07909,0.13266
3032.04883,0.13202
3031.01857,0.13071
3029.98832,0.12959
3028.95806,0.12875
3027.92780,0.12798
3026.89754,0.12738
3025.86728,0.12676
3024.83703,0.12591
3023.80677,0.12491
3022.77651,0.12364
3021.74625,0.12219
3020.71599,0.12101
3019.68574,0.12034
3018.65548,0.12003
3017.62522,0.11963
3016.59496,0.11880
3015.56471,0.11750
3014.53445,0.11629
3013.50419,0.11575
3012.47393,0.11539
3011.44367,0.11454
3010.41342,0.11350
3009.38316,0.11292
3008.35290,0.11265
3007.32264,0.11217
3006.29238,0.11133
3005.26213,0.11027
3004.23187,0.10922
3003.20161,0.10830
3002.17135,0.10755
3001.14110,0.10690
3000.11084,0.10627
2999.08058,0.10573
2998.05032,0.10526
2997.02006,0.10460
2995.98981,0.10363
2994.95955,0.10258
2993.92929,0.10172
2992.89903,0.10120
2991.86877,0.10089
2990.83852,0.10032
2989.80826,0.09961
2988.77800,0.09903
2987.74774,0.09827
2986.71749,0.09740
2985.68723,0.09701
2984.65697,0.09675
2983.62671,0.09588
2982.59645,0.09488
2981.56620,0.09434
2980.53594,0.09405
2979.50568,0.09347
2978.47542,0.09256
2977.44517,0.09204
2976.41491,0.09192
2975.38465,0.09164
2974.35439,0.09115
2973.32413,0.09049
2972.29388,0.08963
2971.26362,0.08892
2970.23336,0.08864
2969.20310,0.08827
2968.17284,0.08752
2967.14259,0.08711
2966.11233,0.08700
2965.08207,0.08649
2964.05181,0.08602
2963.02156,0.08596
2961.99130,0.08561
2960.96104,0.08476
2959.93078,0.08402
2958.90052,0.08342
2957.87027,0.08266
2956.84001,0.08179
2955.80975,0.08095
2954.77949,0.08026
2953.74923,0.07974
2952.71898,0.07930
2951.68872,0.07876
2950.65846,0.07807
2949.62820,0.07741
2948.59795,0.07692
2947.56769,0.07645
2946.53743,0.07565
2945.50717,0.07456
2944.47691,0.07385
2943.44666,0.07375
2942.41640,0.07351
2941.38614,0.07267
2940.35588,0.07174
2939.32562,0.07144
2938.29537,0.07143
2937.26511,0.07082
2936.23485,0.06990
2935.20459,0.06935
2934.17434,0.06904
2933.14408,0.06851
2932.11382,0.06778
2931.08356,0.06726
2930.05330,0.06713
2929.02305,0.06698
2927.99279,0.06670
2926.96253,0.06645
2925.93227,0.06600
2924.90202,0.06519
2923.87176,0.06444
2922.84150,0.06412
2921.81124,0.06376
2920.78098,0.06320
2919.75073,0.06260
2918.72047,0.06206
2917.69021,0.06198
2916.65995,0.06211
2915.62969,0.06175
2914.59944,0.06092
2913.56918,0.06011
2912.53892,0.05949
2911.50866,0.05895
2910.47841,0.05858
2909.44815,0.05840
2908.41789,0.05816
2907.38763,0.05769
2906.35737,0.05733
2905.32712,0.05721
2904.29686,0.05681
2903.26660,0.05615
2902.23634,0.05560
2901.20608,0.05509
2900.17583,0.05465
2899.14557,0.05453
2898.11531,0.05461
2897.08505,0.05431
2896.05480,0.05354
2895.02454,0.05287
2893.99428,0.05242
2892.96402,0.05205
2891.93376,0.05195
2890.90351,0.05180
2889.87325,0.05135
2888.84299,0.05092
2887.81273,0.05050
2886.78247,0.05002
2885.75222,0.04968
2884.72196,0.04940
2883.69170,0.04907
2882.66144,0.04867
2881.63119,0.04818
2880.60093,0.04782
2879.57067,0.04770
2878.54041,0.04750
2877.51015,0.04704
2876.47990,0.04654
2875.44964,0.04611
2874.41938,0.04572
2873.38912,0.04536
2872.35887,0.04504
2871.32861,0.04479
2870.29835,0.04445
2869.26809,0.04398
2868.23783,0.04378
2867.20758,0.04389
2866.17732,0.04380
2865.14706,0.04348
2864.11680,0.04320
2863.08654,0.04280
2862.05629,0.04222
2861.02603,0.04168
2859.99577,0.04145
2858.96551,0.04156
2857.93526,0.04158
2856.90500,0.04121
2855.87474,0.04071
2854.84448,0.04050
2853.81422,0.04052
2852.78397,0.04020
2851.75371,0.03942
2850.72345,0.03908
2849.69319,0.03925
2848.66293,0.03908
2847.63268,0.03871
2846.60242,0.03851
2845.57216,0.03828
2844.54190,0.03797
2843.51165,0.03770
2842.48139,0.03741
2841.45113,0.03707
2840.42087,0.03682
2839.39061,0.03660
2838.36036,0.03640
2837.33010,0.03635
2836.29984,0.03617
2835.26958,0.03576
2834.23933,0.03541
2833.20907,0.03527
2832.17881,0.03510
2831.14855,0.03464
2830.11829,0.03420
2829.08804,0.03410
2828.05778,0.03403
2827.02752,0.03369
2825.99726,0.03321
2824.96700,0.03302
2823.93675,0.03316
2822.90649,0.03305
2821.87623,0.03265
2820.84597,0.03250
2819.81572,0.03254
2818.78546,0.03247
2817.75520,0.03205
2816.72494,0.03150
2815.69468,0.03124
2814.66443,0.03122
2813.63417,0.03120
2812.60391,0.03110
2811.57365,0.03085
2810.54339,0.03045
2809.51314,0.03001
2808.48288,0.02970
2807.45262,0.02962
2806.42236,0.02957
2805.39211,0.02933
2804.36185,0.02899
2803.33159,0.02887
2802.30133,0.02892
2801.27107,0.02879
2800.24082,0.02837
2799.21056,0.02788
2798.18030,0.02753
2797.15004,0.02747
2796.11978,0.02748
2795.08953,0.02723
2794.05927,0.02702
2793.02901,0.02712
2791.99875,0.02726
2790.96850,0.02738
2789.93824,0.02733
2788.90798,0.02698
2787.87772,0.02669
2786.84746,0.02652
2785.81721,0.02617
2784.78695,0.02591
2783.75669,0.02597
2782.72643,0.02591
2781.69618,0.02558
2780.66592,0.02520
2779.63566,0.02484
2778.60540,0.02475
2777.57514,0.02490
2776.54489,0.02481
2775.51463,0.02447
2774.48437,0.02432
2773.45411,0.02431
2772.42385,0.02402
2771.39360,0.02350
2770.36334,0.02330
2769.33308,0.02347
2768.30282,0.02354
2767.27257,0.02340
2766.24231,0.02322
2765.21205,0.02306
2764.18179,0.02283
2763.15153,0.02256
2762.12128,0.02237
2761.09102,0.02230
2760.06076,0.02237
2759.03050,0.02245
2758.00024,0.02241
2756.96999,0.02224
2755.93973,0.02187
2754.90947,0.02155
2753.87921,0.02159
2752.84896,0.02168
2751.81870,0.02159
2750.78844,0.02148
2749.75818,0.02129
2748.72792,0.02118
2747.69767,0.02133
2746.66741,0.02125
2745.63715,0.02082
2744.60689,0.02050
2743.57663,0.02037
2742.54638,0.02011
2741.51612,0.01978
2740.48586,0.01982
2739.45560,0.02008
2738.42535,0.02009
2737.39509,0.01996
2736.36483,0.02004
2735.33457,0.02021
2734.30431,0.02006
2733.27406,0.01969
2732.24380,0.01964
2731.21354,0.01975
2730.18328,0.01957
2729.15303,0.01934
2728.12277,0.01931
2727.09251,0.01926
2726.06225,0.01892
2725.03199,0.01856
2724.00174,0.01843
2722.97148,0.01836
2721.94122,0.01828
2720.91096,0.01823
2719.88070,0.01806
2718.85045,0.01780
2717.82019,0.01766
2716.78993,0.01774
2715.75967,0.01781
2714.72942,0.01764
2713.69916,0.01726
2712.66890,0.01698
2711.63864,0.01717
2710.60838,0.01769
2709.57813,0.01776
2708.54787,0.01735
2707.51761,0.01703
2706.48735,0.01678
2705.45709,0.01669
2704.42684,0.01682
2703.39658,0.01675
2702.36632,0.01644
2701.33606,0.01632
2700.30581,0.01653
2699.27555,0.01682
2698.24529,0.01679
2697.21503,0.01641
2696.18477,0.01624
2695.15452,0.01637
2694.12426,0.01636
2693.09400,0.01631
2692.06374,0.01635
2691.03348,0.01636
2690.00323,0.01627
2688.97297,0.01613
2687.94271,0.01593
2686.91245,0.01578
2685.88220,0.01570
2684.85194,0.01560
2683.82168,0.01557
2682.79142,0.01567
2681.76116,0.01563
2680.73091,0.01534
2679.70065,0.01513
2678.67039,0.01511
2677.64013,0.01501
2676.60988,0.01491
2675.57962,0.01481
2674.54936,0.01462
2673.51910,0.01443
2672.48884,0.01435
2671.45859,0.01437
2670.42833,0.01425
2669.39807,0.01410
2668.36781,0.01432
2667.33755,0.01475
2666.30730,0.01503
2665.27704,0.01494
2664.24678,0.01454
2663.21652,0.01418
2662.18627,0.01410
2661.15601,0.01417
2660.12575,0.01421
2659.09549,0.01432
2658.06523,0.01437
2657.03498,0.01419
2656.00472,0.01405
2654.97446,0.01402
2653.94420,0.01376
2652.91394,0.01348
2651.88369,0.01359
2650.85343,0.01382
2649.82317,0.01371
2648.79291,0.01330
2647.76266,0.01311
2646.73240,0.01329
2645.70214,0.01339
2644.67188,0.01322
2643.64162,0.01318
2642.61137,0.01345
2641.58111,0.01366
2640.55085,0.01356
2639.52059,0.01336
2638.49033,0.01331
2637.46008,0.01320
2636.42982,0.01292
2635.39956,0.01281
2634.36930,0.01291
2633.33905,0.01281
2632.30879,0.01269
2631.27853,0.01281
2630.24827,0.01284
2629.21801,0.01262
2628.18776,0.01234
2627.15750,0.01193
2626.12724,0.01153
2625.09698,0.01182
2624.06673,0.01250
2623.03647,0.01289
2622.00621,0.01299
2620.97595,0.01281
2619.94569,0.01281
2618.91544,0.01321
2617.88518,0.01303
2616.85492,0.01214
2615.82466,0.01154
2614.79440,0.01161
2613.76415,0.01183
2612.73389,0.01185
2611.70363,0.01197
2610.67337,0.01229
2609.64312,0.01247
2608.61286,0.01217
2607.58260,0.01163
2606.55234,0.01141
2605.52208,0.01171
2604.49183,0.01213
2603.46157,0.01214
2602.43131,0.01186
2601.40105,0.01178
2600.37079,0.01180
2599.34054,0.01169
2598.31028,0.01154
2597.28002,0.01152
2596.24976,0.01165
2595.21951,0.01175
2594.18925,0.01173
2593.15899,0.01163
2592.12873,0.01178
2591.09847,0.01204
2590.06822,0.01192
2589.03796,0.01158
2588.00770,0.01127
2586.97744,0.01094
2585.94718,0.01079
2584.91693,0.01104
2583.88667,0.01147
2582.85641,0.01171
2581.82615,0.01177
2580.79590,0.01177
2579.76564,0.01153
2578.73538,0.01114
2577.70512,0.01095
2576.67486,0.01090
2575.64461,0.01070
2574.61435,0.01036
2573.58409,0.01013
2572.55383,0.01021
2571.52358,0.01042
2570.49332,0.01064
2569.46306,0.01102
2568.43280,0.01139
2567.40254,0.01165
2566.37229,0.01169
2565.34203,0.01137
2564.31177,0.01109
2563.28151,0.01096
2562.25125,0.01075
2561.22100,0.01060
2560.19074,0.01096
2559.16048,0.01144
2558.13022,0.01140
2557.09997,0.01119
2556.06971,0.01108
2555.03945,0.01101
2554.00919,0.01099
2552.97893,0.01112
2551.94868,0.01137
2550.91842,0.01140
2549.88816,0.01119
2548.85790,0.01121
2547.82764,0.01161
2546.79739,0.01197
2545.76713,0.01199
2544.73687,0.01163
2543.70661,0.01104
2542.67636,0.01086
2541.64610,0.01142
2540.61584,0.01189
2539.58558,0.01152
2538.55532,0.01088
2537.52507,0.01066
2536.49481,0.01103
2535.46455,0.01156
2534.43429,0.01140
2533.40403,0.01072
2532.37378,0.01024
2531.34352,0.01033
2530.31326,0.01076
2529.28300,0.01105
2528.25275,0.01106
2527.22249,0.01121
2526.19223,0.01188
2525.16197,0.01247
2524.13171,0.01213
2523.10146,0.01144
2522.07120,0.01151
2521.04094,0.01210
2520.01068,0.01208
2518.98043,0.01149
2517.95017,0.01126
2516.91991,0.01129
2515.88965,0.01101
2514.85939,0.01073
2513.82914,0.01079
2512.79888,0.01087
2511.76862,0.01090
2510.73836,0.01129
2509.70810,0.01178
2508.67785,0.01167
2507.64759,0.01125
2506.61733,0.01151
2505.58707,0.01202
2504.55682,0.01174
2503.52656,0.01124
2502.49630,0.01138
2501.46604,0.01167
2500.43578,0.01125
2499.40553,0.01037
2498.37527,0.01027
2497.34501,0.01134
2496.31475,0.01232
2495.28449,0.01228
2494.25424,0.01183
2493.22398,0.01159
2492.19372,0.01141
2491.16346,0.01140
2490.13321,0.01157
2489.10295,0.01130
2488.07269,0.01095
2487.04243,0.01128
2486.01217,0.01141
2484.98192,0.01084
2483.95166,0.01096
2482.92140,0.01187
2481.89114,0.01231
2480.86088,0.01224
2479.83063,0.01183
2478.80037,0.01151
2477.77011,0.01178
2476.73985,0.01216
2475.70960,0.01208
2474.67934,0.01154
2473.64908,0.01144
2472.61882,0.01212
2471.58856,0.01250
2470.55831,0.01229
2469.52805,0.01219
2468.49779,0.01227
2467.46753,0.01238
2466.43728,0.01247
2465.40702,0.01272
2464.37676,0.01303
2463.34650,0.01308
2462.31624,0.01286
2461.28599,0.01257
2460.25573,0.01246
2459.22547,0.01223
2458.19521,0.01238
2457.16495,0.01312
2456.13470,0.01335
2455.10444,0.01317
2454.07418,0.01305
2453.04392,0.01267
2452.01367,0.01219
2450.98341,0.01204
2449.95315,0.01228
2448.92289,0.01268
2447.89263,0.01292
2446.86238,0.01275
2445.83212,0.01232
2444.80186,0.01231
2443.77160,0.01248
2442.74134,0.01212
2441.71109,0.01193
2440.68083,0.01242
2439.65057,0.01286
2438.62031,0.01277
2437.59006,0.01257
2436.55980,0.01254
2435.52954,0.01254
2434.49928,0.01275
2433.46902,0.01310
2432.43877,0.01334
2431.40851,0.01337
2430.37825,0.01313
2429.34799,0.01274
2428.31774,0.01246
2427.28748,0.01261
2426.25722,0.01301
2425.22696,0.01326
2424.19670,0.01323
2423.16645,0.01316
2422.13619,0.01324
2421.10593,0.01318
2420.07567,0.01283
2419.04541,0.01261
2418.01516,0.01278
2416.98490,0.01313
2415.95464,0.01359
2414.92438,0.01395
2413.89413,0.01400
2412.86387,0.01379
2411.83361,0.01351
2410.80335,0.01348
2409.77309,0.01380
2408.74284,0.01402
2407.71258,0.01405
2406.68232,0.01426
2405.65206,0.01451
2404.62180,0.01433
2403.59155,0.01388
2402.56129,0.01368
2401.53103,0.01376
2400.50077,0.01379
2399.47052,0.01379
2398.44026,0.01386
2397.41000,0.01388
2396.37974,0.01388
2395.34948,0.01417
2394.31923,0.01454
2393.28897,0.01438
2392.25871,0.01401
2391.22845,0.01401
2390.19819,0.01433
2389.16794,0.01470
2388.13768,0.01490
2387.10742,0.01484
2386.07716,0.01472
2385.04691,0.01468
2384.01665,0.01485
2382.98639,0.01518
2381.95613,0.01536
2380.92587,0.01534
2379.89562,0.01542
2378.86536,0.01565
2377.83510,0.01579
2376.80484,0.01567
2375.77459,0.01572
2374.74433,0.01653
2373.71407,0.01743
2372.68381,0.01745
2371.65355,0.01726
2370.62330,0.01782
2369.59304,0.01841
2368.56278,0.01790
2367.53252,0.01730
2366.50226,0.01773
2365.47201,0.01856
2364.44175,0.01901
2363.41149,0.01864
2362.38123,0.01801
2361.35098,0.01848
2360.32072,0.01944
2359.29046,0.01926
2358.26020,0.01810
2357.22994,0.01715
2356.19969,0.01709
2355.16943,0.01754
2354.13917,0.01808
2353.10891,0.01853
2352.07865,0.01853
2351.04840,0.01838
2350.01814,0.01841
2348.98788,0.01839
2347.95762,0.01823
2346.92737,0.01774
2345.89711,0.01716
2344.86685,0.01727
2343.83659,0.01773
2342.80633,0.01786
2341.77608,0.01785
2340.74582,0.01816
2339.71556,0.01864
2338.68530,0.01883
2337.65504,0.01873
2336.62479,0.01840
2335.59453,0.01831
2334.56427,0.01874
2333.53401,0.01924
2332.50376,0.01969
2331.47350,0.02000
2330.44324,0.01981
2329.41298,0.01931
2328.38272,0.01887
2327.35247,0.01867
2326.32221,0.01854
2325.29195,0.01848
2324.26169,0.01875
2323.23144,0.01918
2322.20118,0.01964
2321.17092,0.01994
2320.14066,0.01972
2319.11040,0.01912
2318.08015,0.01864
2317.04989,0.01851
2316.01963,0.01889
2314.98937,0.01955
2313.95911,0.01981
2312.92886,0.01972
2311.89860,0.01971
2310.86834,0.01987
2309.83808,0.01985
2308.80783,0.01935
2307.77757,0.01883
2306.74731,0.01866
2305.71705,0.01902
2304.68679,0.01976
2303.65654,0.01999
2302.62628,0.01939
2301.59602,0.01852
2300.56576,0.01794
2299.53550,0.01787
2298.50525,0.01848
2297.47499,0.01942
2296.44473,0.01974
2295.41447,0.01946
2294.38422,0.01916
2293.35396,0.01886
2292.32370,0.01875
2291.29344,0.01895
2290.26318,0.01902
2289.23293,0.01904
2288.20267,0.01941
2287.17241,0.02000
2286.14215,0.02024
2285.11189,0.02009
2284.08164,0.02011
2283.05138,0.02022
2282.02112,0.01983
2280.99086,0.01924
2279.96061,0.01928
2278.93035,0.01947
2277.90009,0.01948
2276.86983,0.01969
2275.83957,0.01939
2274.80932,0.01894
2273.77906,0.01954
2272.74880,0.02051
2271.71854,0.02058
2270.68829,0.02021
2269.65803,0.02046
2268.62777,0.02084
2267.59751,0.02056
2266.56725,0.02013
2265.53700,0.01977
2264.50674,0.01966
2263.47648,0.01992
2262.44622,0.02003
2261.41596,0.02047
2260.38571,0.02124
2259.35545,0.02135
2258.32519,0.02109
2257.29493,0.02118
2256.26468,0.02138
2255.23442,0.02144
2254.20416,0.02148
2253.17390,0.02143
2252.14364,0.02095
2251.11339,0.02041
2250.08313,0.02090
2249.05287,0.02233
2248.02261,0.02322
2246.99235,0.02296
2245.96210,0.02229
2244.93184,0.02180
2243.90158,0.02121
2242.87132,0.02043
2241.84107,0.02025
2240.81081,0.02024
2239.78055,0.02014
2238.75029,0.02128
2237.72003,0.02298
2236.68978,0.02334
2235.65952,0.02268
2234.62926,0.02246
2233.59900,0.02257
2232.56874,0.02237
2231.53849,0.02245
2230.50823,0.02248
2229.47797,0.02168
2228.44771,0.02105
2227.41746,0.02075
2226.38720,0.01993
2225.35694,0.01933
2224.32668,0.02017
2223.29642,0.02187
2222.26617,0.02233
2221.23591,0.02156
2220.20565,0.02164
2219.17539,0.02203
2218.14514,0.02137
2217.11488,0.02088
2216.08462,0.02163
2215.05436,0.02325
2214.02410,0.02468
2212.99385,0.02491
2211.96359,0.02397
2210.93333,0.02264
2209.90307,0.02227
2208.87281,0.02282
2207.84256,0.02286
2206.81230,0.02283
2205.78204,0.02377
2204.75178,0.02459
2203.72153,0.02392
2202.69127,0.02339
2201.66101,0.02484
2200.63075,0.02614
2199.60049,0.02602
2198.57024,0.02544
2197.53998,0.02415
2196.50972,0.02265
2195.47946,0.02126
2194.44920,0.02072
2193.41895,0.02220
2192.38869,0.02363
2191.35843,0.02345
2190.32817,0.02338
2189.29792,0.02444
2188.26766,0.02563
2187.23740,0.02555
2186.20714,0.02476
2185.17688,0.02469
2184.14663,0.02415
2183.11637,0.02247
2182.08611,0.02150
2181.05585,0.02187
2180.02559,0.02229
2178.99534,0.02301
2177.96508,0.02377
2176.93482,0.02342
2175.90456,0.02367
2174.87431,0.02543
2173.84405,0.02671
2172.81379,0.02630
2171.78353,0.02463
2170.75327,0.02344
2169.72302,0.02364
2168.69276,0.02390
2167.66250,0.02441
2166.63224,0.02543
2165.60199,0.02607
2164.57173,0.02722
2163.54147,0.02786
2162.51121,0.02575
2161.48095,0.02204
2160.45070,0.02088
2159.42044,0.02382
2158.39018,0.02605
2157.35992,0.02474
2156.32966,0.02297
2155.29941,0.02311
2154.26915,0.02452
2153.23889,0.02550
2152.20863,0.02518
2151.17838,0.02574
2150.14812,0.02795
2149.11786,0.02835
2148.08760,0.02765
2147.05734,0.02817
2146.02709,0.02724
2144.99683,0.02509
2143.96657,0.02499
2142.93631,0.02621
2141.90605,0.02665
2140.87580,0.02691
2139.84554,0.02787
2138.81528,0.02769
2137.78502,0.02591
2136.75477,0.02461
2135.72451,0.02424
2134.69425,0.02406
2133.66399,0.02390
2132.63373,0.02396
2131.60348,0.02389
2130.57322,0.02376
2129.54296,0.02455
2128.51270,0.02579
2127.48244,0.02617
2126.45219,0.02592
2125.42193,0.02656
2124.39167,0.02743
2123.36141,0.02685
2122.33116,0.02578
2121.30090,0.02510
2120.27064,0.02486
2119.24038,0.02538
2118.21012,0.02606
2117.17987,0.02604
2116.14961,0.02564
2115.11935,0.02581
2114.08909,0.02663
2113.05884,0.02679
2112.02858,0.02597
2110.99832,0.02539
2109.96806,0.02550
2108.93780,0.02552
2107.90755,0.02461
2106.87729,0.02349
2105.84703,0.02356
2104.81677,0.02447
2103.78651,0.02508
2102.75626,0.02544
2101.72600,0.02595
2100.69574,0.02593
2099.66548,0.02512
2098.63523,0.02370
2097.60497,0.02217
2096.57471,0.02190
2095.54445,0.02266
2094.51419,0.02345
2093.48394,0.02436
2092.45368,0.02545
2091.42342,0.02608
2090.39316,0.02580
2089.36290,0.02532
2088.33265,0.02502
2087.30239,0.02461
2086.27213,0.02397
2085.24187,0.02338
2084.21162,0.02404
2083.18136,0.02516
2082.15110,0.02498
2081.12084,0.02455
2080.09058,0.02451
2079.06033,0.02428
2078.03007,0.02400
2076.99981,0.02387
2075.96955,0.02398
2074.93930,0.02383
2073.90904,0.02313
2072.87878,0.02287
2071.84852,0.02353
2070.81826,0.02419
2069.78801,0.02423
2068.75775,0.02339
2067.72749,0.02178
2066.69723,0.02084
2065.66697,0.02154
2064.63672,0.02231
2063.60646,0.02148
2062.57620,0.02030
2061.54594,0.02080
2060.51569,0.02173
2059.48543,0.02139
2058.45517,0.02116
2057.42491,0.02137
2056.39465,0.02171
2055.36440,0.02243
2054.33414,0.02254
2053.30388,0.02221
2052.27362,0.02163
2051.24336,0.02014
2050.21311,0.01917
2049.18285,0.02008
2048.15259,0.02073
2047.12233,0.02039
2046.09208,0.02116
2045.06182,0.02245
2044.03156,0.02299
2043.00130,0.02301
2041.97104,0.02201
2040.94079,0.01985
2039.91053,0.01777
2038.88027,0.01736
2037.85001,0.01860
2036.81975,0.02019
2035.78950,0.02062
2034.75924,0.01863
2033.72898,0.01645
2032.69872,0.01716
2031.66847,0.01869
2030.63821,0.01853
2029.60795,0.01777
2028.57769,0.01781
2027.54743,0.01859
2026.51718,0.01917
2025.48692,0.01951
2024.45666,0.01977
2023.42640,0.01963
2022.39615,0.01965
2021.36589,0.02051
2020.33563,0.02051
2019.30537,0.01861
2018.27511,0.01748
2017.24486,0.01850
2016.21460,0.01966
2015.18434,0.01937
2014.15408,0.01837
2013.12382,0.01756
2012.09357,0.01698
2011.06331,0.01630
2010.03305,0.01612
2009.00279,0.01745
2007.97254,0.01975
2006.94228,0.02075
2005.91202,0.01949
2004.88176,0.01857
2003.85150,0.01831
2002.82125,0.01753
2001.79099,0.01724
2000.76073,0.01744
1999.73047,0.01738
1998.70021,0.01676
1997.66996,0.01555
1996.63970,0.01421
1995.60944,0.01387
1994.57918,0.01491
1993.54893,0.01641
1992.51867,0.01716
1991.48841,0.01793
1990.45815,0.01966
1989.42789,0.01940
1988.39764,0.01693
1987.36738,0.01635
1986.33712,0.01852
1985.30686,0.02025
1984.27660,0.01955
1983.24635,0.01760
1982.21609,0.01540
1981.18583,0.01370
1980.15557,0.01340
1979.12532,0.01319
1978.09506,0.01265
1977.06480,0.01214
1976.03454,0.01119
1975.00428,0.01255
1973.97403,0.01586
1972.94377,0.01706
1971.91351,0.01603
1970.88325,0.01516
1969.85300,0.01573
1968.82274,0.01650
1967.79248,0.01675
1966.76222,0.01635
1965.73196,0.01512
1964.70171,0.01475
1963.67145,0.01516
1962.64119,0.01509
1961.61093,0.01510
1960.58067,0.01556
1959.55042,0.01633
1958.52016,0.01681
1957.48990,0.01670
1956.45964,0.01664
1955.42939,0.01630
1954.39913,0.01564
1953.36887,0.01512
1952.33861,0.01518
1951.30835,0.01579
1950.27810,0.01633
1949.24784,0.01647
1948.21758,0.01547
1947.18732,0.01391
1946.15706,0.01319
1945.12681,0.01343
1944.09655,0.01406
1943.06629,0.01509
1942.03603,0.01640
1941.00578,0.01613
1939.97552,0.01453
1938.94526,0.01382
1937.91500,0.01408
1936.88474,0.01442
1935.85449,0.01470
1934.82423,0.01491
1933.79397,0.01503
1932.76371,0.01506
1931.73345,0.01470
1930.70320,0.01423
1929.67294,0.01462
1928.64268,0.01518
1927.61242,0.01515
1926.58217,0.01540
1925.55191,0.01578
1924.52165,0.01577
1923.49139,0.01558
1922.46113,0.01517
1921.43088,0.01476
1920.40062,0.01442
1919.37036,0.01416
1918.34010,0.01439
1917.30985,0.01481
1916.27959,0.01489
1915.24933,0.01541
1914.21907,0.01639
1913.18881,0.01606
1912.15856,0.01451
1911.12830,0.01391
1910.09804,0.01429
1909.06778,0.01463
1908.03752,0.01484
1907.00727,0.01508
1905.97701,0.01538
1904.94675,0.01547
1903.91649,0.01524
1902.88624,0.01508
1901.85598,0.01529
1900.82572,0.01563
1899.79546,0.01553
1898.76520,0.01490
1897.73495,0.01449
1896.70469,0.01452
1895.67443,0.01486
1894.64417,0.01560
1893.61391,0.01609
1892.58366,0.01615
1891.55340,0.01608
1890.52314,0.01613
1889.49288,0.01642
1888.46263,0.01643
1887.43237,0.01617
1886.40211,0.01624
1885.37185,0.01617
1884.34159,0.01563
1883.31134,0.01556
1882.28108,0.01553
1881.25082,0.01486
1880.22056,0.01453
1879.19030,0.01514
1878.16005,0.01602
1877.12979,0.01654
1876.09953,0.01697
1875.06927,0.01736
1874.03902,0.01716
1873.00876,0.01661
1871.97850,0.01640
1870.94824,0.01646
1869.91798,0.01665
1868.88773,0.01681
1867.85747,0.01682
1866.82721,0.01640
1865.79695,0.01536
1864.76670,0.01475
1863.73644,0.01527
1862.70618,0.01607
1861.67592,0.01629
1860.64566,0.01616
1859.61541,0.01605
1858.58515,0.01583
1857.55489,0.01547
1856.52463,0.01535
1855.49437,0.01568
1854.46412,0.01591
1853.43386,0.01567
1852.40360,0.01535
1851.37334,0.01527
1850.34309,0.01532
1849.31283,0.01551
1848.28257,0.01608
1847.25231,0.01653
1846.22205,0.01668
1845.19180,0.01677
1844.16154,0.01649
1843.13128,0.01612
1842.10102,0.01614
1841.07076,0.01629
1840.04051,0.01630
1839.01025,0.01623
1837.97999,0.01634
1836.94973,0.01675
1835.91948,0.01720
1834.88922,0.01736
1833.85896,0.01736
1832.82870,0.01739
1831.79844,0.01742
1830.76819,0.01719
1829.73793,0.01660
1828.70767,0.01623
1827.67741,0.01620
1826.64715,0.01631
1825.61690,0.01659
1824.58664,0.01689
1823.55638,0.01703
1822.52612,0.01703
1821.49587,0.01691
1820.46561,0.01681
1819.43535,0.01689
1818.40509,0.01719
1817.37483,0.01752
1816.34458,0.01778
1815.31432,0.01801
1814.28406,0.01824
1813.25380,0.01843
1812.22355,0.01856
1811.19329,0.01882
1810.16303,0.01900
1809.13277,0.01867
1808.10251,0.01842
1807.07226,0.01855
1806.04200,0.01844
1805.01174,0.01800
1803.98148,0.01780
1802.95122,0.01808
1801.92097,0.01856
1800.89071,0.01877
1799.86045,0.01872
1798.83019,0.01892
1797.79994,0.01925
1796.76968,0.01935
1795.73942,0.01941
1794.70916,0.01962
1793.67890,0.01992
1792.64865,0.02025
1791.61839,0.02035
1790.58813,0.02045
1789.55787,0.02070
1788.52761,0.02047
1787.49736,0.02002
1786.46710,0.02000
1785.43684,0.02034
1784.40658,0.02064
1783.37633,0.02067
1782.34607,0.02080
1781.31581,0.02120
1780.28555,0.02138
1779.25529,0.02124
1778.22504,0.02141
1777.19478,0.02182
1776.16452,0.02204
1775.13426,0.02207
1774.10400,0.02223
1773.07375,0.02265
1772.04349,0.02296
1771.01323,0.02305
1769.98297,0.02326
1768.95272,0.02373
1767.92246,0.02433
1766.89220,0.02455
1765.86194,0.02458
1764.83168,0.02479
1763.80143,0.02502
1762.77117,0.02516
1761.74091,0.02527
1760.71065,0.02550
1759.68040,0.02590
1758.65014,0.02634
1757.61988,0.02660
1756.58962,0.02677
1755.55936,0.02714
1754.52911,0.02747
1753.49885,0.02766
1752.46859,0.02791
1751.43833,0.02827
1750.40807,0.02892
1749.37782,0.02963
1748.34756,0.02993
1747.31730,0.03010
1746.28704,0.03045
1745.25679,0.03077
1744.22653,0.03103
1743.19627,0.03132
1742.16601,0.03173
1741.13575,0.03227
1740.10550,0.03278
1739.07524,0.03333
1738.04498,0.03395
1737.01472,0.03445
1735.98446,0.03489
1734.95421,0.03530
1733.92395,0.03555
1732.89369,0.03601
1731.86343,0.03673
1730.83318,0.03748
1729.80292,0.03843
1728.77266,0.03945
1727.74240,0.03998
1726.71214,0.04018
1725.68189,0.04061
1724.65163,0.04144
1723.62137,0.04240
1722.59111,0.04327
1721.56085,0.04425
1720.53060,0.04528
1719.50034,0.04593
1718.47008,0.04638
1717.43982,0.04732
1716.40957,0.04840
1715.37931,0.04928
1714.34905,0.05030
1713.31879,0.05148
1712.28853,0.05258
1711.25828,0.05363
1710.22802,0.05487
1709.19776,0.05636
1708.16750,0.05770
1707.13725,0.05865
1706.10699,0.05951
1705.07673,0.06075
1704.04647,0.06234
1703.01621,0.06389
1701.98596,0.06522
1700.95570,0.06675
1699.92544,0.06891
1698.89518,0.07028
1697.86492,0.07125
1696.83467,0.07269
1695.80441,0.07490
1694.77415,0.07675
1693.74389,0.07820
1692.71364,0.07974
1691.68338,0.08110
1690.65312,0.08240
1689.62286,0.08386
1688.59260,0.08544
1687.56235,0.08716
1686.53209,0.08900
1685.50183,0.09097
1684.47157,0.09306
1683.44131,0.09477
1682.41106,0.09643
1681.38080,0.09825
1680.35054,0.10006
1679.32028,0.10193
1678.29003,0.10384
1677.25977,0.10563
1676.22951,0.10712
1675.19925,0.10880
1674.16899,0.11089
1673.13874,0.11276
1672.10848,0.11447
1671.07822,0.11638
1670.04796,0.11858
1669.01771,0.12100
1667.98745,0.12303
1666.95719,0.12454
1665.92693,0.12605
1664.89667,0.12764
1663.86642,0.12932
1662.83616,0.13112
1661.80590,0.13293
1660.77564,0.13466
1659.74538,0.13637
1658.71513,0.13795
1657.68487,0.13945
1656.65461,0.14097
1655.62435,0.14255
1654.59410,0.14430
1653.56384,0.14601
1652.53358,0.14723
1651.50332,0.14833
1650.47306,0.14954
1649.44281,0.15067
1648.41255,0.15165
1647.38229,0.15263
1646.35203,0.15360
1645.32177,0.15417
1644.29152,0.15484
1643.26126,0.15560
1642.23100,0.15616
1641.20074,0.15655
1640.17049,0.15692
1639.14023,0.15728
1638.10997,0.15744
1637.07971,0.15750
1636.04945,0.15718
1635.01920,0.15608
1633.98894,0.15540
1632.95868,0.15499
1631.92842,0.15411
1630.89816,0.15295
1629.86791,0.15190
1628.83765,0.15080
1627.80739,0.14888
1626.77713,0.14665
1625.74688,0.14529
1624.71662,0.14427
1623.68636,0.14243
1622.65610,0.13985
1621.62584,0.13782
1620.59559,0.13600
1619.56533,0.13390
1618.53507,0.13204
1617.50481,0.13030
1616.47456,0.12731
1615.44430,0.12468
1614.41404,0.12314
1613.38378,0.12148
1612.35352,0.11961
1611.32327,0.11759
1610.29301,0.11546
1609.26275,0.11323
1608.23249,0.11121
1607.20223,0.10932
1606.17198,0.10736
1605.14172,0.10548
1604.11146,0.10378
1603.08120,0.10202
1602.05095,0.10029
1601.02069,0.09872
1599.99043,0.09708
1598.96017,0.09536
1597.92991,0.09383
1596.89966,0.09248
1595.86940,0.09120
1594.83914,0.09010
1593.80888,0.08904
1592.77862,0.08782
1591.74837,0.08639
1590.71811,0.08508
1589.68785,0.08403
1588.65759,0.08300
1587.62734,0.08187
1586.59708,0.08081
1585.56682,0.07994
1584.53656,0.07912
1583.50630,0.07813
1582.47605,0.07711
1581.44579,0.07633
1580.41553,0.07565
1579.38527,0.07491
1578.35501,0.07404
1577.32476,0.07303
1576.29450,0.07171
1575.26424,0.07067
1574.23398,0.07038
1573.20373,0.07025
1572.17347,0.06992
1571.14321,0.06943
1570.11295,0.06879
1569.08269,0.06783
1568.05244,0.06721
1567.02218,0.06686
1565.99192,0.06632
1564.96166,0.06564
1563.93141,0.06517
1562.90115,0.06474
1561.87089,0.06446
1560.84063,0.06436
1559.81037,0.06392
1558.78012,0.06305
1557.74986,0.06222
1556.71960,0.06183
1555.68934,0.06173
1554.65908,0.06150
1553.62883,0.06109
1552.59857,0.06081
1551.56831,0.06065
1550.53805,0.06045
1549.50780,0.06003
1548.47754,0.05940
1547.44728,0.05878
1546.41702,0.05839
1545.38676,0.05813
1544.35651,0.05776
1543.32625,0.05734
1542.29599,0.05709
1541.26573,0.05708
1540.23547,0.05689
1539.20522,0.05675
1538.17496,0.05672
1537.14470,0.05646
1536.11444,0.05625
1535.08419,0.05606
1534.05393,0.05581
1533.02367,0.05573
1531.99341,0.05563
1530.96315,0.05525
1529.93290,0.05490
1528.90264,0.05470
1527.87238,0.05452
1526.84212,0.05441
1525.81186,0.05429
1524.78161,0.05397
1523.75135,0.05382
1522.72109,0.05390
1521.69083,0.05376
1520.66058,0.05339
1519.63032,0.05338
1518.60006,0.05338
1517.56980,0.05289
1516.53954,0.05226
1515.50929,0.05218
1514.47903,0.05240
1513.44877,0.05256
1512.41851,0.05258
1511.38826,0.05253
1510.35800,0.05248
1509.32774,0.05252
1508.29748,0.05241
1507.26722,0.05186
1506.23697,0.05114
1505.20671,0.05106
1504.17645,0.05139
1503.14619,0.05173
1502.11593,0.05182
1501.08568,0.05168
1500.05542,0.05156
1499.02516,0.05152
1497.99490,0.05161
1496.96465,0.05167
1495.93439,0.05156
1494.90413,0.05163
1493.87387,0.05189
1492.84361,0.05214
1491.81336,0.05252
1490.78310,0.05308
1489.75284,0.05372
1488.72258,0.05470
1487.69232,0.05633
1486.66207,0.05882
1485.63181,0.06239
1484.60155,0.06745
1483.57129,0.07384
1482.54104,0.07971
1481.51078,0.08221
1480.48052,0.08020
1479.45026,0.07577
1478.42000,0.07127
1477.38975,0.06768
1476.35949,0.06501
1475.32923,0.06353
1474.29897,0.06337
1473.26871,0.06427
1472.23846,0.06590
1471.20820,0.06767
1470.17794,0.06954
1469.14768,0.07175
1468.11743,0.07397
1467.08717,0.07568
1466.05691,0.07673
1465.02665,0.07693
1463.99639,0.07620
1462.96614,0.07487
1461.93588,0.07310
1460.90562,0.07138
1459.87536,0.06998
1458.84511,0.06869
1457.81485,0.06736
1456.78459,0.06573
1455.75433,0.06469
1454.72407,0.06422
1453.69382,0.06367
1452.66356,0.06311
1451.63330,0.06258
1450.60304,0.06190
1449.57278,0.06118
1448.54253,0.06066
1447.51227,0.06020
1446.48201,0.05962
1445.45175,0.05897
1444.42150,0.05843
1443.39124,0.05806
1442.36098,0.05766
1441.33072,0.05721
1440.30046,0.05680
1439.27021,0.05636
1438.23995,0.05599
1437.20969,0.05548
1436.17943,0.05456
1435.14917,0.05406
1434.11892,0.05380
1433.08866,0.05319
1432.05840,0.05247
1431.02814,0.05210
1429.99789,0.05182
1428.96763,0.05144
1427.93737,0.05105
1426.90711,0.05071
1425.87685,0.05054
1424.84660,0.05033
1423.81634,0.05009
1422.78608,0.04994
1421.75582,0.04981
1420.72556,0.04975
1419.69531,0.04968
1418.66505,0.04952
1417.63479,0.04945
1416.60453,0.04929
1415.57428,0.04914
1414.54402,0.04912
1413.51376,0.04908
1412.48350,0.04938
1411.45324,0.05000
1410.42299,0.05035
1409.39273,0.05054
1408.36247,0.05108
1407.33221,0.05226
1406.30196,0.05390
1405.27170,0.05541
1404.24144,0.05627
1403.21118,0.05635
1402.18092,0.05579
1401.15067,0.05489
1400.12041,0.05386
1399.09015,0.05258
1398.05989,0.05132
1397.02963,0.05048
1395.99938,0.04993
1394.96912,0.04947
1393.93886,0.04902
1392.90860,0.04857
1391.87835,0.04817
1390.84809,0.04791
1389.81783,0.04779
1388.78757,0.04774
1387.75731,0.04770
1386.72706,0.04762
1385.69680,0.04749
1384.66654,0.04738
1383.63628,0.04734
1382.60602,0.04729
1381.57577,0.04720
1380.54551,0.04705
1379.51525,0.04687
1378.48499,0.04682
1377.45474,0.04692
1376.42448,0.04711
1375.39422,0.04730
1374.36396,0.04742
1373.33370,0.04739
1372.30345,0.04724
1371.27319,0.04710
1370.24293,0.04699
1369.21267,0.04685
1368.18241,0.04673
1367.15216,0.04664
1366.12190,0.04664
1365.09164,0.04672
1364.06138,0.04658
1363.03113,0.04631
1362.00087,0.04653
1360.97061,0.04702
1359.94035,0.04703
1358.91009,0.04675
1357.87984,0.04661
1356.84958,0.04651
1355.81932,0.04646
1354.78906,0.04648
1353.75881,0.04647
1352.72855,0.04624
1351.69829,0.04591
1350.66803,0.04588
1349.63777,0.04613
1348.60752,0.04631
1347.57726,0.04645
1346.54700,0.04659
1345.51674,0.04651
1344.48648,0.04628
1343.45623,0.04608
1342.42597,0.04599
1341.39571,0.04613
1340.36545,0.04636
1339.33520,0.04647
1338.30494,0.04641
1337.27468,0.04628
1336.24442,0.04629
1335.21416,0.04641
1334.18391,0.04641
1333.15365,0.04640
1332.12339,0.04647
1331.09313,0.04635
1330.06287,0.04601
1329.03262,0.04577
1328.00236,0.04574
1326.97210,0.04576
1325.94184,0.04589
1324.91159,0.04625
1323.88133,0.04648
1322.85107,0.04631
1321.82081,0.04605
1320.79055,0.04607
1319.76030,0.04613
1318.73004,0.04605
1317.69978,0.04619
1316.66952,0.04648
1315.63927,0.04642
1314.60901,0.04615
1313.57875,0.04600
1312.54849,0.04596
1311.51823,0.04592
1310.48798,0.04600
1309.45772,0.04625
1308.42746,0.04645
1307.39720,0.04637
1306.36694,0.04608
1305.33669,0.04593
1304.30643,0.04595
1303.27617,0.04600
1302.24591,0.04611
1301.21566,0.04604
1300.18540,0.04574
1299.15514,0.04564
1298.12488,0.04582
1297.09462,0.04601
1296.06437,0.04606
1295.03411,0.04596
1294.00385,0.04581
1292.97359,0.04561
1291.94333,0.04548
1290.91308,0.04546
1289.88282,0.04554
1288.85256,0.04568
1287.82230,0.04569
1286.79205,0.04568
1285.76179,0.04583
1284.73153,0.04600
1283.70127,0.04606
1282.67101,0.04589
1281.64076,0.04559
1280.61050,0.04549
1279.58024,0.04558
1278.54998,0.04567
1277.51972,0.04567
1276.48947,0.04564
1275.45921,0.04568
1274.42895,0.04577
1273.39869,0.04588
1272.36844,0.04587
1271.33818,0.04582
1270.30792,0.04589
1269.27766,0.04588
1268.24740,0.04578
1267.21715,0.04571
1266.18689,0.04581
1265.15663,0.04621
1264.12637,0.04663
1263.09612,0.04667
1262.06586,0.04631
1261.03560,0.04601
1260.00534,0.04613
1258.97508,0.04621
1257.94483,0.04617
1256.91457,0.04649
1255.88431,0.04691
1254.85405,0.04705
1253.82379,0.04734
1252.79354,0.04804
1251.76328,0.04879
1250.73302,0.04947
1249.70276,0.05024
1248.67251,0.05097
1247.64225,0.05183
1246.61199,0.05326
1245.58173,0.05517
1244.55147,0.05708
1243.52122,0.05892
1242.49096,0.06071
1241.46070,0.06234
1240.43044,0.06365
1239.40018,0.06445
1238.36993,0.06440
1237.33967,0.06359
1236.30941,0.06233
1235.27915,0.06069
1234.24890,0.05883
1233.21864,0.05712
1232.18838,0.05557
1231.15812,0.05398
1230.12786,0.05247
1229.09761,0.05137
1228.06735,0.05074
1227.03709,0.05020
1226.00683,0.04964
1224.97657,0.04914
1223.94632,0.04870
1222.91606,0.04837
1221.88580,0.04814
1220.85554,0.04791
1219.82529,0.04763
1218.79503,0.04751
1217.76477,0.04758
1216.73451,0.04754
1215.70425,0.04734
1214.67400,0.04724
1213.64374,0.04726
1212.61348,0.04721
1211.58322,0.04709
1210.55297,0.04688
1209.52271,0.04677
1208.49245,0.04699
1207.46219,0.04716
1206.43193,0.04694
1205.40168,0.04659
1204.37142,0.04639
1203.34116,0.04637
1202.31090,0.04644
1201.28064,0.04645
1200.25039,0.04644
1199.22013,0.04655
1198.18987,0.04667
1197.15961,0.04673
1196.12936,0.04667
1195.09910,0.04649
1194.06884,0.04647
1193.03858,0.04651
1192.00832,0.04635
1190.97807,0.04610
1189.94781,0.04592
1188.91755,0.04586
1187.88729,0.04592
1186.85703,0.04606
1185.82678,0.04626
1184.79652,0.04646
1183.76626,0.04661
1182.73600,0.04659
1181.70575,0.04639
1180.67549,0.04629
1179.64523,0.04622
1178.61497,0.04612
1177.58471,0.04617
1176.55446,0.04611
1175.52420,0.04578
1174.49394,0.04562
1173.46368,0.04585
1172.43342,0.04611
1171.40317,0.04612
1170.37291,0.04601
1169.34265,0.04615
1168.31239,0.04642
1167.28214,0.04641
1166.25188,0.04632
1165.22162,0.04627
1164.19136,0.04602
1163.16110,0.04583
1162.13085,0.04594
1161.10059,0.04593
1160.07033,0.04584
1159.04007,0.04605
1158.00982,0.04618
1156.97956,0.04592
1155.94930,0.04560
1154.91904,0.04555
1153.88878,0.04591
1152.85853,0.04618
1151.82827,0.04596
1150.79801,0.04575
1149.76775,0.04589
1148.73749,0.04598
1147.70724,0.04590
1146.67698,0.04593
1145.64672,0.04604
1144.61646,0.04619
1143.58621,0.04634
1142.55595,0.04619
1141.52569,0.04565
1140.49543,0.04541
1139.46517,0.04577
1138.43492,0.04603
1137.40466,0.04595
1136.37440,0.04588
1135.34414,0.04589
1134.31388,0.04611
1133.28363,0.04650
1132.25337,0.04648
1131.22311,0.04618
1130.19285,0.04615
1129.16260,0.04634
1128.13234,0.04656
1127.10208,0.04679
1126.07182,0.04711
1125.04156,0.04758
1124.01131,0.04794
1122.98105,0.04797
1121.95079,0.04801
1120.92053,0.04822
1119.89027,0.04814
1118.86002,0.04771
1117.82976,0.04734
1116.79950,0.04737
1115.76924,0.04756
1114.73899,0.04732
1113.70873,0.04690
1112.67847,0.04681
1111.64821,0.04695
1110.61795,0.04718
1109.58770,0.04731
1108.55744,0.04726
1107.52718,0.04733
1106.49692,0.04751
1105.46667,0.04746
1104.43641,0.04710
1103.40615,0.04693
1102.37589,0.04725
1101.34563,0.04765
1100.31538,0.04785
1099.28512,0.04776
1098.25486,0.04753
1097.22460,0.04760
1096.19434,0.04792
1095.16409,0.04823
1094.13383,0.04849
1093.10357,0.04840
1092.07331,0.04807
1091.04306,0.04798
1090.01280,0.04810
1088.98254,0.04817
1087.95228,0.04816
1086.92202,0.04837
1085.89177,0.04886
1084.86151,0.04918
1083.83125,0.04908
1082.80099,0.04882
1081.77073,0.04874
1080.74048,0.04886
1079.71022,0.04895
1078.67996,0.04899
1077.64970,0.04901
1076.61945,0.04899
1075.58919,0.04908
1074.55893,0.04925
1073.52867,0.04930
1072.49841,0.04923
1071.46816,0.04921
1070.43790,0.04909
1069.40764,0.04875
1068.37738,0.04860
1067.34712,0.04883
1066.31687,0.04903
1065.28661,0.04899
1064.25635,0.04882
1063.22609,0.04885
1062.19584,0.04921
1061.16558,0.04941
1060.13532,0.04915
1059.10506,0.04898
1058.07480,0.04931
1057.04455,0.04980
1056.01429,0.05002
1054.98403,0.04987
1053.95377,0.04973
1052.92352,0.04973
1051.89326,0.04974
1050.86300,0.04979
1049.83274,0.04978
1048.80248,0.04972
1047.77223,0.04979
1046.74197,0.04995
1045.71171,0.05000
1044.68145,0.04987
1043.65119,0.04978
1042.62094,0.04992
1041.59068,0.05011
1040.56042,0.05013
1039.53016,0.04998
1038.49991,0.04983
1037.46965,0.04975
1036.43939,0.04976
1035.40913,0.05001
1034.37887,0.05042
1033.34862,0.05052
1032.31836,0.05026
1031.28810,0.05012
1030.25784,0.05028
1029.22758,0.05058
1028.19733,0.05081
1027.16707,0.05090
1026.13681,0.05096
1025.10655,0.05111
1024.07630,0.05132
1023.04604,0.05157
1022.01578,0.05173
1020.98552,0.05164
1019.95526,0.05177
1018.92501,0.05233
1017.89475,0.05287
1016.86449,0.05303
1015.83423,0.05292
1014.80397,0.05285
1013.77372,0.05293
1012.74346,0.05297
1011.71320,0.05300
1010.68294,0.05303
1009.65269,0.05301
1008.62243,0.05310
1007.59217,0.05334
1006.56191,0.05374
1005.53165,0.05427
1004.50140,0.05473
1003.47114,0.05503
1002.44088,0.05541
1001.41062,0.05581
1000.38037,0.05581
999.35011,0.05576
998.31985,0.05611
997.28959,0.05643
996.25933,0.05637
995.22908,0.05632
994.19882,0.05654
993.16856,0.05678
992.13830,0.05692
991.10804,0.05720
990.07779,0.05783
989.04753,0.05849
988.01727,0.05882
986.98701,0.05900
985.95676,0.05939
984.92650,0.05991
983.89624,0.06035
982.86598,0.06065
981.83572,0.06074
980.80547,0.06074
979.77521,0.06073
978.74495,0.06070
977.71469,0.06127
976.68443,0.06238
975.65418,0.06307
974.62392,0.06318
973.59366,0.06339
972.56340,0.06393
971.53315,0.06451
970.50289,0.06520
969.47263,0.06598
968.44237,0.06671
967.41211,0.06742
966.38186,0.06812
965.35160,0.06904
964.32134,0.07032
963.29108,0.07181
962.26082,0.07363
961.23057,0.07601
960.20031,0.07850
959.17005,0.08113
958.13979,0.08452
957.10954,0.08872
956.07928,0.09331
955.04902,0.09817
954.01876,0.10296
952.98850,0.10702
951.95825,0.11000
950.92799,0.11194
949.89773,0.11300
948.86747,0.11330
947.83722,0.11292
946.80696,0.11152
945.77670,0.10869
944.74644,0.10488
943.71618,0.10101
942.68593,0.09739
941.65567,0.09421
940.62541,0.09172
939.59515,0.08997
938.56489,0.08883
937.53464,0.08784
936.50438,0.08676
935.47412,0.08578
934.44386,0.08528
933.41361,0.08535
932.38335,0.08548
931.35309,0.08539
930.32283,0.08527
929.29257,0.08528
928.26232,0.08548
927.23206,0.08596
926.20180,0.08676
925.17154,0.08770
924.14128,0.08826
923.11103,0.08830
922.08077,0.08837
921.05051,0.08868
920.02025,0.08912
918.99000,0.08972
917.95974,0.09052
916.92948,0.09155
915.89922,0.09233
914.86896,0.09250
913.83871,0.09274
912.80845,0.09370
911.77819,0.09504
910.74793,0.09594
909.71768,0.09652
908.68742,0.09716
907.65716,0.09773
906.62690,0.09836
905.59664,0.09923
904.56639,0.10032
903.53613,0.10163
902.50587,0.10263
901.47561,0.10317
900.44535,0.10397
899.41510,0.10507
898.38484,0.10601
897.35458,0.10694
896.32432,0.10788
895.29407,0.10855
894.26381,0.10908
893.23355,0.10988
892.20329,0.11116
891.17303,0.11250
890.14278,0.11342
889.11252,0.11413
888.08226,0.11496
887.05200,0.11604
886.02174,0.11724
884.99149,0.11838
883.96123,0.11958
882.93097,0.12073
881.90071,0.12140
880.87046,0.12192
879.84020,0.12266
878.80994,0.12354
877.77968,0.12471
876.74942,0.12629
875.71917,0.12803
874.68891,0.12940
873.65865,0.12999
872.62839,0.13038
871.59813,0.13138
870.56788,0.13284
869.53762,0.13449
868.50736,0.13612
867.47710,0.13713
866.44685,0.13737
865.41659,0.13769
864.38633,0.13882
863.35607,0.14047
862.32581,0.14209
861.29556,0.14347
860.26530,0.14453
859.23504,0.14553
858.20478,0.14670
857.17453,0.14793
856.14427,0.14929
855.11401,0.15055
854.08375,0.15142
853.05349,0.15230
852.02324,0.15343
850.99298,0.15488
849.96272,0.15669
848.93246,0.15844
847.90220,0.15963
846.87195,0.16042
845.84169,0.16122
844.81143,0.16231
843.78117,0.16376
842.75092,0.16521
841.72066,0.16647
840.69040,0.16784
839.66014,0.16917
838.62988,0.17001
837.59963,0.17074
836.56937,0.17208
835.53911,0.17342
834.50885,0.17479
833.47859,0.17694
832.44834,0.17891
831.41808,0.17965
830.38782,0.17978
829.35756,0.18053
828.32731,0.18184
827.29705,0.18315
826.26679,0.18477
825.23653,0.18654
824.20627,0.18801
823.17602,0.18946
822.14576,0.19092
821.11550,0.19191
820.08524,0.19300
819.05498,0.19485
818.02473,0.19647
816.99447,0.19732
815.96421,0.19852
814.93395,0.19998
813.90370,0.20096
812.87344,0.20183
811.84318,0.20317
810.81292,0.20489
809.78266,0.20646
808.75241,0.20792
807.72215,0.20978
806.69189,0.21196
805.66163,0.21332
804.63138,0.21346
803.60112,0.21354
802.57086,0.21481
801.54060,0.21756
800.51034,0.22027
799.48009,0.22138
798.44983,0.22169
797.41957,0.22244
796.38931,0.22375
795.35905,0.22545
794.32880,0.22729
793.29854,0.22911
792.26828,0.23074
791.23802,0.23181
790.20777,0.23236
789.17751,0.23311
788.14725,0.23482
787.11699,0.23714
786.08673,0.23893
785.05648,0.24000
784.02622,0.24110
782.99596,0.24245
781.96570,0.24363
780.93544,0.24453
779.90519,0.24580
778.87493,0.24772
777.84467,0.24980
776.81441,0.25152
775.78416,0.25288
774.75390,0.25447
773.72364,0.25612
772.69338,0.25755
771.66312,0.25919
770.63287,0.26086
769.60261,0.26221
768.57235,0.26387
767.54209,0.26631
766.51183,0.26887
765.48158,0.27120
764.45132,0.27318
763.42106,0.27477
762.39080,0.27717
761.36055,0.28118
760.33029,0.28533
759.30003,0.28841
758.26977,0.29078
757.23951,0.29251
756.20926,0.29389
755.17900,0.29538
754.14874,0.29686
753.11848,0.29815
752.08823,0.29880
751.05797,0.29898
750.02771,0.29908
748.99745,0.29898
747.96719,0.29931
746.93694,0.30014
745.90668,0.30125
744.87642,0.30280
743.84616,0.30405
742.81590,0.30444
741.78565,0.30442
740.75539,0.30492
739.72513,0.30648
738.69487,0.30843
737.66462,0.31013
736.63436,0.31188
735.60410,0.31359
734.57384,0.31465
733.54358,0.31542
732.51333,0.31650
731.48307,0.31775
730.45281,0.31896
729.42255,0.32015
728.39229,0.32134
727.36204,0.32284
726.33178,0.32471
725.30152,0.32583
724.27126,0.32629
723.24101,0.32764
722.21075,0.32966
721.18049,0.33127
720.15023,0.33289
719.11997,0.33489
718.08972,0.33617
717.05946,0.33607
716.02920,0.33590
714.99894,0.33719
713.96868,0.33968
712.93843,0.34170
711.90817,0.34261
710.87791,0.34370
709.84765,0.34549
708.81740,0.34705
707.78714,0.34769
706.75688,0.34848
705.72662,0.35059
704.69636,0.35260
703.66611,0.35316
702.63585,0.35346
701.60559,0.35471
700.57533,0.35634
699.54508,0.35743
698.51482,0.35845
697.48456,0.36034
696.45430,0.36186
695.42404,0.36257
694.39379,0.36404
693.36353,0.36573
692.33327,0.36667
691.30301,0.36783
690.27275,0.36977
689.24250,0.37180
688.21224,0.37349
687.18198,0.37498
686.15172,0.37648
685.12147,0.37811
684.09121,0.37942
683.06095,0.38017
682.03069,0.38015
681.00043,0.38012
679.97018,0.38184
678.93992,0.38446
677.90966,0.38573
676.87940,0.38618
675.84914,0.38670
674.81889,0.38698
673.78863,0.38739
672.75837,0.38863
671.72811,0.39099
670.69786,0.39283
669.66760,0.39287
668.63734,0.39257
667.60708,0.39408
666.57682,0.39688
665.54657,0.39951
664.51631,0.40136
663.48605,0.40260
662.45579,0.40393
661.42553,0.40554
660.39528,0.40688
659.36502,0.40734
658.33476,0.40797
657.30450,0.40938
656.27425,0.41054
655.24399,0.41187
654.21373,0.41310
653.18347,0.41298
652.15321,0.41330
651.12296,0.41477
650.09270,0.41562
649.06244,0.41566
648.03218,0.41651
647.00193,0.41870
645.97167,0.42050
644.94141,0.42086
643.91115,0.42074
642.88089,0.42157
641.85064,0.42382
640.82038,0.42701
639.79012,0.42928
638.75986,0.42947
637.72960,0.42913
636.69935,0.42891
635.66909,0.42936
634.63883,0.43175
633.60857,0.43356
632.57832,0.43323
631.54806,0.43275
630.51780,0.43284
629.48754,0.43416
628.45728,0.43636
627.42703,0.43797
626.39677,0.43948
625.36651,0.44109
624.33625,0.44220
623.30599,0.44333
622.27574,0.44353
621.24548,0.44180
620.21522,0.44119
619.18496,0.44277
618.15471,0.44398
617.12445,0.44488
616.09419,0.44635
615.06393,0.44743
614.03367,0.44818
613.00342,0.44928
611.97316,0.45032
610.94290,0.45111
609.91264,0.45198
608.88238,0.45303
607.85213,0.45314
606.82187,0.45192
605.79161,0.45186
604.76135,0.45366
603.73110,0.45539
602.70084,0.45671
601.67058,0.45814
600.64032,0.46014
599.61006,0.46219
598.57981,0.46247
597.54955,0.46162
596.51929,0.46156
595.48903,0.46222
594.45878,0.46305
593.42852,0.46451
592.39826,0.46634
591.36800,0.46671
590.33774,0.46575
589.30749,0.46653
588.27723,0.46882
587.24697,0.46965
586.21671,0.46979
585.18645,0.47026
584.15620,0.47036
583.12594,0.47141
582.09568,0.47355
581.06542,0.47494
580.03517,0.47512
579.00491,0.47457
577.97465,0.47454
576.94439,0.47654
575.91413,0.47818
574.88388,0.47766
573.85362,0.47857
572.82336,0.48092
571.79310,0.48211
570.76284,0.48222
569.73259,0.48141
568.70233,0.48091
567.67207,0.48039
566.64181,0.47973
565.61156,0.48061
564.58130,0.48126
563.55104,0.48098
562.52078,0.48098
561.49052,0.48110
560.46027,0.48095
559.43001,0.48077
558.39975,0.48077
557.36949,0.48100
556.33924,0.48474
555.30898,0.49054
554.27872,0.49133
553.24846,0.48885
552.21820,0.48868
551.18795,0.49067
550.15769,0.49169
549.12743,0.48932
548.09717,0.48628
547.06691,0.48747
546.03666,0.49099
545.00640,0.49203
543.97614,0.48968
542.94588,0.48714
541.91563,0.48747
540.88537,0.48722
539.85511,0.48505
538.82485,0.48597
537.79459,0.48973
536.76434,0.49249
535.73408,0.49516
534.70382,0.49809
533.67356,0.49862
532.64330,0.49693
531.61305,0.49394
530.58279,0.49072
529.55253,0.49115
528.52227,0.49532
527.49202,0.49787
526.46176,0.49667
525.43150,0.49588
524.40124,0.49775
523.37098,0.49972
522.34073,0.50096
521.31047,0.50205
520.28021,0.50318
519.24995,0.50600
518.21969,0.50980
517.18944,0.51174
516.15918,0.51222
515.12892,0.51100
514.09866,0.50866
513.06841,0.50922
512.03815,0.51292
511.00789,0.51688
509.97763,0.52007
508.94737,0.52208
507.91712,0.52278
506.88686,0.52370
505.85660,0.52581
504.82634,0.52830
503.79609,0.53042
502.76583,0.53297
501.73557,0.53632
500.70531,0.53939
499.67505,0.54360
498.64480,0.54798
497.61454,0.54954
496.58428,0.54661
495.55402,0.54046
494.52376,0.53878
493.49351,0.54281
492.46325,0.54504
491.43299,0.54503
490.40273,0.54450
489.37248,0.54167
488.34222,0.54063
487.31196,0.54342
486.28170,0.54365
485.25144,0.53705
484.22119,0.52901
483.19093,0.52699
482.16067,0.52648
481.13041,0.52179
480.10015,0.51656
479.06990,0.51527
478.03964,0.52016
477.00938,0.52697
475.97912,0.52847
474.94887,0.52496
473.91861,0.52096
472.88835,0.52065
471.85809,0.52269
470.82783,0.52291
469.79758,0.52843
468.76732,0.54491
467.73706,0.56085
466.70680,0.56441
465.67654,0.56446
464.64629,0.56946
463.61603,0.57460
462.58577,0.57436
461.55551,0.57037
460.52526,0.56955
459.49500,0.57112
458.46474,0.56982
457.43448,0.56799
456.40422,0.56909
455.37397,0.56731
454.34371,0.55866
453.31345,0.55276
452.28319,0.55780
451.25294,0.56017
450.22268,0.55336
449.19242,0.55153
448.16216,0.55383
447.13190,0.54969
446.10165,0.54699
445.07139,0.55118
444.04113,0.55453
443.01087,0.55405
441.98061,0.55296
440.95036,0.54875
439.92010,0.53816
438.88984,0.53013
437.85958,0.53173
436.82933,0.53594
435.79907,0.53657
434.76881,0.53523
433.73855,0.53699
432.70829,0.54114
431.67804,0.53518
430.64778,0.52407
429.61752,0.52382
428.58726,0.52707
427.55700,0.52349
426.52675,0.51852
425.49649,0.52075
424.46623,0.52706
423.43597,0.52300
422.40572,0.51644
421.37546,0.52259
420.34520,0.52673
419.31494,0.52055
418.28468,0.52504
417.25443,0.53849
416.22417,0.54104
415.19391,0.53431
414.16365,0.53222
413.13339,0.53216
412.10314,0.52364
411.07288,0.51503
410.04262,0.51926
409.01236,0.52704
407.98211,0.52521
406.95185,0.52643
405.92159,0.53314
404.89133,0.53671
403.86107,0.53829
402.83082,0.53802
401.80056,0.54017
400.77030,0.53856
399.74004,0.53002
