4998.81105,0.00363
4997.78079,0.00410
4996.75054,0.00345
4995.72028,0.00164
4994.69002,0.00110
4993.65976,0.00204
4992.62951,0.00220
4991.59925,0.00167
4990.56899,0.00179
4989.53873,0.00212
4988.50847,0.00238
4987.47822,0.00257
4986.44796,0.00228
4985.41770,0.00215
4984.38744,0.00251
4983.35718,0.00313
4982.32693,0.00375
4981.29667,0.00401
4980.26641,0.00427
4979.23615,0.00430
4978.20590,0.00383
4977.17564,0.00360
4976.14538,0.00345
4975.11512,0.00304
4974.08486,0.00333
4973.05461,0.00389
4972.02435,0.00370
4970.99409,0.00336
4969.96383,0.00264
4968.93357,0.00160
4967.90332,0.00139
4966.87306,0.00175
4965.84280,0.00228
4964.81254,0.00290
4963.78229,0.00291
4962.75203,0.00254
4961.72177,0.00246
4960.69151,0.00256
4959.66125,0.00304
4958.63100,0.00371
4957.60074,0.00381
4956.57048,0.00365
4955.54022,0.00389
4954.50997,0.00410
4953.47971,0.00410
4952.44945,0.00382
4951.41919,0.00313
4950.38893,0.00280
4949.35868,0.00266
4948.32842,0.00179
4947.29816,0.00138
4946.26790,0.00273
4945.23764,0.00406
4944.20739,0.00416
4943.17713,0.00444
4942.14687,0.00478
4941.11661,0.00412
4940.08636,0.00324
4939.05610,0.00305
4938.02584,0.00305
4936.99558,0.00253
4935.96532,0.00204
4934.93507,0.00232
4933.90481,0.00304
4932.87455,0.00353
4931.84429,0.00319
4930.81403,0.00205
4929.78378,0.00123
4928.75352,0.00166
4927.72326,0.00281
4926.69300,0.00333
4925.66275,0.00302
4924.63249,0.00291
4923.60223,0.00373
4922.57197,0.00477
4921.54171,0.00492
4920.51146,0.00436
4919.48120,0.00377
4918.45094,0.00310
4917.42068,0.00225
4916.39042,0.00181
4915.36017,0.00258
4914.32991,0.00325
4913.29965,0.00234
4912.26939,0.00180
4911.23914,0.00250
4910.20888,0.00274
4909.17862,0.00242
4908.14836,0.00241
4907.11810,0.00259
4906.08785,0.00269
4905.05759,0.00348
4904.02733,0.00451
4902.99707,0.00421
4901.96682,0.00384
4900.93656,0.00411
4899.90630,0.00381
4898.87604,0.00300
4897.84578,0.00200
4896.81553,0.00150
4895.78527,0.00182
4894.75501,0.00249
4893.72475,0.00319
4892.69449,0.00327
4891.66424,0.00302
4890.63398,0.00320
4889.60372,0.00340
4888.57346,0.00319
4887.54321,0.00294
4886.51295,0.00290
4885.48269,0.00339
4884.45243,0.00469
4883.42217,0.00531
4882.39192,0.00425
4881.36166,0.00333
4880.33140,0.00277
4879.30114,0.00197
4878.27088,0.00228
4877.24063,0.00281
4876.21037,0.00220
4875.18011,0.00180
4874.14985,0.00211
4873.11960,0.00238
4872.08934,0.00267
4871.05908,0.00319
4870.02882,0.00398
4868.99856,0.00468
4867.96831,0.00477
4866.93805,0.00411
4865.90779,0.00325
4864.87753,0.00304
4863.84727,0.00324
4862.81702,0.00318
4861.78676,0.00269
4860.75650,0.00221
4859.72624,0.00204
4858.69599,0.00179
4857.66573,0.00138
4856.63547,0.00119
4855.60521,0.00152
4854.57495,0.00205
4853.54470,0.00227
4852.51444,0.00224
4851.48418,0.00247
4850.45392,0.00250
4849.42367,0.00222
4848.39341,0.00246
4847.36315,0.00256
4846.33289,0.00197
4845.30263,0.00168
4844.27238,0.00214
4843.24212,0.00258
4842.21186,0.00264
4841.18160,0.00317
4840.15134,0.00359
4839.12109,0.00259
4838.09083,0.00138
4837.06057,0.00116
4836.03031,0.00162
4835.00006,0.00241
4833.96980,0.00257
4832.93954,0.00191
4831.90928,0.00162
4830.87902,0.00211
4829.84877,0.00282
4828.81851,0.00286
4827.78825,0.00220
4826.75799,0.00178
4825.72773,0.00167
4824.69748,0.00206
4823.66722,0.00306
4822.63696,0.00329
4821.60670,0.00263
4820.57645,0.00241
4819.54619,0.00275
4818.51593,0.00315
4817.48567,0.00354
4816.45541,0.00328
4815.42516,0.00263
4814.39490,0.00267
4813.36464,0.00304
4812.33438,0.00291
4811.30412,0.00284
4810.27387,0.00305
4809.24361,0.00302
4808.21335,0.00277
4807.18309,0.00223
4806.15284,0.00181
4805.12258,0.00174
4804.09232,0.00153
4803.06206,0.00170
4802.03180,0.00219
4801.00155,0.00275
4799.97129,0.00358
4798.94103,0.00394
4797.91077,0.00373
4796.88052,0.00322
4795.85026,0.00295
4794.82000,0.00345
4793.78974,0.00362
4792.75948,0.00317
4791.72923,0.00311
4790.69897,0.00352
4789.66871,0.00337
4788.63845,0.00279
4787.60819,0.00266
4786.57794,0.00248
4785.54768,0.00210
4784.51742,0.00231
4783.48716,0.00257
4782.45691,0.00158
4781.42665,0.00051
4780.39639,0.00105
4779.36613,0.00219
4778.33587,0.00230
4777.30562,0.00151
4776.27536,0.00092
4775.24510,0.00088
4774.21484,0.00108
4773.18458,0.00158
4772.15433,0.00184
4771.12407,0.00135
4770.09381,0.00128
4769.06355,0.00181
4768.03330,0.00229
4767.00304,0.00242
4765.97278,0.00183
4764.94252,0.00136
4763.91226,0.00164
4762.88201,0.00185
4761.85175,0.00164
4760.82149,0.00148
4759.79123,0.00158
4758.76098,0.00197
4757.73072,0.00291
4756.70046,0.00438
4755.67020,0.00530
4754.63994,0.00533
4753.60969,0.00523
4752.57943,0.00452
4751.54917,0.00372
4750.51891,0.00415
4749.48865,0.00459
4748.45840,0.00350
4747.42814,0.00234
4746.39788,0.00245
4745.36762,0.00279
4744.33737,0.00256
4743.30711,0.00231
4742.27685,0.00215
4741.24659,0.00180
4740.21633,0.00184
4739.18608,0.00233
4738.15582,0.00263
4737.12556,0.00239
4736.09530,0.00174
4735.06504,0.00120
4734.03479,0.00112
4733.00453,0.00179
4731.97427,0.00296
4730.94401,0.00370
4729.91376,0.00364
4728.88350,0.00302
4727.85324,0.00243
4726.82298,0.00236
4725.79272,0.00230
4724.76247,0.00176
4723.73221,0.00115
4722.70195,0.00077
4721.67169,0.00065
4720.64143,0.00140
4719.61118,0.00269
4718.58092,0.00298
4717.55066,0.00224
4716.52040,0.00168
4715.49015,0.00198
4714.45989,0.00254
4713.42963,0.00262
4712.39937,0.00230
4711.36911,0.00196
4710.33886,0.00182
4709.30860,0.00184
4708.27834,0.00157
4707.24808,0.00080
4706.21783,0.00038
4705.18757,0.00093
4704.15731,0.00171
4703.12705,0.00169
4702.09679,0.00140
4701.06654,0.00141
4700.03628,0.00141
4699.00602,0.00149
4697.97576,0.00190
4696.94550,0.00238
4695.91525,0.00231
4694.88499,0.00205
4693.85473,0.00220
4692.82447,0.00222
4691.79422,0.00200
4690.76396,0.00206
4689.73370,0.00233
4688.70344,0.00311
4687.67318,0.00370
4686.64293,0.00303
4685.61267,0.00246
4684.58241,0.00275
4683.55215,0.00280
4682.52189,0.00227
4681.49164,0.00199
4680.46138,0.00240
4679.43112,0.00296
4678.40086,0.00321
4677.37061,0.00337
4676.34035,0.00326
4675.31009,0.00294
4674.27983,0.00272
4673.24957,0.00230
4672.21932,0.00216
4671.18906,0.00211
4670.15880,0.00154
4669.12854,0.00116
4668.09828,0.00157
4667.06803,0.00266
4666.03777,0.00352
4665.00751,0.00322
4663.97725,0.00264
4662.94700,0.00281
4661.91674,0.00280
4660.88648,0.00238
4659.85622,0.00212
4658.82596,0.00161
4657.79571,0.00091
4656.76545,0.00071
4655.73519,0.00143
4654.70493,0.00237
4653.67468,0.00215
4652.64442,0.00146
4651.61416,0.00169
4650.58390,0.00235
4649.55364,0.00301
4648.52339,0.00345
4647.49313,0.00328
4646.46287,0.00276
4645.43261,0.00191
4644.40235,0.00135
4643.37210,0.00181
4642.34184,0.00216
4641.31158,0.00169
4640.28132,0.00120
4639.25107,0.00167
4638.22081,0.00303
4637.19055,0.00381
4636.16029,0.00290
4635.13003,0.00145
4634.09978,0.00133
4633.06952,0.00165
4632.03926,0.00100
4631.00900,0.00028
4629.97874,0.00034
4628.94849,0.00093
4627.91823,0.00214
4626.88797,0.00348
4625.85771,0.00392
4624.82746,0.00368
4623.79720,0.00315
4622.76694,0.00283
4621.73668,0.00273
4620.70642,0.00213
4619.67617,0.00177
4618.64591,0.00206
4617.61565,0.00210
4616.58539,0.00202
4615.55513,0.00214
4614.52488,0.00186
4613.49462,0.00190
4612.46436,0.00276
4611.43410,0.00297
4610.40385,0.00227
4609.37359,0.00184
4608.34333,0.00199
4607.31307,0.00242
4606.28281,0.00254
4605.25256,0.00198
4604.22230,0.00154
4603.19204,0.00161
4602.16178,0.00179
4601.13153,0.00198
4600.10127,0.00195
4599.07101,0.00173
4598.04075,0.00164
4597.01049,0.00178
4595.98024,0.00190
4594.94998,0.00171
4593.91972,0.00137
4592.88946,0.00133
4591.85920,0.00188
4590.82895,0.00249
4589.79869,0.00254
4588.76843,0.00236
4587.73817,0.00235
4586.70792,0.00257
4585.67766,0.00288
4584.64740,0.00273
4583.61714,0.00218
4582.58688,0.00186
4581.55663,0.00167
4580.52637,0.00178
4579.49611,0.00210
4578.46585,0.00210
4577.43559,0.00208
4576.40534,0.00235
4575.37508,0.00273
4574.34482,0.00284
4573.31456,0.00251
4572.28431,0.00227
4571.25405,0.00231
4570.22379,0.00239
4569.19353,0.00212
4568.16327,0.00159
4567.13302,0.00162
4566.10276,0.00228
4565.07250,0.00290
4564.04224,0.00311
4563.01198,0.00288
4561.98173,0.00233
4560.95147,0.00173
4559.92121,0.00107
4558.89095,0.00055
4557.86070,0.00069
4556.83044,0.00136
4555.80018,0.00196
4554.76992,0.00221
4553.73966,0.00243
4552.70941,0.00227
4551.67915,0.00174
4550.64889,0.00182
4549.61863,0.00239
4548.58838,0.00280
4547.55812,0.00288
4546.52786,0.00267
4545.49760,0.00234
4544.46734,0.00211
4543.43709,0.00218
4542.40683,0.00265
4541.37657,0.00282
4540.34631,0.00256
4539.31605,0.00269
4538.28580,0.00312
4537.25554,0.00312
4536.22528,0.00251
4535.19502,0.00215
4534.16477,0.00219
4533.13451,0.00190
4532.10425,0.00211
4531.07399,0.00315
4530.04373,0.00338
4529.01348,0.00246
4527.98322,0.00178
4526.95296,0.00179
4525.92270,0.00202
4524.89244,0.00234
4523.86219,0.00219
4522.83193,0.00170
4521.80167,0.00199
4520.77141,0.00241
4519.74116,0.00239
4518.71090,0.00241
4517.68064,0.00233
4516.65038,0.00226
4515.62012,0.00220
4514.58987,0.00188
4513.55961,0.00188
4512.52935,0.00256
4511.49909,0.00309
4510.46883,0.00285
4509.43858,0.00269
4508.40832,0.00311
4507.37806,0.00364
4506.34780,0.00396
4505.31755,0.00374
4504.28729,0.00323
4503.25703,0.00294
4502.22677,0.00286
4501.19651,0.00257
4500.16626,0.00218
4499.13600,0.00221
4498.10574,0.00235
4497.07548,0.00247
4496.04523,0.00280
4495.01497,0.00288
4493.98471,0.00236
4492.95445,0.00190
4491.92419,0.00215
4490.89394,0.00256
4489.86368,0.00266
4488.83342,0.00254
4487.80316,0.00214
4486.77290,0.00141
4485.74265,0.00083
4484.71239,0.00109
4483.68213,0.00194
4482.65187,0.00271
4481.62162,0.00309
4480.59136,0.00297
4479.56110,0.00274
4478.53084,0.00254
4477.50058,0.00207
4476.47033,0.00181
4475.44007,0.00172
4474.40981,0.00118
4473.37955,0.00071
4472.34929,0.00088
4471.31904,0.00148
4470.28878,0.00236
4469.25852,0.00280
4468.22826,0.00222
4467.19801,0.00174
4466.16775,0.00220
4465.13749,0.00269
4464.10723,0.00238
4463.07697,0.00198
4462.04672,0.00191
4461.01646,0.00193
4459.98620,0.00209
4458.95594,0.00198
4457.92568,0.00153
4456.89543,0.00108
4455.86517,0.00104
4454.83491,0.00171
4453.80465,0.00237
4452.77440,0.00269
4451.74414,0.00280
4450.71388,0.00300
4449.68362,0.00365
4448.65336,0.00373
4447.62311,0.00282
4446.59285,0.00221
4445.56259,0.00231
4444.53233,0.00242
4443.50208,0.00224
4442.47182,0.00196
4441.44156,0.00210
4440.41130,0.00261
4439.38104,0.00294
4438.35079,0.00298
4437.32053,0.00291
4436.29027,0.00281
4435.26001,0.00274
4434.22975,0.00275
4433.19950,0.00263
4432.16924,0.00257
4431.13898,0.00281
4430.10872,0.00274
4429.07847,0.00202
4428.04821,0.00175
4427.01795,0.00226
4425.98769,0.00218
4424.95743,0.00160
4423.92718,0.00159
4422.89692,0.00192
4421.86666,0.00219
4420.83640,0.00250
4419.80614,0.00273
4418.77589,0.00282
4417.74563,0.00283
4416.71537,0.00262
4415.68511,0.00253
4414.65486,0.00266
4413.62460,0.00254
4412.59434,0.00230
4411.56408,0.00212
4410.53382,0.00191
4409.50357,0.00196
4408.47331,0.00243
4407.44305,0.00278
4406.41279,0.00249
4405.38253,0.00181
4404.35228,0.00146
4403.32202,0.00172
4402.29176,0.00250
4401.26150,0.00353
4400.23125,0.00404
4399.20099,0.00355
4398.17073,0.00267
4397.14047,0.00242
4396.11021,0.00288
4395.07996,0.00346
4394.04970,0.00358
4393.01944,0.00295
4391.98918,0.00215
4390.95893,0.00189
4389.92867,0.00199
4388.89841,0.00195
4387.86815,0.00203
4386.83789,0.00233
4385.80764,0.00247
4384.77738,0.00303
4383.74712,0.00376
4382.71686,0.00353
4381.68660,0.00283
4380.65635,0.00254
4379.62609,0.00241
4378.59583,0.00213
4377.56557,0.00203
4376.53532,0.00222
4375.50506,0.00237
4374.47480,0.00268
4373.44454,0.00337
4372.41428,0.00357
4371.38403,0.00320
4370.35377,0.00333
4369.32351,0.00352
4368.29325,0.00340
4367.26299,0.00327
4366.23274,0.00317
4365.20248,0.00318
4364.17222,0.00316
4363.14196,0.00343
4362.11171,0.00387
4361.08145,0.00382
4360.05119,0.00334
4359.02093,0.00320
4357.99067,0.00354
4356.96042,0.00374
4355.93016,0.00356
4354.89990,0.00327
4353.86964,0.00302
4352.83939,0.00275
4351.80913,0.00274
4350.77887,0.00314
4349.74861,0.00334
4348.71835,0.00289
4347.68810,0.00213
4346.65784,0.00160
4345.62758,0.00147
4344.59732,0.00166
4343.56706,0.00240
4342.53681,0.00328
4341.50655,0.00312
4340.47629,0.00211
4339.44603,0.00167
4338.41578,0.00209
4337.38552,0.00265
4336.35526,0.00305
4335.32500,0.00348
4334.29474,0.00380
4333.26449,0.00369
4332.23423,0.00337
4331.20397,0.00318
4330.17371,0.00272
4329.14345,0.00233
4328.11320,0.00288
4327.08294,0.00350
4326.05268,0.00301
4325.02242,0.00228
4323.99217,0.00221
4322.96191,0.00219
4321.93165,0.00204
4320.90139,0.00230
4319.87113,0.00271
4318.84088,0.00274
4317.81062,0.00259
4316.78036,0.00243
4315.75010,0.00191
4314.71984,0.00169
4313.68959,0.00248
4312.65933,0.00321
4311.62907,0.00321
4310.59881,0.00296
4309.56856,0.00264
4308.53830,0.00221
4307.50804,0.00193
4306.47778,0.00218
4305.44752,0.00249
4304.41727,0.00233
4303.38701,0.00231
4302.35675,0.00284
4301.32649,0.00324
4300.29624,0.00282
4299.26598,0.00197
4298.23572,0.00150
4297.20546,0.00170
4296.17520,0.00231
4295.14495,0.00301
4294.11469,0.00332
4293.08443,0.00287
4292.05417,0.00244
4291.02391,0.00230
4289.99366,0.00209
4288.96340,0.00237
4287.93314,0.00309
4286.90288,0.00362
4285.87263,0.00362
4284.84237,0.00319
4283.81211,0.00292
4282.78185,0.00277
4281.75159,0.00248
4280.72134,0.00229
4279.69108,0.00193
4278.66082,0.00137
4277.63056,0.00138
4276.60030,0.00194
4275.57005,0.00227
4274.53979,0.00209
4273.50953,0.00197
4272.47927,0.00233
4271.44902,0.00302
4270.41876,0.00365
4269.38850,0.00375
4268.35824,0.00324
4267.32798,0.00252
4266.29773,0.00192
4265.26747,0.00155
4264.23721,0.00150
4263.20695,0.00177
4262.17669,0.00210
4261.14644,0.00236
4260.11618,0.00253
4259.08592,0.00266
4258.05566,0.00254
4257.02541,0.00246
4255.99515,0.00280
4254.96489,0.00272
4253.93463,0.00208
4252.90437,0.00191
4251.87412,0.00237
4250.84386,0.00299
4249.81360,0.00324
4248.78334,0.00277
4247.75309,0.00223
4246.72283,0.00220
4245.69257,0.00235
4244.66231,0.00272
4243.63205,0.00307
4242.60180,0.00287
4241.57154,0.00245
4240.54128,0.00211
4239.51102,0.00196
4238.48076,0.00216
4237.45051,0.00262
4236.42025,0.00296
4235.38999,0.00278
4234.35973,0.00236
4233.32948,0.00240
4232.29922,0.00297
4231.26896,0.00332
4230.23870,0.00313
4229.20844,0.00314
4228.17819,0.00360
4227.14793,0.00388
4226.11767,0.00379
4225.08741,0.00353
4224.05715,0.00340
4223.02690,0.00341
4221.99664,0.00337
4220.96638,0.00334
4219.93612,0.00347
4218.90587,0.00373
4217.87561,0.00353
4216.84535,0.00293
4215.81509,0.00279
4214.78483,0.00308
4213.75458,0.00319
4212.72432,0.00295
4211.69406,0.00274
4210.66380,0.00286
4209.63354,0.00303
4208.60329,0.00312
4207.57303,0.00329
4206.54277,0.00341
4205.51251,0.00325
4204.48226,0.00296
4203.45200,0.00283
4202.42174,0.00299
4201.39148,0.00322
4200.36122,0.00299
4199.33097,0.00247
4198.30071,0.00254
4197.27045,0.00293
4196.24019,0.00282
4195.20994,0.00255
4194.17968,0.00266
4193.14942,0.00277
4192.11916,0.00262
4191.08890,0.00256
4190.05865,0.00279
4189.02839,0.00317
4187.99813,0.00340
4186.96787,0.00315
4185.93761,0.00273
4184.90736,0.00278
4183.87710,0.00304
4182.84684,0.00287
4181.81658,0.00232
4180.78633,0.00198
4179.75607,0.00234
4178.72581,0.00311
4177.69555,0.00355
4176.66529,0.00336
4175.63504,0.00282
4174.60478,0.00261
4173.57452,0.00305
4172.54426,0.00353
4171.51400,0.00381
4170.48375,0.00374
4169.45349,0.00313
4168.42323,0.00284
4167.39297,0.00294
4166.36272,0.00284
4165.33246,0.00282
4164.30220,0.00302
4163.27194,0.00357
4162.24168,0.00419
4161.21143,0.00406
4160.18117,0.00336
4159.15091,0.00315
4158.12065,0.00324
4157.09039,0.00338
4156.06014,0.00398
4155.02988,0.00409
4153.99962,0.00348
4152.96936,0.00320
4151.93911,0.00319
4150.90885,0.00307
4149.87859,0.00297
4148.84833,0.00306
4147.81807,0.00316
4146.78782,0.00329
4145.75756,0.00368
4144.72730,0.00385
4143.69704,0.00350
4142.66679,0.00323
4141.63653,0.00336
4140.60627,0.00347
4139.57601,0.00323
4138.54575,0.00306
4137.51550,0.00350
4136.48524,0.00380
4135.45498,0.00345
4134.42472,0.00313
4133.39446,0.00310
4132.36421,0.00303
4131.33395,0.00309
4130.30369,0.00355
4129.27343,0.00368
4128.24318,0.00319
4127.21292,0.00308
4126.18266,0.00362
4125.15240,0.00406
4124.12214,0.00382
4123.09189,0.00321
4122.06163,0.00286
4121.03137,0.00287
4120.00111,0.00315
4118.97085,0.00340
4117.94060,0.00336
4116.91034,0.00327
4115.88008,0.00311
4114.84982,0.00293
4113.81957,0.00304
4112.78931,0.00338
4111.75905,0.00385
4110.72879,0.00446
4109.69853,0.00483
4108.66828,0.00478
4107.63802,0.00474
4106.60776,0.00475
4105.57750,0.00439
4104.54724,0.00371
4103.51699,0.00300
4102.48673,0.00276
4101.45647,0.00338
4100.42621,0.00385
4099.39596,0.00357
4098.36570,0.00354
4097.33544,0.00373
4096.30518,0.00373
4095.27492,0.00364
4094.24467,0.00344
4093.21441,0.00334
4092.18415,0.00336
4091.15389,0.00326
4090.12364,0.00316
4089.09338,0.00333
4088.06312,0.00343
4087.03286,0.00328
4086.00260,0.00342
4084.97235,0.00402
4083.94209,0.00440
4082.91183,0.00422
4081.88157,0.00383
4080.85131,0.00342
4079.82106,0.00333
4078.79080,0.00393
4077.76054,0.00469
4076.73028,0.00481
4075.70003,0.00433
4074.66977,0.00385
4073.63951,0.00373
4072.60925,0.00393
4071.57899,0.00426
4070.54874,0.00434
4069.51848,0.00403
4068.48822,0.00372
4067.45796,0.00364
4066.42770,0.00386
4065.39745,0.00422
4064.36719,0.00445
4063.33693,0.00454
4062.30667,0.00437
4061.27642,0.00408
4060.24616,0.00388
4059.21590,0.00392
4058.18564,0.00423
4057.15538,0.00436
4056.12513,0.00441
4055.09487,0.00450
4054.06461,0.00447
4053.03435,0.00445
4052.00409,0.00441
4050.97384,0.00433
4049.94358,0.00440
4048.91332,0.00458
4047.88306,0.00476
4046.85281,0.00468
4045.82255,0.00448
4044.79229,0.00446
4043.76203,0.00428
4042.73177,0.00381
4041.70152,0.00347
4040.67126,0.00351
4039.64100,0.00388
4038.61074,0.00417
4037.58049,0.00410
4036.55023,0.00399
4035.51997,0.00404
4034.48971,0.00393
4033.45945,0.00389
4032.42920,0.00432
4031.39894,0.00454
4030.36868,0.00406
4029.33842,0.00372
4028.30816,0.00381
4027.27791,0.00413
4026.24765,0.00471
4025.21739,0.00519
4024.18713,0.00498
4023.15688,0.00429
4022.12662,0.00375
4021.09636,0.00357
4020.06610,0.00379
4019.03584,0.00381
4018.00559,0.00359
4016.97533,0.00390
4015.94507,0.00459
4014.91481,0.00482
4013.88455,0.00440
4012.85430,0.00397
4011.82404,0.00395
4010.79378,0.00423
4009.76352,0.00453
4008.73327,0.00444
4007.70301,0.00428
4006.67275,0.00444
4005.64249,0.00453
4004.61223,0.00444
4003.58198,0.00403
4002.55172,0.00354
4001.52146,0.00359
4000.49120,0.00398
3999.46095,0.00451
3998.43069,0.00488
3997.40043,0.00481
3996.37017,0.00477
3995.33991,0.00492
3994.30966,0.00481
3993.27940,0.00454
3992.24914,0.00456
3991.21888,0.00464
3990.18862,0.00445
3989.15837,0.00419
3988.12811,0.00391
3987.09785,0.00369
3986.06759,0.00391
3985.03734,0.00448
3984.00708,0.00494
3982.97682,0.00492
3981.94656,0.00442
3980.91630,0.00389
3979.88605,0.00371
3978.85579,0.00380
3977.82553,0.00416
3976.79527,0.00486
3975.76501,0.00527
3974.73476,0.00503
3973.70450,0.00468
3972.67424,0.00430
3971.64398,0.00370
3970.61373,0.00357
3969.58347,0.00405
3968.55321,0.00457
3967.52295,0.00496
3966.49269,0.00499
3965.46244,0.00442
3964.43218,0.00375
3963.40192,0.00375
3962.37166,0.00436
3961.34140,0.00482
3960.31115,0.00445
3959.28089,0.00396
3958.25063,0.00427
3957.22037,0.00478
3956.19012,0.00477
3955.15986,0.00459
3954.12960,0.00453
3953.09934,0.00458
3952.06908,0.00490
3951.03883,0.00498
3950.00857,0.00448
3948.97831,0.00416
3947.94805,0.00425
3946.91780,0.00435
3945.88754,0.00448
3944.85728,0.00452
3943.82702,0.00435
3942.79676,0.00424
3941.76651,0.00440
3940.73625,0.00462
3939.70599,0.00473
3938.67573,0.00466
3937.64547,0.00435
3936.61522,0.00405
3935.58496,0.00410
3934.55470,0.00418
3933.52444,0.00376
3932.49419,0.00344
3931.46393,0.00387
3930.43367,0.00408
3929.40341,0.00366
3928.37315,0.00338
3927.34290,0.00352
3926.31264,0.00400
3925.28238,0.00451
3924.25212,0.00455
3923.22186,0.00430
3922.19161,0.00391
3921.16135,0.00367
3920.13109,0.00407
3919.10083,0.00440
3918.07058,0.00433
3917.04032,0.00420
3916.01006,0.00403
3914.97980,0.00396
3913.94954,0.00389
3912.91929,0.00373
3911.88903,0.00376
3910.85877,0.00400
3909.82851,0.00416
3908.79825,0.00394
3907.76800,0.00354
3906.73774,0.00349
3905.70748,0.00375
3904.67722,0.00378
3903.64697,0.00374
3902.61671,0.00397
3901.58645,0.00402
3900.55619,0.00380
3899.52593,0.00396
3898.49568,0.00436
3897.46542,0.00448
3896.43516,0.00459
3895.40490,0.00456
3894.37465,0.00403
3893.34439,0.00337
3892.31413,0.00287
3891.28387,0.00268
3890.25361,0.00320
3889.22336,0.00385
3888.19310,0.00392
3887.16284,0.00380
3886.13258,0.00402
3885.10232,0.00457
3884.07207,0.00461
3883.04181,0.00400
3882.01155,0.00357
3880.98129,0.00356
3879.95104,0.00382
3878.92078,0.00382
3877.89052,0.00352
3876.86026,0.00372
3875.83000,0.00437
3874.79975,0.00459
3873.76949,0.00414
3872.73923,0.00388
3871.70897,0.00412
3870.67871,0.00442
3869.64846,0.00432
3868.61820,0.00407
3867.58794,0.00418
3866.55768,0.00422
3865.52743,0.00398
3864.49717,0.00403
3863.46691,0.00417
3862.43665,0.00390
3861.40639,0.00363
3860.37614,0.00354
3859.34588,0.00339
3858.31562,0.00349
3857.28536,0.00393
3856.25510,0.00392
3855.22485,0.00373
3854.19459,0.00442
3853.16433,0.00502
3852.13407,0.00509
3851.10382,0.00526
3850.07356,0.00483
3849.04330,0.00415
3848.01304,0.00407
3846.98278,0.00433
3845.95253,0.00424
3844.92227,0.00394
3843.89201,0.00404
3842.86175,0.00449
3841.83150,0.00485
3840.80124,0.00496
3839.77098,0.00495
3838.74072,0.00505
3837.71046,0.00502
3836.68021,0.00490
3835.64995,0.00471
3834.61969,0.00423
3833.58943,0.00376
3832.55917,0.00355
3831.52892,0.00348
3830.49866,0.00327
3829.46840,0.00325
3828.43814,0.00383
3827.40789,0.00443
3826.37763,0.00468
3825.34737,0.00466
3824.31711,0.00417
3823.28685,0.00353
3822.25660,0.00338
3821.22634,0.00403
3820.19608,0.00463
3819.16582,0.00454
3818.13556,0.00438
3817.10531,0.00442
3816.07505,0.00465
3815.04479,0.00479
3814.01453,0.00458
3812.98428,0.00434
3811.95402,0.00444
3810.92376,0.00456
3809.89350,0.00448
3808.86324,0.00461
3807.83299,0.00500
3806.80273,0.00528
3805.77247,0.00533
3804.74221,0.00535
3803.71195,0.00527
3802.68170,0.00507
3801.65144,0.00500
3800.62118,0.00511
3799.59092,0.00526
3798.56067,0.00546
3797.53041,0.00534
3796.50015,0.00467
3795.46989,0.00422
3794.43963,0.00440
3793.40938,0.00476
3792.37912,0.00487
3791.34886,0.00479
3790.31860,0.00487
3789.28835,0.00481
3788.25809,0.00452
3787.22783,0.00467
3786.19757,0.00535
3785.16731,0.00588
3784.13706,0.00581
3783.10680,0.00531
3782.07654,0.00507
3781.04628,0.00526
3780.01602,0.00525
3778.98577,0.00493
3777.95551,0.00500
3776.92525,0.00512
3775.89499,0.00482
3774.86474,0.00479
3773.83448,0.00501
3772.80422,0.00490
3771.77396,0.00444
3770.74370,0.00401
3769.71345,0.00461
3768.68319,0.00572
3767.65293,0.00605
3766.62267,0.00610
3765.59241,0.00607
3764.56216,0.00570
3763.53190,0.00572
3762.50164,0.00637
3761.47138,0.00688
3760.44113,0.00674
3759.41087,0.00651
3758.38061,0.00637
3757.35035,0.00583
3756.32009,0.00539
3755.28984,0.00559
3754.25958,0.00581
3753.22932,0.00549
3752.19906,0.00515
3751.16880,0.00582
3750.13855,0.00665
3749.10829,0.00674
3748.07803,0.00650
3747.04777,0.00626
3746.01752,0.00626
3744.98726,0.00691
3743.95700,0.00700
3742.92674,0.00596
3741.89648,0.00577
3740.86623,0.00645
3739.83597,0.00696
3738.80571,0.00727
3737.77545,0.00759
3736.74520,0.00749
3735.71494,0.00702
3734.68468,0.00686
3733.65442,0.00703
3732.62416,0.00706
3731.59391,0.00691
3730.56365,0.00667
3729.53339,0.00659
3728.50313,0.00672
3727.47287,0.00672
3726.44262,0.00684
3725.41236,0.00724
3724.38210,0.00732
3723.35184,0.00707
3722.32159,0.00702
3721.29133,0.00741
3720.26107,0.00805
3719.23081,0.00879
3718.20055,0.00929
3717.17030,0.00947
3716.14004,0.00952
3715.10978,0.00931
3714.07952,0.00912
3713.04926,0.00925
3712.01901,0.00950
3710.98875,0.00975
3709.95849,0.01005
3708.92823,0.01007
3707.89798,0.00995
3706.86772,0.01024
3705.83746,0.01074
3704.80720,0.01083
3703.77694,0.01051
3702.74669,0.01037
3701.71643,0.01071
3700.68617,0.01112
3699.65591,0.01133
3698.62565,0.01157
3697.59540,0.01207
3696.56514,0.01248
3695.53488,0.01250
3694.50462,0.01266
3693.47437,0.01335
3692.44411,0.01392
3691.41385,0.01398
3690.38359,0.01426
3689.35333,0.01466
3688.32308,0.01472
3687.29282,0.01551
3686.26256,0.01666
3685.23230,0.01702
3684.20205,0.01689
3683.17179,0.01696
3682.14153,0.01727
3681.11127,0.01806
3680.08101,0.01934
3679.05076,0.02001
3678.02050,0.02012
3676.99024,0.02075
3675.95998,0.02169
3674.92972,0.02199
3673.89947,0.02244
3672.86921,0.02317
3671.83895,0.02332
3670.80869,0.02363
3669.77844,0.02543
3668.74818,0.02705
3667.71792,0.02738
3666.68766,0.02762
3665.65740,0.02804
3664.62715,0.02846
3663.59689,0.02938
3662.56663,0.03077
3661.53637,0.03215
3660.50611,0.03328
3659.47586,0.03404
3658.44560,0.03428
3657.41534,0.03434
3656.38508,0.03487
3655.35483,0.03589
3654.32457,0.03716
3653.29431,0.03885
3652.26405,0.04008
3651.23379,0.04013
3650.20354,0.04011
3649.17328,0.04096
3648.14302,0.04208
3647.11276,0.04314
3646.08250,0.04430
3645.05225,0.04536
3644.02199,0.04604
3642.99173,0.04657
3641.96147,0.04734
3640.93122,0.04828
3639.90096,0.04918
3638.87070,0.05015
3637.84044,0.05128
3636.81018,0.05212
3635.77993,0.05280
3634.74967,0.05393
3633.71941,0.05504
3632.68915,0.05547
3631.65890,0.05587
3630.62864,0.05667
3629.59838,0.05767
3628.56812,0.05848
3627.53786,0.05918
3626.50761,0.06019
3625.47735,0.06115
3624.44709,0.06196
3623.41683,0.06296
3622.38657,0.06399
3621.35632,0.06462
3620.32606,0.06483
3619.29580,0.06530
3618.26554,0.06660
3617.23529,0.06809
3616.20503,0.06908
3615.17477,0.06962
3614.14451,0.06998
3613.11425,0.07076
3612.08400,0.07209
3611.05374,0.07335
3610.02348,0.07440
3608.99322,0.07552
3607.96296,0.07649
3606.93271,0.07713
3605.90245,0.07773
3604.87219,0.07839
3603.84193,0.07924
3602.81168,0.08054
3601.78142,0.08162
3600.75116,0.08204
3599.72090,0.08290
3598.69064,0.08411
3597.66039,0.08449
3596.63013,0.08486
3595.59987,0.08632
3594.56961,0.08808
3593.53936,0.08919
3592.50910,0.09022
3591.47884,0.09133
3590.44858,0.09205
3589.41832,0.09290
3588.38807,0.09395
3587.35781,0.09422
3586.32755,0.09474
3585.29729,0.09644
3584.26703,0.09829
3583.23678,0.09955
3582.20652,0.10020
3581.17626,0.10091
3580.14600,0.10212
3579.11575,0.10317
3578.08549,0.10382
3577.05523,0.10482
3576.02497,0.10638
3574.99471,0.10762
3573.96446,0.10844
3572.93420,0.10967
3571.90394,0.11137
3570.87368,0.11301
3569.84342,0.11425
3568.81317,0.11522
3567.78291,0.11609
3566.75265,0.11707
3565.72239,0.11819
3564.69214,0.11881
3563.66188,0.11928
3562.63162,0.12053
3561.60136,0.12233
3560.57110,0.12396
3559.54085,0.12519
3558.51059,0.12607
3557.48033,0.12698
3556.45007,0.12808
3555.41981,0.12906
3554.38956,0.13008
3553.35930,0.13149
3552.32904,0.13257
3551.29878,0.13301
3550.26853,0.13365
3549.23827,0.13498
3548.20801,0.13665
3547.17775,0.13812
3546.14749,0.13930
3545.11724,0.14037
3544.08698,0.14147
3543.05672,0.14264
3542.02646,0.14386
3540.99621,0.14503
3539.96595,0.14632
3538.93569,0.14771
3537.90543,0.14892
3536.87517,0.15028
3535.84492,0.15180
3534.81466,0.15309
3533.78440,0.15417
3532.75414,0.15518
3531.72388,0.15608
3530.69363,0.15694
3529.66337,0.15806
3528.63311,0.15943
3527.60285,0.16087
3526.57260,0.16193
3525.54234,0.16232
3524.51208,0.16299
3523.48182,0.16426
3522.45156,0.16532
3521.42131,0.16614
3520.39105,0.16705
3519.36079,0.16841
3518.33053,0.17021
3517.30027,0.17171
3516.27002,0.17278
3515.23976,0.17384
3514.20950,0.17505
3513.17924,0.17649
3512.14899,0.17797
3511.11873,0.17876
3510.08847,0.17923
3509.05821,0.18047
3508.02795,0.18206
3506.99770,0.18337
3505.96744,0.18416
3504.93718,0.18477
3503.90692,0.18606
3502.87666,0.18769
3501.84641,0.18872
3500.81615,0.18948
3499.78589,0.19068
3498.75563,0.19198
3497.72538,0.19317
3496.69512,0.19449
3495.66486,0.19580
3494.63460,0.19683
3493.60434,0.19773
3492.57409,0.19888
3491.54383,0.20014
3490.51357,0.20097
3489.48331,0.20174
3488.45306,0.20305
3487.42280,0.20460
3486.39254,0.20592
3485.36228,0.20717
3484.33202,0.20864
3483.30177,0.21009
3482.27151,0.21144
3481.24125,0.21275
3480.21099,0.21370
3479.18073,0.21442
3478.15048,0.21529
3477.12022,0.21595
3476.08996,0.21660
3475.05970,0.21794
3474.02945,0.21950
3472.99919,0.22078
3471.96893,0.22195
3470.93867,0.22279
3469.90841,0.22337
3468.87816,0.22404
3467.84790,0.22466
3466.81764,0.22582
3465.78738,0.22796
3464.75712,0.22973
3463.72687,0.23049
3462.69661,0.23122
3461.66635,0.23244
3460.63609,0.23385
3459.60584,0.23530
3458.57558,0.23691
3457.54532,0.23841
3456.51506,0.23969
3455.48480,0.24090
3454.45455,0.24219
3453.42429,0.24341
3452.39403,0.24432
3451.36377,0.24525
3450.33351,0.24631
3449.30326,0.24753
3448.27300,0.24867
3447.24274,0.24931
3446.21248,0.25002
3445.18223,0.25105
3444.15197,0.25213
3443.12171,0.25343
3442.09145,0.25492
3441.06119,0.25620
3440.03094,0.25701
3439.00068,0.25755
3437.97042,0.25842
3436.94016,0.25997
3435.90991,0.26164
3434.87965,0.26280
3433.84939,0.26393
3432.81913,0.26521
3431.78887,0.26591
3430.75862,0.26638
3429.72836,0.26783
3428.69810,0.26976
3427.66784,0.27064
3426.63758,0.27090
3425.60733,0.27208
3424.57707,0.27417
3423.54681,0.27592
3422.51655,0.27671
3421.48630,0.27693
3420.45604,0.27741
3419.42578,0.27844
3418.39552,0.27947
3417.36526,0.28047
3416.33501,0.28173
3415.30475,0.28318
3414.27449,0.28458
3413.24423,0.28548
3412.21397,0.28590
3411.18372,0.28638
3410.15346,0.28725
3409.12320,0.28838
3408.09294,0.28988
3407.06269,0.29112
3406.03243,0.29125
3405.00217,0.29130
3403.97191,0.29204
3402.94165,0.29285
3401.91140,0.29340
3400.88114,0.29413
3399.85088,0.29525
3398.82062,0.29642
3397.79036,0.29714
3396.76011,0.29736
3395.72985,0.29779
3394.69959,0.29877
3393.66933,0.29989
3392.63908,0.30074
3391.60882,0.30078
3390.57856,0.30044
3389.54830,0.30096
3388.51804,0.30207
3387.48779,0.30298
3386.45753,0.30373
3385.42727,0.30406
3384.39701,0.30391
3383.36676,0.30400
3382.33650,0.30447
3381.30624,0.30479
3380.27598,0.30523
3379.24572,0.30610
3378.21547,0.30658
3377.18521,0.30665
3376.15495,0.30724
3375.12469,0.30789
3374.09443,0.30758
3373.06418,0.30726
3372.03392,0.30795
3371.00366,0.30830
3369.97340,0.30766
3368.94315,0.30740
3367.91289,0.30765
3366.88263,0.30758
3365.85237,0.30772
3364.82211,0.30838
3363.79186,0.30874
3362.76160,0.30887
3361.73134,0.30963
3360.70108,0.31035
3359.67082,0.30982
3358.64057,0.30867
3357.61031,0.30854
3356.58005,0.30940
3355.54979,0.30968
3354.51954,0.30917
3353.48928,0.30883
3352.45902,0.30863
3351.42876,0.30839
3350.39850,0.30839
3349.36825,0.30875
3348.33799,0.30926
3347.30773,0.30936
3346.27747,0.30887
3345.24721,0.30817
3344.21696,0.30771
3343.18670,0.30757
3342.15644,0.30737
3341.12618,0.30728
3340.09593,0.30751
3339.06567,0.30742
3338.03541,0.30689
3337.00515,0.30663
3335.97489,0.30662
3334.94464,0.30636
3333.91438,0.30602
3332.88412,0.30593
3331.85386,0.30568
3330.82361,0.30502
3329.79335,0.30440
3328.76309,0.30433
3327.73283,0.30485
3326.70257,0.30501
3325.67232,0.30455
3324.64206,0.30422
3323.61180,0.30439
3322.58154,0.30451
3321.55128,0.30383
3320.52103,0.30300
3319.49077,0.30266
3318.46051,0.30257
3317.43025,0.30237
3316.40000,0.30209
3315.36974,0.30213
3314.33948,0.30208
3313.30922,0.30191
3312.27896,0.30214
3311.24871,0.30207
3310.21845,0.30111
3309.18819,0.30013
3308.15793,0.29969
3307.12767,0.29919
3306.09742,0.29875
3305.06716,0.29906
3304.03690,0.29959
3303.00664,0.29931
3301.97639,0.29863
3300.94613,0.29845
3299.91587,0.29896
3298.88561,0.29972
3297.85535,0.29977
3296.82510,0.29890
3295.79484,0.29826
3294.76458,0.29821
3293.73432,0.29814
3292.70406,0.29790
3291.67381,0.29766
3290.64355,0.29790
3289.61329,0.29842
3288.58303,0.29813
3287.55278,0.29754
3286.52252,0.29767
3285.49226,0.29766
3284.46200,0.29714
3283.43174,0.29680
3282.40149,0.29645
3281.37123,0.29616
3280.34097,0.29604
3279.31071,0.29605
3278.28046,0.29626
3277.25020,0.29610
3276.21994,0.29560
3275.18968,0.29577
3274.15942,0.29625
3273.12917,0.29576
3272.09891,0.29478
3271.06865,0.29416
3270.03839,0.29404
3269.00813,0.29444
3267.97788,0.29467
3266.94762,0.29434
3265.91736,0.29397
3264.88710,0.29369
3263.85685,0.29304
3262.82659,0.29260
3261.79633,0.29249
3260.76607,0.29196
3259.73581,0.29140
3258.70556,0.29115
3257.67530,0.29087
3256.64504,0.29060
3255.61478,0.29048
3254.58452,0.29031
3253.55427,0.29018
3252.52401,0.29037
3251.49375,0.29030
3250.46349,0.28951
3249.43324,0.28842
3248.40298,0.28743
3247.37272,0.28699
3246.34246,0.28656
3245.31220,0.28544
3244.28195,0.28451
3243.25169,0.28469
3242.22143,0.28504
3241.19117,0.28455
3240.16092,0.28414
3239.13066,0.28410
3238.10040,0.28359
3237.07014,0.28263
3236.03988,0.28173
3235.00963,0.28127
3233.97937,0.28064
3232.94911,0.27944
3231.91885,0.27855
3230.88859,0.27799
3229.85834,0.27727
3228.82808,0.27687
3227.79782,0.27691
3226.76756,0.27676
3225.73731,0.27598
3224.70705,0.27465
3223.67679,0.27328
3222.64653,0.27179
3221.61627,0.27049
3220.58602,0.27011
3219.55576,0.26989
3218.52550,0.26880
3217.49524,0.26747
3216.46498,0.26671
3215.43473,0.26606
3214.40447,0.26488
3213.37421,0.26347
3212.34395,0.26277
3211.31370,0.26259
3210.28344,0.26182
3209.25318,0.26076
3208.22292,0.25987
3207.19266,0.25891
3206.16241,0.25779
3205.13215,0.25630
3204.10189,0.25471
3203.07163,0.25355
3202.04137,0.25274
3201.01112,0.25164
3199.98086,0.25001
3198.95060,0.24868
3197.92034,0.24775
3196.89009,0.24636
3195.85983,0.24491
3194.82957,0.24388
3193.79931,0.24258
3192.76905,0.24095
3191.73880,0.23964
3190.70854,0.23839
3189.67828,0.23690
3188.64802,0.23570
3187.61777,0.23479
3186.58751,0.23345
3185.55725,0.23160
3184.52699,0.23002
3183.49673,0.22903
3182.46648,0.22781
3181.43622,0.22618
3180.40596,0.22473
3179.37570,0.22340
3178.34544,0.22204
3177.31519,0.22061
3176.28493,0.21905
3175.25467,0.21802
3174.22441,0.21752
3173.19416,0.21644
3172.16390,0.21464
3171.13364,0.21277
3170.10338,0.21091
3169.07312,0.20914
3168.04287,0.20761
3167.01261,0.20638
3165.98235,0.20543
3164.95209,0.20457
3163.92183,0.20336
3162.89158,0.20165
3161.86132,0.19990
3160.83106,0.19830
3159.80080,0.19689
3158.77055,0.19590
3157.74029,0.19484
3156.71003,0.19316
3155.67977,0.19117
3154.64951,0.18947
3153.61926,0.18818
3152.58900,0.18713
3151.55874,0.18583
3150.52848,0.18413
3149.49822,0.18275
3148.46797,0.18171
3147.43771,0.18024
3146.40745,0.17855
3145.37719,0.17719
3144.34694,0.17587
3143.31668,0.17442
3142.28642,0.17304
3141.25616,0.17165
3140.22590,0.17016
3139.19565,0.16869
3138.16539,0.16738
3137.13513,0.16605
3136.10487,0.16468
3135.07462,0.16342
3134.04436,0.16198
3133.01410,0.16020
3131.98384,0.15856
3130.95358,0.15716
3129.92333,0.15565
3128.89307,0.15440
3127.86281,0.15363
3126.83255,0.15296
3125.80229,0.15202
3124.77204,0.15059
3123.74178,0.14889
3122.71152,0.14744
3121.68126,0.14619
3120.65101,0.14485
3119.62075,0.14361
3118.59049,0.14248
3117.56023,0.14137
3116.52997,0.14025
3115.49972,0.13883
3114.46946,0.13727
3113.43920,0.13608
3112.40894,0.13509
3111.37868,0.13369
3110.34843,0.13206
3109.31817,0.13073
3108.28791,0.12967
3107.25765,0.12871
3106.22740,0.12791
3105.19714,0.12722
3104.16688,0.12628
3103.13662,0.12521
3102.10636,0.12428
3101.07611,0.12320
3100.04585,0.12186
3099.01559,0.12058
3097.98533,0.11924
3096.95507,0.11767
3095.92482,0.11637
3094.89456,0.11557
3093.86430,0.11478
3092.83404,0.11377
3091.80379,0.11258
3090.77353,0.11138
3089.74327,0.11031
3088.71301,0.10907
3087.68275,0.10785
3086.65250,0.10715
3085.62224,0.10657
3084.59198,0.10550
3083.56172,0.10414
3082.53147,0.10300
3081.50121,0.10235
3080.47095,0.10175
3079.44069,0.10090
3078.41043,0.09980
3077.38018,0.09839
3076.34992,0.09707
3075.31966,0.09619
3074.28940,0.09546
3073.25914,0.09462
3072.22889,0.09384
3071.19863,0.09281
3070.16837,0.09143
3069.13811,0.09044
3068.10786,0.08989
3067.07760,0.08913
3066.04734,0.08824
3065.01708,0.08778
3063.98682,0.08749
3062.95657,0.08656
3061.92631,0.08519
3060.89605,0.08420
3059.86579,0.08364
3058.83553,0.08290
3057.80528,0.08195
3056.77502,0.08126
3055.74476,0.08092
3054.71450,0.08047
3053.68425,0.07967
3052.65399,0.07892
3051.62373,0.07835
3050.59347,0.07762
3049.56321,0.07660
3048.53296,0.07540
3047.50270,0.07426
3046.47244,0.07338
3045.44218,0.07295
3044.41192,0.07281
3043.38167,0.07228
3042.35141,0.07138
3041.32115,0.07062
3040.29089,0.07005
3039.26064,0.06957
3038.23038,0.06912
3037.20012,0.06825
3036.16986,0.06712
3035.13960,0.06635
3034.10935,0.06582
3033.07909,0.06521
3032.04883,0.06460
3031.01857,0.06380
3029.98832,0.06274
3028.95806,0.06216
3027.92780,0.06224
3026.89754,0.06199
3025.86728,0.06115
3024.83703,0.06049
3023.80677,0.05999
3022.77651,0.05917
3021.74625,0.05837
3020.71599,0.05779
3019.68574,0.05736
3018.65548,0.05720
3017.62522,0.05701
3016.59496,0.05655
3015.56471,0.05577
3014.53445,0.05492
3013.50419,0.05446
3012.47393,0.05415
3011.44367,0.05356
3010.41342,0.05288
3009.38316,0.05241
3008.35290,0.05220
3007.32264,0.05199
3006.29238,0.05135
3005.26213,0.05049
3004.23187,0.05007
3003.20161,0.04996
3002.17135,0.04974
3001.14110,0.04939
3000.11084,0.04908
2999.08058,0.04898
2998.05032,0.04876
2997.02006,0.04817
2995.98981,0.04765
2994.95955,0.04742
2993.92929,0.04714
2992.89903,0.04672
2991.86877,0.04640
2990.83852,0.04629
2989.80826,0.04645
2988.77800,0.04670
2987.74774,0.04663
2986.71749,0.04619
2985.68723,0.04586
2984.65697,0.04588
2983.62671,0.04612
2982.59645,0.04653
2981.56620,0.04682
2980.53594,0.04695
2979.50568,0.04714
2978.47542,0.04750
2977.44517,0.04797
2976.41491,0.04827
2975.38465,0.04827
2974.35439,0.04828
2973.32413,0.04858
2972.29388,0.04898
2971.26362,0.04926
2970.23336,0.04943
2969.20310,0.04959
2968.17284,0.04990
2967.14259,0.05028
2966.11233,0.05054
2965.08207,0.05098
2964.05181,0.05156
2963.02156,0.05186
2961.99130,0.05211
2960.96104,0.05253
2959.93078,0.05291
2958.90052,0.05299
2957.87027,0.05273
2956.84001,0.05269
2955.80975,0.05315
2954.77949,0.05351
2953.74923,0.05354
2952.71898,0.05372
2951.68872,0.05416
2950.65846,0.05445
2949.62820,0.05463
2948.59795,0.05493
2947.56769,0.05511
2946.53743,0.05514
2945.50717,0.05513
2944.47691,0.05504
2943.44666,0.05513
2942.41640,0.05550
2941.38614,0.05570
2940.35588,0.05569
2939.32562,0.05593
2938.29537,0.05638
2937.26511,0.05656
2936.23485,0.05658
2935.20459,0.05682
2934.17434,0.05714
2933.14408,0.05728
2932.11382,0.05725
2931.08356,0.05735
2930.05330,0.05779
2929.02305,0.05836
2927.99279,0.05880
2926.96253,0.05919
2925.93227,0.05975
2924.90202,0.06011
2923.87176,0.05999
2922.84150,0.05986
2921.81124,0.05974
2920.78098,0.05932
2919.75073,0.05880
2918.72047,0.05853
2917.69021,0.05849
2916.65995,0.05839
2915.62969,0.05797
2914.59944,0.05733
2913.56918,0.05679
2912.53892,0.05655
2911.50866,0.05632
2910.47841,0.05592
2909.44815,0.05546
2908.41789,0.05494
2907.38763,0.05432
2906.35737,0.05375
2905.32712,0.05328
2904.29686,0.05251
2903.26660,0.05152
2902.23634,0.05087
2901.20608,0.05052
2900.17583,0.05025
2899.14557,0.05003
2898.11531,0.04986
2897.08505,0.04979
2896.05480,0.04985
2895.02454,0.05004
2893.99428,0.05013
2892.96402,0.05010
2891.93376,0.05023
2890.90351,0.05058
2889.87325,0.05093
2888.84299,0.05118
2887.81273,0.05130
2886.78247,0.05147
2885.75222,0.05169
2884.72196,0.05181
2883.69170,0.05200
2882.66144,0.05227
2881.63119,0.05242
2880.60093,0.05233
2879.57067,0.05174
2878.54041,0.05073
2877.51015,0.04998
2876.47990,0.04946
2875.44964,0.04854
2874.41938,0.04740
2873.38912,0.04657
2872.35887,0.04585
2871.32861,0.04477
2870.29835,0.04332
2869.26809,0.04194
2868.23783,0.04097
2867.20758,0.04014
2866.17732,0.03929
2865.14706,0.03844
2864.11680,0.03745
2863.08654,0.03632
2862.05629,0.03527
2861.02603,0.03427
2859.99577,0.03343
2858.96551,0.03306
2857.93526,0.03274
2856.90500,0.03190
2855.87474,0.03094
2854.84448,0.03017
2853.81422,0.02939
2852.78397,0.02869
2851.75371,0.02809
2850.72345,0.02768
2849.69319,0.02718
2848.66293,0.02626
2847.63268,0.02561
2846.60242,0.02566
2845.57216,0.02568
2844.54190,0.02518
2843.51165,0.02472
2842.48139,0.02459
2841.45113,0.02438
2840.42087,0.02411
2839.39061,0.02395
2838.36036,0.02376
2837.33010,0.02351
2836.29984,0.02329
2835.26958,0.02300
2834.23933,0.02248
2833.20907,0.02196
2832.17881,0.02162
2831.14855,0.02137
2830.11829,0.02134
2829.08804,0.02141
2828.05778,0.02123
2827.02752,0.02103
2825.99726,0.02095
2824.96700,0.02077
2823.93675,0.02048
2822.90649,0.02015
2821.87623,0.01983
2820.84597,0.01962
2819.81572,0.01935
2818.78546,0.01894
2817.75520,0.01863
2816.72494,0.01837
2815.69468,0.01805
2814.66443,0.01802
2813.63417,0.01826
2812.60391,0.01837
2811.57365,0.01812
2810.54339,0.01767
2809.51314,0.01737
2808.48288,0.01722
2807.45262,0.01696
2806.42236,0.01674
2805.39211,0.01671
2804.36185,0.01654
2803.33159,0.01608
2802.30133,0.01568
2801.27107,0.01553
2800.24082,0.01544
2799.21056,0.01526
2798.18030,0.01498
2797.15004,0.01475
2796.11978,0.01463
2795.08953,0.01448
2794.05927,0.01446
2793.02901,0.01465
2791.99875,0.01479
2790.96850,0.01487
2789.93824,0.01484
2788.90798,0.01464
2787.87772,0.01442
2786.84746,0.01417
2785.81721,0.01379
2784.78695,0.01353
2783.75669,0.01359
2782.72643,0.01365
2781.69618,0.01360
2780.66592,0.01349
2779.63566,0.01316
2778.60540,0.01283
2777.57514,0.01277
2776.54489,0.01276
2775.51463,0.01269
2774.48437,0.01270
2773.45411,0.01282
2772.42385,0.01282
2771.39360,0.01252
2770.36334,0.01227
2769.33308,0.01222
2768.30282,0.01208
2767.27257,0.01192
2766.24231,0.01200
2765.21205,0.01212
2764.18179,0.01199
2763.15153,0.01180
2762.12128,0.01185
2761.09102,0.01200
2760.06076,0.01200
2759.03050,0.01195
2758.00024,0.01205
2756.96999,0.01202
2755.93973,0.01158
2754.90947,0.01121
2753.87921,0.01134
2752.84896,0.01166
2751.81870,0.01188
2750.78844,0.01179
2749.75818,0.01126
2748.72792,0.01090
2747.69767,0.01111
2746.66741,0.01129
2745.63715,0.01104
2744.60689,0.01071
2743.57663,0.01057
2742.54638,0.01041
2741.51612,0.01026
2740.48586,0.01048
2739.45560,0.01081
2738.42535,0.01070
2737.39509,0.01048
2736.36483,0.01061
2735.33457,0.01083
2734.30431,0.01075
2733.27406,0.01041
2732.24380,0.01026
2731.21354,0.01023
2730.18328,0.00997
2729.15303,0.00960
2728.12277,0.00947
2727.09251,0.00958
2726.06225,0.00958
2725.03199,0.00941
2724.00174,0.00928
2722.97148,0.00934
2721.94122,0.00939
2720.91096,0.00922
2719.88070,0.00912
2718.85045,0.00920
2717.82019,0.00917
2716.78993,0.00916
2715.75967,0.00928
2714.72942,0.00919
2713.69916,0.00886
2712.66890,0.00863
2711.63864,0.00881
2710.60838,0.00921
2709.57813,0.00925
2708.54787,0.00908
2707.51761,0.00899
2706.48735,0.00880
2705.45709,0.00863
2704.42684,0.00864
2703.39658,0.00862
2702.36632,0.00859
2701.33606,0.00868
2700.30581,0.00871
2699.27555,0.00863
2698.24529,0.00845
2697.21503,0.00818
2696.18477,0.00816
2695.15452,0.00839
2694.12426,0.00846
2693.09400,0.00833
2692.06374,0.00813
2691.03348,0.00801
2690.00323,0.00805
2688.97297,0.00819
2687.94271,0.00829
2686.91245,0.00819
2685.88220,0.00794
2684.85194,0.00776
2683.82168,0.00783
2682.79142,0.00801
2681.76116,0.00793
2680.73091,0.00758
2679.70065,0.00746
2678.67039,0.00766
2677.64013,0.00776
2676.60988,0.00778
2675.57962,0.00781
2674.54936,0.00757
2673.51910,0.00723
2672.48884,0.00710
2671.45859,0.00719
2670.42833,0.00735
2669.39807,0.00755
2668.36781,0.00772
2667.33755,0.00775
2666.30730,0.00778
2665.27704,0.00788
2664.24678,0.00778
2663.21652,0.00740
2662.18627,0.00715
2661.15601,0.00721
2660.12575,0.00740
2659.09549,0.00758
2658.06523,0.00762
2657.03498,0.00757
2656.00472,0.00755
2654.97446,0.00754
2653.94420,0.00741
2652.91394,0.00721
2651.88369,0.00712
2650.85343,0.00718
2649.82317,0.00728
2648.79291,0.00733
2647.76266,0.00738
2646.73240,0.00739
2645.70214,0.00736
2644.67188,0.00737
2643.64162,0.00731
2642.61137,0.00713
2641.58111,0.00705
2640.55085,0.00700
2639.52059,0.00681
2638.49033,0.00666
2637.46008,0.00657
2636.42982,0.00644
2635.39956,0.00649
2634.36930,0.00664
2633.33905,0.00667
2632.30879,0.00677
2631.27853,0.00693
2630.24827,0.00698
2629.21801,0.00688
2628.18776,0.00655
2627.15750,0.00606
2626.12724,0.00577
2625.09698,0.00597
2624.06673,0.00639
2623.03647,0.00673
2622.00621,0.00702
2620.97595,0.00705
2619.94569,0.00696
2618.91544,0.00692
2617.88518,0.00652
2616.85492,0.00582
2615.82466,0.00558
2614.79440,0.00588
2613.76415,0.00611
2612.73389,0.00614
2611.70363,0.00629
2610.67337,0.00659
2609.64312,0.00688
2608.61286,0.00697
2607.58260,0.00684
2606.55234,0.00677
2605.52208,0.00687
2604.49183,0.00683
2603.46157,0.00635
2602.43131,0.00588
2601.40105,0.00587
2600.37079,0.00579
2599.34054,0.00565
2598.31028,0.00592
2597.28002,0.00622
2596.24976,0.00619
2595.21951,0.00615
2594.18925,0.00644
2593.15899,0.00644
2592.12873,0.00600
2591.09847,0.00589
2590.06822,0.00606
2589.03796,0.00608
2588.00770,0.00605
2586.97744,0.00619
2585.94718,0.00660
2584.91693,0.00707
2583.88667,0.00716
2582.85641,0.00675
2581.82615,0.00618
2580.79590,0.00557
2579.76564,0.00518
2578.73538,0.00555
2577.70512,0.00625
2576.67486,0.00652
2575.64461,0.00658
2574.61435,0.00666
2573.58409,0.00654
2572.55383,0.00609
2571.52358,0.00544
2570.49332,0.00521
2569.46306,0.00552
2568.43280,0.00588
2567.40254,0.00629
2566.37229,0.00665
2565.34203,0.00662
2564.31177,0.00629
2563.28151,0.00574
2562.25125,0.00542
2561.22100,0.00587
2560.19074,0.00671
2559.16048,0.00704
2558.13022,0.00666
2557.09997,0.00613
2556.06971,0.00577
2555.03945,0.00552
2554.00919,0.00551
2552.97893,0.00579
2551.94868,0.00612
2550.91842,0.00628
2549.88816,0.00628
2548.85790,0.00634
2547.82764,0.00655
2546.79739,0.00680
2545.76713,0.00702
2544.73687,0.00694
2543.70661,0.00663
2542.67636,0.00649
2541.64610,0.00678
2540.61584,0.00735
2539.58558,0.00748
2538.55532,0.00695
2537.52507,0.00667
2536.49481,0.00705
2535.46455,0.00721
2534.43429,0.00673
2533.40403,0.00631
2532.37378,0.00629
2531.34352,0.00639
2530.31326,0.00652
2529.28300,0.00668
2528.25275,0.00650
2527.22249,0.00638
2526.19223,0.00696
2525.16197,0.00763
2524.13171,0.00744
2523.10146,0.00670
2522.07120,0.00662
2521.04094,0.00723
2520.01068,0.00755
2518.98043,0.00732
2517.95017,0.00692
2516.91991,0.00664
2515.88965,0.00643
2514.85939,0.00604
2513.82914,0.00553
2512.79888,0.00529
2511.76862,0.00550
2510.73836,0.00598
2509.70810,0.00640
2508.67785,0.00664
2507.64759,0.00706
2506.61733,0.00780
2505.58707,0.00824
2504.55682,0.00788
2503.52656,0.00709
2502.49630,0.00673
2501.46604,0.00675
2500.43578,0.00650
2499.40553,0.00607
2498.37527,0.00622
2497.34501,0.00690
2496.31475,0.00706
2495.28449,0.00665
2494.25424,0.00675
2493.22398,0.00727
2492.19372,0.00741
2491.16346,0.00725
2490.13321,0.00714
2489.10295,0.00710
2488.07269,0.00709
2487.04243,0.00705
2486.01217,0.00681
2484.98192,0.00639
2483.95166,0.00644
2482.92140,0.00689
2481.89114,0.00713
2480.86088,0.00738
2479.83063,0.00747
2478.80037,0.00703
2477.77011,0.00682
2476.73985,0.00729
2475.70960,0.00757
2474.67934,0.00732
2473.64908,0.00726
2472.61882,0.00750
2471.58856,0.00757
2470.55831,0.00744
2469.52805,0.00745
2468.49779,0.00779
2467.46753,0.00804
2466.43728,0.00786
2465.40702,0.00772
2464.37676,0.00767
2463.34650,0.00781
2462.31624,0.00835
2461.28599,0.00861
2460.25573,0.00800
2459.22547,0.00726
2458.19521,0.00745
2457.16495,0.00815
2456.13470,0.00835
2455.10444,0.00841
2454.07418,0.00883
2453.04392,0.00874
2452.01367,0.00788
2450.98341,0.00706
2449.95315,0.00680
2448.92289,0.00710
2447.89263,0.00762
2446.86238,0.00804
2445.83212,0.00805
2444.80186,0.00760
2443.77160,0.00743
2442.74134,0.00760
2441.71109,0.00767
2440.68083,0.00769
2439.65057,0.00756
2438.62031,0.00694
2437.59006,0.00645
2436.55980,0.00653
2435.52954,0.00676
2434.49928,0.00710
2433.46902,0.00769
2432.43877,0.00824
2431.40851,0.00827
2430.37825,0.00796
2429.34799,0.00795
2428.31774,0.00836
2427.28748,0.00863
2426.25722,0.00843
2425.22696,0.00812
2424.19670,0.00819
2423.16645,0.00854
2422.13619,0.00866
2421.10593,0.00849
2420.07567,0.00838
2419.04541,0.00831
2418.01516,0.00839
2416.98490,0.00861
2415.95464,0.00879
2414.92438,0.00878
2413.89413,0.00844
2412.86387,0.00840
2411.83361,0.00896
2410.80335,0.00925
2409.77309,0.00910
2408.74284,0.00922
2407.71258,0.00955
2406.68232,0.00945
2405.65206,0.00903
2404.62180,0.00897
2403.59155,0.00931
2402.56129,0.00955
2401.53103,0.00944
2400.50077,0.00907
2399.47052,0.00910
2398.44026,0.00946
2397.41000,0.00963
2396.37974,0.00957
2395.34948,0.00951
2394.31923,0.00950
2393.28897,0.00939
2392.25871,0.00945
2391.22845,0.00968
2390.19819,0.00973
2389.16794,0.00968
2388.13768,0.00968
2387.10742,0.00958
2386.07716,0.00930
2385.04691,0.00901
2384.01665,0.00900
2382.98639,0.00930
2381.95613,0.00961
2380.92587,0.00974
2379.89562,0.00987
2378.86536,0.01022
2377.83510,0.01055
2376.80484,0.01049
2375.77459,0.01042
2374.74433,0.01098
2373.71407,0.01169
2372.68381,0.01187
2371.65355,0.01221
2370.62330,0.01301
2369.59304,0.01324
2368.56278,0.01240
2367.53252,0.01134
2366.50226,0.01095
2365.47201,0.01118
2364.44175,0.01153
2363.41149,0.01231
2362.38123,0.01333
2361.35098,0.01390
2360.32072,0.01412
2359.29046,0.01339
2358.26020,0.01164
2357.22994,0.01041
2356.19969,0.01072
2355.16943,0.01180
2354.13917,0.01255
2353.10891,0.01280
2352.07865,0.01267
2351.04840,0.01229
2350.01814,0.01207
2348.98788,0.01223
2347.95762,0.01249
2346.92737,0.01256
2345.89711,0.01245
2344.86685,0.01227
2343.83659,0.01222
2342.80633,0.01216
2341.77608,0.01215
2340.74582,0.01280
2339.71556,0.01358
2338.68530,0.01370
2337.65504,0.01390
2336.62479,0.01441
2335.59453,0.01445
2334.56427,0.01387
2333.53401,0.01342
2332.50376,0.01374
2331.47350,0.01441
2330.44324,0.01428
2329.41298,0.01369
2328.38272,0.01364
2327.35247,0.01367
2326.32221,0.01309
2325.29195,0.01241
2324.26169,0.01206
2323.23144,0.01173
2322.20118,0.01179
2321.17092,0.01255
2320.14066,0.01332
2319.11040,0.01335
2318.08015,0.01288
2317.04989,0.01237
2316.01963,0.01209
2314.98937,0.01235
2313.95911,0.01255
2312.92886,0.01251
2311.89860,0.01282
2310.86834,0.01312
2309.83808,0.01309
2308.80783,0.01315
2307.77757,0.01342
2306.74731,0.01341
2305.71705,0.01289
2304.68679,0.01267
2303.65654,0.01296
2302.62628,0.01287
2301.59602,0.01230
2300.56576,0.01187
2299.53550,0.01191
2298.50525,0.01231
2297.47499,0.01271
2296.44473,0.01274
2295.41447,0.01249
2294.38422,0.01234
2293.35396,0.01238
2292.32370,0.01272
2291.29344,0.01329
2290.26318,0.01359
2289.23293,0.01352
2288.20267,0.01359
2287.17241,0.01411
2286.14215,0.01459
2285.11189,0.01434
2284.08164,0.01364
2283.05138,0.01348
2282.02112,0.01354
2280.99086,0.01306
2279.96061,0.01289
2278.93035,0.01326
2277.90009,0.01358
2276.86983,0.01355
2275.83957,0.01317
2274.80932,0.01332
2273.77906,0.01405
2272.74880,0.01421
2271.71854,0.01390
2270.68829,0.01379
2269.65803,0.01359
2268.62777,0.01348
2267.59751,0.01376
2266.56725,0.01394
2265.53700,0.01327
2264.50674,0.01218
2263.47648,0.01216
2262.44622,0.01319
2261.41596,0.01393
2260.38571,0.01406
2259.35545,0.01430
2258.32519,0.01486
2257.29493,0.01543
2256.26468,0.01606
2255.23442,0.01628
2254.20416,0.01583
2253.17390,0.01560
2252.14364,0.01492
2251.11339,0.01361
2250.08313,0.01363
2249.05287,0.01464
2248.02261,0.01491
2246.99235,0.01484
2245.96210,0.01489
2244.93184,0.01486
2243.90158,0.01496
2242.87132,0.01492
2241.84107,0.01517
2240.81081,0.01582
2239.78055,0.01545
2238.75029,0.01453
2237.72003,0.01483
2236.68978,0.01566
2235.65952,0.01589
2234.62926,0.01608
2233.59900,0.01564
2232.56874,0.01474
2231.53849,0.01492
2230.50823,0.01496
2229.47797,0.01392
2228.44771,0.01354
2227.41746,0.01409
2226.38720,0.01434
2225.35694,0.01416
2224.32668,0.01428
2223.29642,0.01520
2222.26617,0.01625
2221.23591,0.01634
2220.20565,0.01577
2219.17539,0.01534
2218.14514,0.01480
2217.11488,0.01446
2216.08462,0.01494
2215.05436,0.01575
2214.02410,0.01657
2212.99385,0.01699
2211.96359,0.01618
2210.93333,0.01431
2209.90307,0.01317
2208.87281,0.01377
2207.84256,0.01421
2206.81230,0.01365
2205.78204,0.01431
2204.75178,0.01632
2203.72153,0.01714
2202.69127,0.01649
2201.66101,0.01605
2200.63075,0.01575
2199.60049,0.01570
2198.57024,0.01577
2197.53998,0.01475
2196.50972,0.01419
2195.47946,0.01522
2194.44920,0.01660
2193.41895,0.01775
2192.38869,0.01813
2191.35843,0.01745
2190.32817,0.01632
2189.29792,0.01553
2188.26766,0.01592
2187.23740,0.01693
2186.20714,0.01730
2185.17688,0.01675
2184.14663,0.01542
2183.11637,0.01441
2182.08611,0.01466
2181.05585,0.01583
2180.02559,0.01619
2178.99534,0.01578
2177.96508,0.01656
2176.93482,0.01683
2175.90456,0.01607
2174.87431,0.01606
2173.84405,0.01585
2172.81379,0.01595
2171.78353,0.01730
2170.75327,0.01840
2169.72302,0.01826
2168.69276,0.01704
2167.66250,0.01644
2166.63224,0.01732
2165.60199,0.01840
2164.57173,0.01916
2163.54147,0.01845
2162.51121,0.01554
2161.48095,0.01328
2160.45070,0.01391
2159.42044,0.01580
2158.39018,0.01564
2157.35992,0.01253
2156.32966,0.01043
2155.29941,0.01144
2154.26915,0.01308
2153.23889,0.01367
2152.20863,0.01385
2151.17838,0.01510
2150.14812,0.01741
2149.11786,0.01922
2148.08760,0.02015
2147.05734,0.02089
2146.02709,0.02041
2144.99683,0.01851
2143.96657,0.01787
2142.93631,0.01912
2141.90605,0.01997
2140.87580,0.02005
2139.84554,0.02059
2138.81528,0.02022
2137.78502,0.01840
2136.75477,0.01741
2135.72451,0.01761
2134.69425,0.01799
2133.66399,0.01821
2132.63373,0.01889
2131.60348,0.01975
2130.57322,0.01944
2129.54296,0.01847
2128.51270,0.01827
2127.48244,0.01885
2126.45219,0.01914
2125.42193,0.01881
2124.39167,0.01861
2123.36141,0.01864
2122.33116,0.01871
2121.30090,0.01907
2120.27064,0.01959
2119.24038,0.02024
2118.21012,0.02070
2117.17987,0.02080
2116.14961,0.02082
2115.11935,0.02067
2114.08909,0.02038
2113.05884,0.02004
2112.02858,0.01985
2110.99832,0.02024
2109.96806,0.02041
2108.93780,0.01964
2107.90755,0.01899
2106.87729,0.01935
2105.84703,0.01988
2104.81677,0.01931
2103.78651,0.01814
2102.75626,0.01894
2101.72600,0.02137
2100.69574,0.02190
2099.66548,0.02074
2098.63523,0.01981
2097.60497,0.01867
2096.57471,0.01786
2095.54445,0.01796
2094.51419,0.01875
2093.48394,0.02020
2092.45368,0.02118
2091.42342,0.02099
2090.39316,0.02036
2089.36290,0.01980
2088.33265,0.01939
2087.30239,0.01892
2086.27213,0.01836
2085.24187,0.01844
2084.21162,0.01945
2083.18136,0.02017
2082.15110,0.01989
2081.12084,0.01937
2080.09058,0.01890
2079.06033,0.01826
2078.03007,0.01781
2076.99981,0.01823
2075.96955,0.01947
2074.93930,0.02021
2073.90904,0.02047
2072.87878,0.02073
2071.84852,0.01959
2070.81826,0.01804
2069.78801,0.01824
2068.75775,0.01883
2067.72749,0.01794
2066.69723,0.01678
2065.66697,0.01688
2064.63672,0.01719
2063.60646,0.01720
2062.57620,0.01738
2061.54594,0.01757
2060.51569,0.01739
2059.48543,0.01660
2058.45517,0.01615
2057.42491,0.01629
2056.39465,0.01602
2055.36440,0.01645
2054.33414,0.01791
2053.30388,0.01861
2052.27362,0.01862
2051.24336,0.01852
2050.21311,0.01815
2049.18285,0.01796
2048.15259,0.01789
2047.12233,0.01756
2046.09208,0.01776
2045.06182,0.01869
2044.03156,0.01882
2043.00130,0.01761
2041.97104,0.01593
2040.94079,0.01486
2039.91053,0.01426
2038.88027,0.01348
2037.85001,0.01327
2036.81975,0.01361
2035.78950,0.01436
2034.75924,0.01615
2033.72898,0.01789
2032.69872,0.01764
2031.66847,0.01567
2030.63821,0.01490
2029.60795,0.01598
2028.57769,0.01690
2027.54743,0.01734
2026.51718,0.01786
2025.48692,0.01897
2024.45666,0.01958
2023.42640,0.01880
2022.39615,0.01855
2021.36589,0.01913
2020.33563,0.01829
2019.30537,0.01602
2018.27511,0.01567
2017.24486,0.01762
2016.21460,0.01750
2015.18434,0.01489
2014.15408,0.01319
2013.12382,0.01212
2012.09357,0.01076
2011.06331,0.01061
2010.03305,0.01205
2009.00279,0.01408
2007.97254,0.01581
2006.94228,0.01586
2005.91202,0.01464
2004.88176,0.01476
2003.85150,0.01551
2002.82125,0.01523
2001.79099,0.01504
2000.76073,0.01468
1999.73047,0.01395
1998.70021,0.01398
1997.66996,0.01393
1996.63970,0.01305
1995.60944,0.01247
1994.57918,0.01298
1993.54893,0.01408
1992.51867,0.01473
1991.48841,0.01566
1990.45815,0.01763
1989.42789,0.01793
1988.39764,0.01641
1987.36738,0.01651
1986.33712,0.01694
1985.30686,0.01550
1984.27660,0.01450
1983.24635,0.01432
1982.21609,0.01308
1981.18583,0.01203
1980.15557,0.01279
1979.12532,0.01350
1978.09506,0.01334
1977.06480,0.01340
1976.03454,0.01358
1975.00428,0.01510
1973.97403,0.01728
1972.94377,0.01739
1971.91351,0.01569
1970.88325,0.01393
1969.85300,0.01365
1968.82274,0.01404
1967.79248,0.01389
1966.76222,0.01378
1965.73196,0.01290
1964.70171,0.01156
1963.67145,0.01192
1962.64119,0.01322
1961.61093,0.01387
1960.58067,0.01490
1959.55042,0.01606
1958.52016,0.01566
1957.48990,0.01389
1956.45964,0.01206
1955.42939,0.01160
1954.39913,0.01263
1953.36887,0.01399
1952.33861,0.01445
1951.30835,0.01324
1950.27810,0.01186
1949.24784,0.01204
1948.21758,0.01212
1947.18732,0.01121
1946.15706,0.01102
1945.12681,0.01168
1944.09655,0.01198
1943.06629,0.01227
1942.03603,0.01280
1941.00578,0.01249
1939.97552,0.01230
1938.94526,0.01301
1937.91500,0.01330
1936.88474,0.01269
1935.85449,0.01180
1934.82423,0.01149
1933.79397,0.01161
1932.76371,0.01135
1931.73345,0.01127
1930.70320,0.01226
1929.67294,0.01385
1928.64268,0.01463
1927.61242,0.01429
1926.58217,0.01366
1925.55191,0.01326
1924.52165,0.01308
1923.49139,0.01244
1922.46113,0.01134
1921.43088,0.01104
1920.40062,0.01150
1919.37036,0.01196
1918.34010,0.01245
1917.30985,0.01290
1916.27959,0.01312
1915.24933,0.01341
1914.21907,0.01349
1913.18881,0.01228
1912.15856,0.01066
1911.12830,0.01065
1910.09804,0.01164
1909.06778,0.01223
1908.03752,0.01213
1907.00727,0.01170
1905.97701,0.01168
1904.94675,0.01203
1903.91649,0.01229
1902.88624,0.01197
1901.85598,0.01146
1900.82572,0.01184
1899.79546,0.01235
1898.76520,0.01206
1897.73495,0.01187
1896.70469,0.01165
1895.67443,0.01096
1894.64417,0.01100
1893.61391,0.01177
1892.58366,0.01226
1891.55340,0.01241
1890.52314,0.01242
1889.49288,0.01219
1888.46263,0.01187
1887.43237,0.01175
1886.40211,0.01188
1885.37185,0.01186
1884.34159,0.01184
1883.31134,0.01230
1882.28108,0.01218
1881.25082,0.01129
1880.22056,0.01093
1879.19030,0.01115
1878.16005,0.01129
1877.12979,0.01137
1876.09953,0.01166
1875.06927,0.01226
1874.03902,0.01275
1873.00876,0.01271
1871.97850,0.01245
1870.94824,0.01230
1869.91798,0.01209
1868.88773,0.01155
1867.85747,0.01103
1866.82721,0.01073
1865.79695,0.01041
1864.76670,0.01062
1863.73644,0.01149
1862.70618,0.01221
1861.67592,0.01223
1860.64566,0.01164
1859.61541,0.01100
1858.58515,0.01103
1857.55489,0.01146
1856.52463,0.01138
1855.49437,0.01096
1854.46412,0.01091
1853.43386,0.01114
1852.40360,0.01127
1851.37334,0.01150
1850.34309,0.01178
1849.31283,0.01205
1848.28257,0.01280
1847.25231,0.01346
1846.22205,0.01338
1845.19180,0.01284
1844.16154,0.01212
1843.13128,0.01170
1842.10102,0.01175
1841.07076,0.01230
1840.04051,0.01302
1839.01025,0.01328
1837.97999,0.01305
1836.94973,0.01285
1835.91948,0.01280
1834.88922,0.01267
1833.85896,0.01261
1832.82870,0.01263
1831.79844,0.01253
1830.76819,0.01225
1829.73793,0.01182
1828.70767,0.01181
1827.67741,0.01224
1826.64715,0.01257
1825.61690,0.01299
1824.58664,0.01338
1823.55638,0.01311
1822.52612,0.01263
1821.49587,0.01245
1820.46561,0.01253
1819.43535,0.01261
1818.40509,0.01271
1817.37483,0.01297
1816.34458,0.01313
1815.31432,0.01333
1814.28406,0.01364
1813.25380,0.01382
1812.22355,0.01403
1811.19329,0.01430
1810.16303,0.01427
1809.13277,0.01411
1808.10251,0.01410
1807.07226,0.01414
1806.04200,0.01409
1805.01174,0.01393
1803.98148,0.01387
1802.95122,0.01406
1801.92097,0.01438
1800.89071,0.01457
1799.86045,0.01449
1798.83019,0.01440
1797.79994,0.01459
1796.76968,0.01474
1795.73942,0.01470
1794.70916,0.01465
1793.67890,0.01464
1792.64865,0.01472
1791.61839,0.01504
1790.58813,0.01557
1789.55787,0.01588
1788.52761,0.01565
1787.49736,0.01526
1786.46710,0.01513
1785.43684,0.01524
1784.40658,0.01543
1783.37633,0.01568
1782.34607,0.01605
1781.31581,0.01639
1780.28555,0.01651
1779.25529,0.01643
1778.22504,0.01644
1777.19478,0.01664
1776.16452,0.01677
1775.13426,0.01667
1774.10400,0.01669
1773.07375,0.01694
1772.04349,0.01692
1771.01323,0.01683
1769.98297,0.01718
1768.95272,0.01772
1767.92246,0.01812
1766.89220,0.01830
1765.86194,0.01848
1764.83168,0.01868
1763.80143,0.01870
1762.77117,0.01872
1761.74091,0.01901
1760.71065,0.01938
1759.68040,0.01973
1758.65014,0.02018
1757.61988,0.02052
1756.58962,0.02071
1755.55936,0.02098
1754.52911,0.02108
1753.49885,0.02104
1752.46859,0.02119
1751.43833,0.02168
1750.40807,0.02243
1749.37782,0.02302
1748.34756,0.02326
1747.31730,0.02337
1746.28704,0.02358
1745.25679,0.02389
1744.22653,0.02408
1743.19627,0.02418
1742.16601,0.02451
1741.13575,0.02501
1740.10550,0.02552
1739.07524,0.02603
1738.04498,0.02658
1737.01472,0.02710
1735.98446,0.02739
1734.95421,0.02737
1733.92395,0.02748
1732.89369,0.02811
1731.86343,0.02868
1730.83318,0.02911
1729.80292,0.02973
1728.77266,0.03047
1727.74240,0.03109
1726.71214,0.03179
1725.68189,0.03258
1724.65163,0.03336
1723.62137,0.03411
1722.59111,0.03480
1721.56085,0.03547
1720.53060,0.03618
1719.50034,0.03691
1718.47008,0.03770
1717.43982,0.03844
1716.40957,0.03874
1715.37931,0.03916
1714.34905,0.04012
1713.31879,0.04128
1712.28853,0.04238
1711.25828,0.04354
1710.22802,0.04477
1709.19776,0.04596
1708.16750,0.04697
1707.13725,0.04765
1706.10699,0.04837
1705.07673,0.04953
1704.04647,0.05092
1703.01621,0.05224
1701.98596,0.05336
1700.95570,0.05439
1699.92544,0.05620
1698.89518,0.05823
1697.86492,0.05968
1696.83467,0.06111
1695.80441,0.06324
1694.77415,0.06534
1693.74389,0.06669
1692.71364,0.06793
1691.68338,0.06915
1690.65312,0.07058
1689.62286,0.07233
1688.59260,0.07417
1687.56235,0.07601
1686.53209,0.07779
1685.50183,0.07974
1684.47157,0.08241
1683.44131,0.08493
1682.41106,0.08647
1681.38080,0.08780
1680.35054,0.08930
1679.32028,0.09122
1678.29003,0.09351
1677.25977,0.09572
1676.22951,0.09758
1675.19925,0.09954
1674.16899,0.10163
1673.13874,0.10346
1672.10848,0.10533
1671.07822,0.10737
1670.04796,0.10965
1669.01771,0.11209
1667.98745,0.11418
1666.95719,0.11593
1665.92693,0.11769
1664.89667,0.11963
1663.86642,0.12169
1662.83616,0.12371
1661.80590,0.12585
1660.77564,0.12790
1659.74538,0.12961
1658.71513,0.13124
1657.68487,0.13310
1656.65461,0.13509
1655.62435,0.13705
1654.59410,0.13870
1653.56384,0.13927
1652.53358,0.13986
1651.50332,0.14222
1650.47306,0.14465
1649.44281,0.14653
1648.41255,0.14777
1647.38229,0.14867
1646.35203,0.14954
1645.32177,0.15020
1644.29152,0.15091
1643.26126,0.15164
1642.23100,0.15221
1641.20074,0.15252
1640.17049,0.15265
1639.14023,0.15265
1638.10997,0.15243
1637.07971,0.15226
1636.04945,0.15187
1635.01920,0.15084
1633.98894,0.15027
1632.95868,0.14985
1631.92842,0.14887
1630.89816,0.14736
1629.86791,0.14572
1628.83765,0.14421
1627.80739,0.14241
1626.77713,0.14040
1625.74688,0.13881
1624.71662,0.13750
1623.68636,0.13547
1622.65610,0.13236
1621.62584,0.12963
1620.59559,0.12747
1619.56533,0.12541
1618.53507,0.12344
1617.50481,0.12138
1616.47456,0.11812
1615.44430,0.11512
1614.41404,0.11311
1613.38378,0.11095
1612.35352,0.10862
1611.32327,0.10627
1610.29301,0.10379
1609.26275,0.10127
1608.23249,0.09912
1607.20223,0.09718
1606.17198,0.09524
1605.14172,0.09329
1604.11146,0.09141
1603.08120,0.08946
1602.05095,0.08755
1601.02069,0.08582
1599.99043,0.08415
1598.96017,0.08247
1597.92991,0.08089
1596.89966,0.07950
1595.86940,0.07810
1594.83914,0.07662
1593.80888,0.07547
1592.77862,0.07473
1591.74837,0.07368
1590.71811,0.07246
1589.68785,0.07136
1588.65759,0.07006
1587.62734,0.06863
1586.59708,0.06744
1585.56682,0.06648
1584.53656,0.06565
1583.50630,0.06482
1582.47605,0.06386
1581.44579,0.06304
1580.41553,0.06247
1579.38527,0.06192
1578.35501,0.06130
1577.32476,0.06047
1576.29450,0.05905
1575.26424,0.05799
1574.23398,0.05778
1573.20373,0.05755
1572.17347,0.05707
1571.14321,0.05652
1570.11295,0.05584
1569.08269,0.05479
1568.05244,0.05409
1567.02218,0.05396
1565.99192,0.05376
1564.96166,0.05318
1563.93141,0.05255
1562.90115,0.05197
1561.87089,0.05158
1560.84063,0.05149
1559.81037,0.05142
1558.78012,0.05087
1557.74986,0.04989
1556.71960,0.04949
1555.68934,0.04940
1554.65908,0.04915
1553.62883,0.04878
1552.59857,0.04849
1551.56831,0.04816
1550.53805,0.04778
1549.50780,0.04762
1548.47754,0.04749
1547.44728,0.04694
1546.41702,0.04629
1545.38676,0.04588
1544.35651,0.04547
1543.32625,0.04521
1542.29599,0.04539
1541.26573,0.04561
1540.23547,0.04513
1539.20522,0.04441
1538.17496,0.04442
1537.14470,0.04468
1536.11444,0.04471
1535.08419,0.04441
1534.05393,0.04399
1533.02367,0.04382
1531.99341,0.04391
1530.96315,0.04377
1529.93290,0.04344
1528.90264,0.04333
1527.87238,0.04337
1526.84212,0.04331
1525.81186,0.04310
1524.78161,0.04271
1523.75135,0.04234
1522.72109,0.04193
1521.69083,0.04163
1520.66058,0.04199
1519.63032,0.04238
1518.60006,0.04225
1517.56980,0.04180
1516.53954,0.04145
1515.50929,0.04156
1514.47903,0.04194
1513.44877,0.04221
1512.41851,0.04210
1511.38826,0.04170
1510.35800,0.04136
1509.32774,0.04127
1508.29748,0.04111
1507.26722,0.04044
1506.23697,0.04009
1505.20671,0.04065
1504.17645,0.04104
1503.14619,0.04120
1502.11593,0.04115
1501.08568,0.04092
1500.05542,0.04080
1499.02516,0.04078
1497.99490,0.04097
1496.96465,0.04146
1495.93439,0.04197
1494.90413,0.04221
1493.87387,0.04230
1492.84361,0.04245
1491.81336,0.04268
1490.78310,0.04298
1489.75284,0.04341
1488.72258,0.04394
1487.69232,0.04440
1486.66207,0.04470
1485.63181,0.04512
1484.60155,0.04585
1483.57129,0.04668
1482.54104,0.04739
1481.51078,0.04819
1480.48052,0.04936
1479.45026,0.05089
1478.42000,0.05278
1477.38975,0.05478
1476.35949,0.05671
1475.32923,0.05833
1474.29897,0.05954
1473.26871,0.06063
1472.23846,0.06106
1471.20820,0.06053
1470.17794,0.06010
1469.14768,0.06010
1468.11743,0.06016
1467.08717,0.06011
1466.05691,0.06011
1465.02665,0.06031
1463.99639,0.06072
1462.96614,0.06100
1461.93588,0.06124
1460.90562,0.06165
1459.87536,0.06210
1458.84511,0.06243
1457.81485,0.06270
1456.78459,0.06295
1455.75433,0.06318
1454.72407,0.06287
1453.69382,0.06183
1452.66356,0.06037
1451.63330,0.05885
1450.60304,0.05757
1449.57278,0.05667
1448.54253,0.05618
1447.51227,0.05582
1446.48201,0.05513
1445.45175,0.05415
1444.42150,0.05326
1443.39124,0.05275
1442.36098,0.05225
1441.33072,0.05138
1440.30046,0.05034
1439.27021,0.04949
1438.23995,0.04900
1437.20969,0.04846
1436.17943,0.04754
1435.14917,0.04698
1434.11892,0.04671
1433.08866,0.04631
1432.05840,0.04591
1431.02814,0.04575
1429.99789,0.04556
1428.96763,0.04530
1427.93737,0.04527
1426.90711,0.04533
1425.87685,0.04528
1424.84660,0.04509
1423.81634,0.04485
1422.78608,0.04475
1421.75582,0.04485
1420.72556,0.04499
1419.69531,0.04481
1418.66505,0.04466
1417.63479,0.04486
1416.60453,0.04496
1415.57428,0.04503
1414.54402,0.04495
1413.51376,0.04465
1412.48350,0.04456
1411.45324,0.04467
1410.42299,0.04458
1409.39273,0.04436
1408.36247,0.04425
1407.33221,0.04434
1406.30196,0.04457
1405.27170,0.04469
1404.24144,0.04465
1403.21118,0.04461
1402.18092,0.04469
1401.15067,0.04484
1400.12041,0.04482
1399.09015,0.04461
1398.05989,0.04457
1397.02963,0.04474
1395.99938,0.04488
1394.96912,0.04485
1393.93886,0.04476
1392.90860,0.04476
1391.87835,0.04472
1390.84809,0.04467
1389.81783,0.04485
1388.78757,0.04499
1387.75731,0.04499
1386.72706,0.04514
1385.69680,0.04528
1384.66654,0.04523
1383.63628,0.04528
1382.60602,0.04554
1381.57577,0.04566
1380.54551,0.04562
1379.51525,0.04582
1378.48499,0.04625
1377.45474,0.04658
1376.42448,0.04685
1375.39422,0.04718
1374.36396,0.04767
1373.33370,0.04826
1372.30345,0.04868
1371.27319,0.04902
1370.24293,0.04951
1369.21267,0.05024
1368.18241,0.05102
1367.15216,0.05167
1366.12190,0.05247
1365.09164,0.05349
1364.06138,0.05446
1363.03113,0.05566
1362.00087,0.05732
1360.97061,0.05909
1359.94035,0.06085
1358.91009,0.06263
1357.87984,0.06452
1356.84958,0.06650
1355.81932,0.06851
1354.78906,0.07065
1353.75881,0.07295
1352.72855,0.07517
1351.69829,0.07714
1350.66803,0.07876
1349.63777,0.07960
1348.60752,0.07896
1347.57726,0.07635
1346.54700,0.07188
1345.51674,0.06649
1344.48648,0.06146
1343.45623,0.05741
1342.42597,0.05449
1341.39571,0.05272
1340.36545,0.05174
1339.33520,0.05102
1338.30494,0.05036
1337.27468,0.04998
1336.24442,0.04999
1335.21416,0.05034
1334.18391,0.05063
1333.15365,0.05065
1332.12339,0.05047
1331.09313,0.05003
1330.06287,0.04946
1329.03262,0.04902
1328.00236,0.04859
1326.97210,0.04798
1325.94184,0.04759
1324.91159,0.04757
1323.88133,0.04758
1322.85107,0.04747
1321.82081,0.04744
1320.79055,0.04764
1319.76030,0.04799
1318.73004,0.04826
1317.69978,0.04846
1316.66952,0.04886
1315.63927,0.04943
1314.60901,0.05003
1313.57875,0.05085
1312.54849,0.05194
1311.51823,0.05298
1310.48798,0.05396
1309.45772,0.05510
1308.42746,0.05626
1307.39720,0.05712
1306.36694,0.05779
1305.33669,0.05857
1304.30643,0.05935
1303.27617,0.05986
1302.24591,0.06017
1301.21566,0.06041
1300.18540,0.06052
1299.15514,0.06051
1298.12488,0.06052
1297.09462,0.06066
1296.06437,0.06089
1295.03411,0.06112
1294.00385,0.06124
1292.97359,0.06111
1291.94333,0.06089
1290.91308,0.06082
1289.88282,0.06085
1288.85256,0.06079
1287.82230,0.06054
1286.79205,0.06028
1285.76179,0.06003
1284.73153,0.05959
1283.70127,0.05907
1282.67101,0.05864
1281.64076,0.05799
1280.61050,0.05701
1279.58024,0.05618
1278.54998,0.05571
1277.51972,0.05529
1276.48947,0.05479
1275.45921,0.05429
1274.42895,0.05390
1273.39869,0.05370
1272.36844,0.05353
1271.33818,0.05332
1270.30792,0.05311
1269.27766,0.05301
1268.24740,0.05318
1267.21715,0.05369
1266.18689,0.05449
1265.15663,0.05557
1264.12637,0.05684
1263.09612,0.05791
1262.06586,0.05859
1261.03560,0.05933
1260.00534,0.06045
1258.97508,0.06158
1257.94483,0.06257
1256.91457,0.06355
1255.88431,0.06434
1254.85405,0.06484
1253.82379,0.06540
1252.79354,0.06593
1251.76328,0.06611
1250.73302,0.06604
1249.70276,0.06573
1248.67251,0.06498
1247.64225,0.06390
1246.61199,0.06292
1245.58173,0.06206
1244.55147,0.06105
1243.52122,0.05992
1242.49096,0.05893
1241.46070,0.05807
1240.43044,0.05724
1239.40018,0.05646
1238.36993,0.05563
1237.33967,0.05471
1236.30941,0.05384
1235.27915,0.05304
1234.24890,0.05220
1233.21864,0.05130
1232.18838,0.05043
1231.15812,0.04962
1230.12786,0.04910
1229.09761,0.04885
1228.06735,0.04847
1227.03709,0.04794
1226.00683,0.04750
1224.97657,0.04722
1223.94632,0.04707
1222.91606,0.04692
1221.88580,0.04670
1220.85554,0.04637
1219.82529,0.04584
1218.79503,0.04545
1217.76477,0.04532
1216.73451,0.04511
1215.70425,0.04486
1214.67400,0.04476
1213.64374,0.04463
1212.61348,0.04446
1211.58322,0.04441
1210.55297,0.04438
1209.52271,0.04426
1208.49245,0.04415
1207.46219,0.04395
1206.43193,0.04368
1205.40168,0.04358
1204.37142,0.04351
1203.34116,0.04345
1202.31090,0.04346
1201.28064,0.04333
1200.25039,0.04325
1199.22013,0.04342
1198.18987,0.04358
1197.15961,0.04366
1196.12936,0.04374
1195.09910,0.04379
1194.06884,0.04387
1193.03858,0.04389
1192.00832,0.04377
1190.97807,0.04357
1189.94781,0.04335
1188.91755,0.04337
1187.88729,0.04375
1186.85703,0.04417
1185.82678,0.04435
1184.79652,0.04434
1183.76626,0.04433
1182.73600,0.04440
1181.70575,0.04464
1180.67549,0.04493
1179.64523,0.04476
1178.61497,0.04437
1177.58471,0.04457
1176.55446,0.04505
1175.52420,0.04527
1174.49394,0.04551
1173.46368,0.04586
1172.43342,0.04604
1171.40317,0.04626
1170.37291,0.04664
1169.34265,0.04706
1168.31239,0.04753
1167.28214,0.04801
1166.25188,0.04845
1165.22162,0.04885
1164.19136,0.04939
1163.16110,0.05043
1162.13085,0.05185
1161.10059,0.05315
1160.07033,0.05432
1159.04007,0.05569
1158.00982,0.05726
1156.97956,0.05895
1155.94930,0.06088
1154.91904,0.06321
1153.88878,0.06567
1152.85853,0.06791
1151.82827,0.07018
1150.79801,0.07271
1149.76775,0.07543
1148.73749,0.07832
1147.70724,0.08142
1146.67698,0.08458
1145.64672,0.08742
1144.61646,0.08988
1143.58621,0.09229
1142.55595,0.09484
1141.52569,0.09728
1140.49543,0.09953
1139.46517,0.10190
1138.43492,0.10400
1137.40466,0.10577
1136.37440,0.10767
1135.34414,0.10933
1134.31388,0.11059
1133.28363,0.11192
1132.25337,0.11315
1131.22311,0.11423
1130.19285,0.11540
1129.16260,0.11669
1128.13234,0.11826
1127.10208,0.12025
1126.07182,0.12238
1125.04156,0.12431
1124.01131,0.12621
1122.98105,0.12831
1121.95079,0.13063
1120.92053,0.13309
1119.89027,0.13565
1118.86002,0.13807
1117.82976,0.14030
1116.79950,0.14272
1115.76924,0.14542
1114.73899,0.14809
1113.70873,0.15063
1112.67847,0.15315
1111.64821,0.15565
1110.61795,0.15821
1109.58770,0.16064
1108.55744,0.16300
1107.52718,0.16570
1106.49692,0.16844
1105.46667,0.17091
1104.43641,0.17349
1103.40615,0.17639
1102.37589,0.17930
1101.34563,0.18217
1100.31538,0.18501
1099.28512,0.18737
1098.25486,0.18922
1097.22460,0.19116
1096.19434,0.19323
1095.16409,0.19527
1094.13383,0.19744
1093.10357,0.19936
1092.07331,0.20087
1091.04306,0.20224
1090.01280,0.20374
1088.98254,0.20540
1087.95228,0.20647
1086.92202,0.20660
1085.89177,0.20669
1084.86151,0.20743
1083.83125,0.20831
1082.80099,0.20858
1081.77073,0.20856
1080.74048,0.20825
1079.71022,0.20714
1078.67996,0.20553
1077.64970,0.20409
1076.61945,0.20281
1075.58919,0.20142
1074.55893,0.20006
1073.52867,0.19867
1072.49841,0.19676
1071.46816,0.19417
1070.43790,0.19128
1069.40764,0.18871
1068.37738,0.18642
1067.34712,0.18406
1066.31687,0.18141
1065.28661,0.17801
1064.25635,0.17373
1063.22609,0.16938
1062.19584,0.16556
1061.16558,0.16159
1060.13532,0.15686
1059.10506,0.15188
1058.07480,0.14690
1057.04455,0.14184
1056.01429,0.13684
1054.98403,0.13201
1053.95377,0.12738
1052.92352,0.12271
1051.89326,0.11785
1050.86300,0.11347
1049.83274,0.10990
1048.80248,0.10690
1047.77223,0.10435
1046.74197,0.10209
1045.71171,0.09993
1044.68145,0.09813
1043.65119,0.09711
1042.62094,0.09648
1041.59068,0.09552
1040.56042,0.09431
1039.53016,0.09336
1038.49991,0.09314
1037.46965,0.09346
1036.43939,0.09344
1035.40913,0.09281
1034.37887,0.09197
1033.34862,0.09117
1032.31836,0.09053
1031.28810,0.08978
1030.25784,0.08864
1029.22758,0.08762
1028.19733,0.08681
1027.16707,0.08568
1026.13681,0.08407
1025.10655,0.08243
1024.07630,0.08112
1023.04604,0.07991
1022.01578,0.07864
1020.98552,0.07732
1019.95526,0.07610
1018.92501,0.07498
1017.89475,0.07384
1016.86449,0.07269
1015.83423,0.07143
1014.80397,0.07019
1013.77372,0.06929
1012.74346,0.06861
1011.71320,0.06775
1010.68294,0.06670
1009.65269,0.06600
1008.62243,0.06574
1007.59217,0.06532
1006.56191,0.06481
1005.53165,0.06466
1004.50140,0.06466
1003.47114,0.06464
1002.44088,0.06448
1001.41062,0.06406
1000.38037,0.06366
999.35011,0.06368
998.31985,0.06381
997.28959,0.06367
996.25933,0.06340
995.22908,0.06337
994.19882,0.06356
993.16856,0.06373
992.13830,0.06372
991.10804,0.06370
990.07779,0.06405
989.04753,0.06445
988.01727,0.06434
986.98701,0.06387
985.95676,0.06354
984.92650,0.06347
983.89624,0.06349
982.86598,0.06334
981.83572,0.06302
980.80547,0.06289
979.77521,0.06290
978.74495,0.06275
977.71469,0.06280
976.68443,0.06336
975.65418,0.06400
974.62392,0.06440
973.59366,0.06471
972.56340,0.06510
971.53315,0.06563
970.50289,0.06634
969.47263,0.06699
968.44237,0.06748
967.41211,0.06821
966.38186,0.06934
965.35160,0.07082
964.32134,0.07246
963.29108,0.07429
962.26082,0.07650
961.23057,0.07898
960.20031,0.08162
959.17005,0.08441
958.13979,0.08728
957.10954,0.09039
956.07928,0.09375
955.04902,0.09710
954.01876,0.10053
952.98850,0.10392
951.95825,0.10669
950.92799,0.10874
949.89773,0.11037
948.86747,0.11185
947.83722,0.11313
946.80696,0.11370
945.77670,0.11338
944.74644,0.11282
943.71618,0.11240
942.68593,0.11195
941.65567,0.11110
940.62541,0.10990
939.59515,0.10883
938.56489,0.10813
937.53464,0.10751
936.50438,0.10654
935.47412,0.10541
934.44386,0.10447
933.41361,0.10384
932.38335,0.10333
931.35309,0.10254
930.32283,0.10178
929.29257,0.10121
928.26232,0.10048
927.23206,0.09987
926.20180,0.09947
925.17154,0.09889
924.14128,0.09824
923.11103,0.09790
922.08077,0.09782
921.05051,0.09759
920.02025,0.09752
918.99000,0.09770
917.95974,0.09756
916.92948,0.09729
915.89922,0.09730
914.86896,0.09733
913.83871,0.09737
912.80845,0.09758
911.77819,0.09750
910.74793,0.09702
909.71768,0.09678
908.68742,0.09675
907.65716,0.09663
906.62690,0.09662
905.59664,0.09690
904.56639,0.09732
903.53613,0.09766
902.50587,0.09785
901.47561,0.09792
900.44535,0.09799
899.41510,0.09836
898.38484,0.09910
897.35458,0.09998
896.32432,0.10104
895.29407,0.10218
894.26381,0.10322
893.23355,0.10410
892.20329,0.10492
891.17303,0.10597
890.14278,0.10740
889.11252,0.10900
888.08226,0.11044
887.05200,0.11149
886.02174,0.11225
884.99149,0.11306
883.96123,0.11385
882.93097,0.11434
881.90071,0.11466
880.87046,0.11518
879.84020,0.11591
878.80994,0.11658
877.77968,0.11731
876.74942,0.11824
875.71917,0.11891
874.68891,0.11931
873.65865,0.11974
872.62839,0.12031
871.59813,0.12128
870.56788,0.12247
869.53762,0.12337
868.50736,0.12420
867.47710,0.12521
866.44685,0.12622
865.41659,0.12698
864.38633,0.12749
863.35607,0.12824
862.32581,0.12956
861.29556,0.13136
860.26530,0.13312
859.23504,0.13419
858.20478,0.13487
857.17453,0.13603
856.14427,0.13775
855.11401,0.13973
854.08375,0.14204
853.05349,0.14400
852.02324,0.14502
850.99298,0.14615
849.96272,0.14830
848.93246,0.15077
847.90220,0.15247
846.87195,0.15340
845.84169,0.15433
844.81143,0.15588
843.78117,0.15794
842.75092,0.16004
841.72066,0.16182
840.69040,0.16302
839.66014,0.16422
838.62988,0.16570
837.59963,0.16723
836.56937,0.16899
835.53911,0.17060
834.50885,0.17181
833.47859,0.17295
832.44834,0.17403
831.41808,0.17463
830.38782,0.17489
829.35756,0.17567
828.32731,0.17698
827.29705,0.17843
826.26679,0.17953
825.23653,0.18007
824.20627,0.18068
823.17602,0.18178
822.14576,0.18290
821.11550,0.18349
820.08524,0.18396
819.05498,0.18469
818.02473,0.18570
816.99447,0.18696
815.96421,0.18828
814.93395,0.18952
813.90370,0.19056
812.87344,0.19131
811.84318,0.19197
810.81292,0.19281
809.78266,0.19435
808.75241,0.19641
807.72215,0.19805
806.69189,0.19948
805.66163,0.20068
804.63138,0.20145
803.60112,0.20230
802.57086,0.20359
801.54060,0.20518
800.51034,0.20660
799.48009,0.20753
798.44983,0.20827
797.41957,0.20924
796.38931,0.21034
795.35905,0.21139
794.32880,0.21232
793.29854,0.21344
792.26828,0.21478
791.23802,0.21607
790.20777,0.21757
789.17751,0.21937
788.14725,0.22104
787.11699,0.22209
786.08673,0.22298
785.05648,0.22448
784.02622,0.22619
782.99596,0.22771
781.96570,0.22931
780.93544,0.23060
779.90519,0.23138
778.87493,0.23265
777.84467,0.23448
776.81441,0.23587
775.78416,0.23706
774.75390,0.23799
773.72364,0.23838
772.69338,0.23922
771.66312,0.24069
770.63287,0.24216
769.60261,0.24380
768.57235,0.24568
767.54209,0.24729
766.51183,0.24853
765.48158,0.25016
764.45132,0.25223
763.42106,0.25365
762.39080,0.25453
761.36055,0.25594
760.33029,0.25765
759.30003,0.25910
758.26977,0.26055
757.23951,0.26210
756.20926,0.26306
755.17900,0.26378
754.14874,0.26543
753.11848,0.26730
752.08823,0.26849
751.05797,0.26975
750.02771,0.27170
748.99745,0.27383
747.96719,0.27546
746.93694,0.27674
745.90668,0.27836
744.87642,0.28034
743.84616,0.28211
742.81590,0.28337
741.78565,0.28413
740.75539,0.28512
739.72513,0.28695
738.69487,0.28858
737.66462,0.28930
736.63436,0.29023
735.60410,0.29154
734.57384,0.29258
733.54358,0.29405
732.51333,0.29563
731.48307,0.29657
730.45281,0.29810
729.42255,0.30061
728.39229,0.30245
727.36204,0.30346
726.33178,0.30506
725.30152,0.30693
724.27126,0.30829
723.24101,0.30936
722.21075,0.31045
721.18049,0.31204
720.15023,0.31403
719.11997,0.31548
718.08972,0.31658
717.05946,0.31791
716.02920,0.31969
714.99894,0.32167
713.96868,0.32304
712.93843,0.32394
711.90817,0.32508
710.87791,0.32678
709.84765,0.32850
708.81740,0.32986
707.78714,0.33101
706.75688,0.33184
705.72662,0.33285
704.69636,0.33450
703.66611,0.33620
702.63585,0.33722
701.60559,0.33814
700.57533,0.33924
699.54508,0.34010
698.51482,0.34145
697.48456,0.34327
696.45430,0.34514
695.42404,0.34693
694.39379,0.34800
693.36353,0.34842
692.33327,0.34987
691.30301,0.35217
690.27275,0.35324
689.24250,0.35385
688.21224,0.35588
687.18198,0.35840
686.15172,0.35980
685.12147,0.36055
684.09121,0.36167
683.06095,0.36311
682.03069,0.36441
681.00043,0.36524
679.97018,0.36532
678.93992,0.36581
677.90966,0.36854
676.87940,0.37156
675.84914,0.37248
674.81889,0.37311
673.78863,0.37468
672.75837,0.37601
671.72811,0.37665
670.69786,0.37786
669.66760,0.38050
668.63734,0.38213
667.60708,0.38010
666.57682,0.38147
665.54657,0.38461
664.51631,0.38680
663.48605,0.38841
662.45579,0.38936
661.42553,0.38933
660.39528,0.39008
659.36502,0.39145
658.33476,0.39183
657.30450,0.39199
656.27425,0.39308
655.24399,0.39438
654.21373,0.39572
653.18347,0.39766
652.15321,0.39930
651.12296,0.40039
650.09270,0.40209
649.06244,0.40405
648.03218,0.40513
647.00193,0.40524
645.97167,0.40518
644.94141,0.40593
643.91115,0.40627
642.88089,0.40550
641.85064,0.40633
640.82038,0.40958
639.79012,0.41233
638.75986,0.41311
637.72960,0.41395
636.69935,0.41585
635.66909,0.41719
634.63883,0.41734
633.60857,0.41782
632.57832,0.41892
631.54806,0.41967
630.51780,0.42011
629.48754,0.42078
628.45728,0.42169
627.42703,0.42247
626.39677,0.42333
625.36651,0.42530
624.33625,0.42811
623.30599,0.42961
622.27574,0.42951
621.24548,0.42961
620.21522,0.43009
619.18496,0.43023
618.15471,0.43081
617.12445,0.43214
616.09419,0.43333
615.06393,0.43419
614.03367,0.43511
613.00342,0.43610
611.97316,0.43604
610.94290,0.43531
609.91264,0.43600
608.88238,0.43774
607.85213,0.43844
606.82187,0.43802
605.79161,0.43834
604.76135,0.44083
603.73110,0.44414
602.70084,0.44596
601.67058,0.44675
600.64032,0.44820
599.61006,0.45000
598.57981,0.45078
597.54955,0.45141
596.51929,0.45240
595.48903,0.45284
594.45878,0.45333
593.42852,0.45439
592.39826,0.45616
591.36800,0.45789
590.33774,0.45797
589.30749,0.45728
588.27723,0.45824
587.24697,0.46052
586.21671,0.46147
585.18645,0.46045
584.15620,0.45975
583.12594,0.46105
582.09568,0.46462
581.06542,0.46766
580.03517,0.46704
579.00491,0.46653
577.97465,0.46738
576.94439,0.46581
575.91413,0.46396
574.88388,0.46572
573.85362,0.46940
572.82336,0.47235
571.79310,0.47419
570.76284,0.47517
569.73259,0.47588
568.70233,0.47634
567.67207,0.47585
566.64181,0.47510
565.61156,0.47465
564.58130,0.47457
563.55104,0.47541
562.52078,0.47699
561.49052,0.47897
560.46027,0.47927
559.43001,0.47703
558.39975,0.47547
557.36949,0.47658
556.33924,0.47938
555.30898,0.48206
554.27872,0.48238
553.24846,0.48042
552.21820,0.48060
551.18795,0.48377
550.15769,0.48654
549.12743,0.48725
548.09717,0.48636
547.06691,0.48596
546.03666,0.48724
545.00640,0.48915
543.97614,0.49102
542.94588,0.49323
541.91563,0.49414
540.88537,0.49195
539.85511,0.48901
538.82485,0.48913
537.79459,0.49128
536.76434,0.49334
535.73408,0.49533
534.70382,0.49560
533.67356,0.49453
532.64330,0.49421
531.61305,0.49576
530.58279,0.49866
529.55253,0.49966
528.52227,0.49849
527.49202,0.49772
526.46176,0.49769
525.43150,0.49676
524.40124,0.49385
523.37098,0.49244
522.34073,0.49405
521.31047,0.49664
520.28021,0.50131
519.24995,0.50557
518.21969,0.50533
517.18944,0.50212
516.15918,0.49995
515.12892,0.50190
514.09866,0.50526
513.06841,0.50556
512.03815,0.50349
511.00789,0.50217
509.97763,0.50293
508.94737,0.50405
507.91712,0.50385
506.88686,0.50370
505.85660,0.50431
504.82634,0.50402
503.79609,0.50358
502.76583,0.50717
501.73557,0.51320
500.70531,0.51466
499.67505,0.51219
498.64480,0.50978
497.61454,0.50828
496.58428,0.50786
495.55402,0.50796
494.52376,0.50769
493.49351,0.50905
492.46325,0.51165
491.43299,0.51295
490.40273,0.51444
489.37248,0.51594
488.34222,0.51498
487.31196,0.51277
486.28170,0.51262
485.25144,0.51464
484.22119,0.51641
483.19093,0.51662
482.16067,0.51574
481.13041,0.51332
480.10015,0.50893
479.06990,0.50693
478.03964,0.51075
477.00938,0.51596
475.97912,0.51615
474.94887,0.51200
473.91861,0.51220
472.88835,0.51681
471.85809,0.51539
470.82783,0.50991
469.79758,0.50587
468.76732,0.50427
467.73706,0.50773
466.70680,0.51359
465.67654,0.51884
464.64629,0.52278
463.61603,0.52190
462.58577,0.51838
461.55551,0.51891
460.52526,0.52110
459.49500,0.52015
458.46474,0.52076
457.43448,0.52162
456.40422,0.51816
455.37397,0.51880
454.34371,0.51994
453.31345,0.51269
452.28319,0.50591
451.25294,0.50939
450.22268,0.51422
449.19242,0.51251
448.16216,0.51195
447.13190,0.51382
446.10165,0.51337
445.07139,0.51439
444.04113,0.51691
443.01087,0.51698
441.98061,0.51392
440.95036,0.50920
439.92010,0.50570
438.88984,0.50679
437.85958,0.51045
436.82933,0.50859
435.79907,0.50660
434.76881,0.51419
433.73855,0.52042
432.70829,0.52093
431.67804,0.52443
430.64778,0.52811
429.61752,0.52428
428.58726,0.51676
427.55700,0.51090
426.52675,0.50747
425.49649,0.50992
424.46623,0.51565
423.43597,0.51589
422.40572,0.51251
421.37546,0.51363
420.34520,0.52080
419.31494,0.52976
418.28468,0.53302
417.25443,0.53315
416.22417,0.53277
415.19391,0.53263
414.16365,0.53640
413.13339,0.54146
412.10314,0.53481
411.07288,0.52086
410.04262,0.51734
409.01236,0.51965
407.98211,0.51695
406.95185,0.51362
405.92159,0.51724
404.89133,0.52006
403.86107,0.51184
402.83082,0.50552
401.80056,0.51125
400.77030,0.52118
399.74004,0.52673
