4998.81105,0.00329
4997.78079,0.00408
4996.75054,0.00468
4995.72028,0.00402
4994.69002,0.00286
4993.65976,0.00261
4992.62951,0.00288
4991.59925,0.00322
4990.56899,0.00367
4989.53873,0.00345
4988.50847,0.00252
4987.47822,0.00188
4986.44796,0.00134
4985.41770,0.00057
4984.38744,0.00051
4983.35718,0.00157
4982.32693,0.00315
4981.29667,0.00388
4980.26641,0.00344
4979.23615,0.00274
4978.20590,0.00254
4977.17564,0.00311
4976.14538,0.00343
4975.11512,0.00336
4974.08486,0.00395
4973.05461,0.00443
4972.02435,0.00402
4970.99409,0.00366
4969.96383,0.00291
4968.93357,0.00130
4967.90332,0.00102
4966.87306,0.00235
4965.84280,0.00314
4964.81254,0.00298
4963.78229,0.00302
4962.75203,0.00353
4961.72177,0.00337
4960.69151,0.00239
4959.66125,0.00218
4958.63100,0.00362
4957.60074,0.00506
4956.57048,0.00524
4955.54022,0.00464
4954.50997,0.00366
4953.47971,0.00288
4952.44945,0.00259
4951.41919,0.00250
4950.38893,0.00256
4949.35868,0.00320
4948.32842,0.00415
4947.29816,0.00439
4946.26790,0.00411
4945.23764,0.00379
4944.20739,0.00335
4943.17713,0.00258
4942.14687,0.00189
4941.11661,0.00202
4940.08636,0.00261
4939.05610,0.00312
4938.02584,0.00344
4936.99558,0.00316
4935.96532,0.00267
4934.93507,0.00277
4933.90481,0.00328
4932.87455,0.00387
4931.84429,0.00337
4930.81403,0.00171
4929.78378,0.00104
4928.75352,0.00184
4927.72326,0.00316
4926.69300,0.00417
4925.66275,0.00394
4924.63249,0.00304
4923.60223,0.00277
4922.57197,0.00292
4921.54171,0.00291
4920.51146,0.00289
4919.48120,0.00272
4918.45094,0.00235
4917.42068,0.00224
4916.39042,0.00260
4915.36017,0.00342
4914.32991,0.00367
4913.29965,0.00267
4912.26939,0.00158
4911.23914,0.00141
4910.20888,0.00223
4909.17862,0.00310
4908.14836,0.00310
4907.11810,0.00286
4906.08785,0.00341
4905.05759,0.00463
4904.02733,0.00482
4902.99707,0.00318
4901.96682,0.00214
4900.93656,0.00262
4899.90630,0.00286
4898.87604,0.00276
4897.84578,0.00294
4896.81553,0.00308
4895.78527,0.00254
4894.75501,0.00209
4893.72475,0.00282
4892.69449,0.00414
4891.66424,0.00470
4890.63398,0.00424
4889.60372,0.00362
4888.57346,0.00310
4887.54321,0.00257
4886.51295,0.00273
4885.48269,0.00359
4884.45243,0.00406
4883.42217,0.00390
4882.39192,0.00358
4881.36166,0.00339
4880.33140,0.00278
4879.30114,0.00220
4878.27088,0.00243
4877.24063,0.00205
4876.21037,0.00071
4875.18011,-0.00014
4874.14985,0.00017
4873.11960,0.00075
4872.08934,0.00078
4871.05908,0.00116
4870.02882,0.00244
4868.99856,0.00353
4867.96831,0.00400
4866.93805,0.00421
4865.90779,0.00420
4864.87753,0.00389
4863.84727,0.00350
4862.81702,0.00347
4861.78676,0.00311
4860.75650,0.00225
4859.72624,0.00180
4858.69599,0.00194
4857.66573,0.00207
4856.63547,0.00189
4855.60521,0.00189
4854.57495,0.00163
4853.54470,0.00070
4852.51444,-0.00002
4851.48418,0.00034
4850.45392,0.00133
4849.42367,0.00183
4848.39341,0.00212
4847.36315,0.00226
4846.33289,0.00192
4845.30263,0.00212
4844.27238,0.00285
4843.24212,0.00337
4842.21186,0.00386
4841.18160,0.00438
4840.15134,0.00440
4839.12109,0.00361
4838.09083,0.00263
4837.06057,0.00189
4836.03031,0.00146
4835.00006,0.00161
4833.96980,0.00177
4832.93954,0.00168
4831.90928,0.00184
4830.87902,0.00182
4829.84877,0.00154
4828.81851,0.00130
4827.78825,0.00102
4826.75799,0.00111
4825.72773,0.00104
4824.69748,0.00085
4823.66722,0.00196
4822.63696,0.00342
4821.60670,0.00339
4820.57645,0.00303
4819.54619,0.00358
4818.51593,0.00403
4817.48567,0.00393
4816.45541,0.00376
4815.42516,0.00334
4814.39490,0.00246
4813.36464,0.00176
4812.33438,0.00210
4811.30412,0.00281
4810.27387,0.00316
4809.24361,0.00365
4808.21335,0.00389
4807.18309,0.00296
4806.15284,0.00204
4805.12258,0.00214
4804.09232,0.00233
4803.06206,0.00262
4802.03180,0.00350
4801.00155,0.00407
4799.97129,0.00393
4798.94103,0.00369
4797.91077,0.00388
4796.88052,0.00378
4795.85026,0.00311
4794.82000,0.00262
4793.78974,0.00235
4792.75948,0.00241
4791.72923,0.00292
4790.69897,0.00334
4789.66871,0.00312
4788.63845,0.00229
4787.60819,0.00122
4786.57794,0.00039
4785.54768,0.00041
4784.51742,0.00125
4783.48716,0.00216
4782.45691,0.00223
4781.42665,0.00146
4780.39639,0.00093
4779.36613,0.00116
4778.33587,0.00152
4777.30562,0.00161
4776.27536,0.00203
4775.24510,0.00266
4774.21484,0.00267
4773.18458,0.00279
4772.15433,0.00313
4771.12407,0.00241
4770.09381,0.00166
4769.06355,0.00185
4768.03330,0.00184
4767.00304,0.00149
4765.97278,0.00157
4764.94252,0.00244
4763.91226,0.00317
4762.88201,0.00261
4761.85175,0.00174
4760.82149,0.00155
4759.79123,0.00155
4758.76098,0.00177
4757.73072,0.00283
4756.70046,0.00390
4755.67020,0.00400
4754.63994,0.00412
4753.60969,0.00447
4752.57943,0.00400
4751.54917,0.00356
4750.51891,0.00392
4749.48865,0.00377
4748.45840,0.00273
4747.42814,0.00221
4746.39788,0.00268
4745.36762,0.00325
4744.33737,0.00287
4743.30711,0.00164
4742.27685,0.00111
4741.24659,0.00173
4740.21633,0.00258
4739.18608,0.00305
4738.15582,0.00272
4737.12556,0.00188
4736.09530,0.00143
4735.06504,0.00123
4734.03479,0.00113
4733.00453,0.00154
4731.97427,0.00186
4730.94401,0.00171
4729.91376,0.00173
4728.88350,0.00187
4727.85324,0.00227
4726.82298,0.00259
4725.79272,0.00201
4724.76247,0.00130
4723.73221,0.00105
4722.70195,0.00095
4721.67169,0.00094
4720.64143,0.00150
4719.61118,0.00260
4718.58092,0.00304
4717.55066,0.00256
4716.52040,0.00200
4715.49015,0.00216
4714.45989,0.00267
4713.42963,0.00292
4712.39937,0.00311
4711.36911,0.00290
4710.33886,0.00195
4709.30860,0.00117
4708.27834,0.00103
4707.24808,0.00071
4706.21783,0.00047
4705.18757,0.00121
4704.15731,0.00213
4703.12705,0.00206
4702.09679,0.00160
4701.06654,0.00139
4700.03628,0.00135
4699.00602,0.00167
4697.97576,0.00205
4696.94550,0.00214
4695.91525,0.00202
4694.88499,0.00197
4693.85473,0.00241
4692.82447,0.00275
4691.79422,0.00248
4690.76396,0.00227
4689.73370,0.00209
4688.70344,0.00198
4687.67318,0.00234
4686.64293,0.00274
4685.61267,0.00280
4684.58241,0.00251
4683.55215,0.00188
4682.52189,0.00110
4681.49164,0.00082
4680.46138,0.00120
4679.43112,0.00150
4678.40086,0.00148
4677.37061,0.00177
4676.34035,0.00226
4675.31009,0.00202
4674.27983,0.00126
4673.24957,0.00123
4672.21932,0.00218
4671.18906,0.00281
4670.15880,0.00270
4669.12854,0.00271
4668.09828,0.00290
4667.06803,0.00288
4666.03777,0.00293
4665.00751,0.00297
4663.97725,0.00297
4662.94700,0.00312
4661.91674,0.00293
4660.88648,0.00265
4659.85622,0.00274
4658.82596,0.00227
4657.79571,0.00131
4656.76545,0.00141
4655.73519,0.00277
4654.70493,0.00411
4653.67468,0.00425
4652.64442,0.00368
4651.61416,0.00318
4650.58390,0.00279
4649.55364,0.00286
4648.52339,0.00303
4647.49313,0.00270
4646.46287,0.00205
4645.43261,0.00147
4644.40235,0.00111
4643.37210,0.00101
4642.34184,0.00107
4641.31158,0.00091
4640.28132,0.00032
4639.25107,0.00031
4638.22081,0.00188
4637.19055,0.00370
4636.16029,0.00381
4635.13003,0.00257
4634.09978,0.00183
4633.06952,0.00177
4632.03926,0.00158
4631.00900,0.00124
4629.97874,0.00146
4628.94849,0.00236
4627.91823,0.00341
4626.88797,0.00435
4625.85771,0.00453
4624.82746,0.00373
4623.79720,0.00285
4622.76694,0.00297
4621.73668,0.00326
4620.70642,0.00287
4619.67617,0.00264
4618.64591,0.00289
4617.61565,0.00323
4616.58539,0.00325
4615.55513,0.00274
4614.52488,0.00188
4613.49462,0.00160
4612.46436,0.00218
4611.43410,0.00246
4610.40385,0.00221
4609.37359,0.00159
4608.34333,0.00111
4607.31307,0.00183
4606.28281,0.00280
4605.25256,0.00234
4604.22230,0.00144
4603.19204,0.00142
4602.16178,0.00179
4601.13153,0.00210
4600.10127,0.00232
4599.07101,0.00228
4598.04075,0.00187
4597.01049,0.00139
4595.98024,0.00129
4594.94998,0.00166
4593.91972,0.00227
4592.88946,0.00253
4591.85920,0.00233
4590.82895,0.00224
4589.79869,0.00245
4588.76843,0.00284
4587.73817,0.00292
4586.70792,0.00218
4585.67766,0.00127
4584.64740,0.00111
4583.61714,0.00153
4582.58688,0.00168
4581.55663,0.00140
4580.52637,0.00149
4579.49611,0.00182
4578.46585,0.00163
4577.43559,0.00168
4576.40534,0.00246
4575.37508,0.00334
4574.34482,0.00362
4573.31456,0.00293
4572.28431,0.00196
4571.25405,0.00156
4570.22379,0.00183
4569.19353,0.00231
4568.16327,0.00229
4567.13302,0.00227
4566.10276,0.00295
4565.07250,0.00348
4564.04224,0.00305
4563.01198,0.00225
4561.98173,0.00186
4560.95147,0.00201
4559.92121,0.00231
4558.89095,0.00227
4557.86070,0.00203
4556.83044,0.00195
4555.80018,0.00200
4554.76992,0.00230
4553.73966,0.00259
4552.70941,0.00225
4551.67915,0.00206
4550.64889,0.00237
4549.61863,0.00223
4548.58838,0.00187
4547.55812,0.00220
4546.52786,0.00287
4545.49760,0.00287
4544.46734,0.00237
4543.43709,0.00242
4542.40683,0.00285
4541.37657,0.00290
4540.34631,0.00307
4539.31605,0.00345
4538.28580,0.00345
4537.25554,0.00316
4536.22528,0.00245
4535.19502,0.00155
4534.16477,0.00129
4533.13451,0.00173
4532.10425,0.00256
4531.07399,0.00310
4530.04373,0.00255
4529.01348,0.00146
4527.98322,0.00092
4526.95296,0.00105
4525.92270,0.00160
4524.89244,0.00265
4523.86219,0.00340
4522.83193,0.00315
4521.80167,0.00267
4520.77141,0.00225
4519.74116,0.00179
4518.71090,0.00186
4517.68064,0.00231
4516.65038,0.00253
4515.62012,0.00233
4514.58987,0.00159
4513.55961,0.00103
4512.52935,0.00143
4511.49909,0.00221
4510.46883,0.00264
4509.43858,0.00289
4508.40832,0.00301
4507.37806,0.00326
4506.34780,0.00356
4505.31755,0.00304
4504.28729,0.00211
4503.25703,0.00183
4502.22677,0.00229
4501.19651,0.00268
4500.16626,0.00219
4499.13600,0.00133
4498.10574,0.00112
4497.07548,0.00157
4496.04523,0.00211
4495.01497,0.00216
4493.98471,0.00190
4492.95445,0.00199
4491.92419,0.00238
4490.89394,0.00268
4489.86368,0.00246
4488.83342,0.00203
4487.80316,0.00242
4486.77290,0.00296
4485.74265,0.00247
4484.71239,0.00183
4483.68213,0.00199
4482.65187,0.00267
4481.62162,0.00316
4480.59136,0.00273
4479.56110,0.00199
4478.53084,0.00221
4477.50058,0.00296
4476.47033,0.00312
4475.44007,0.00238
4474.40981,0.00126
4473.37955,0.00110
4472.34929,0.00200
4471.31904,0.00269
4470.28878,0.00297
4469.25852,0.00305
4468.22826,0.00269
4467.19801,0.00219
4466.16775,0.00207
4465.13749,0.00194
4464.10723,0.00185
4463.07697,0.00217
4462.04672,0.00214
4461.01646,0.00164
4459.98620,0.00156
4458.95594,0.00179
4457.92568,0.00169
4456.89543,0.00123
4455.86517,0.00145
4454.83491,0.00284
4453.80465,0.00392
4452.77440,0.00368
4451.74414,0.00279
4450.71388,0.00260
4449.68362,0.00331
4448.65336,0.00345
4447.62311,0.00271
4446.59285,0.00216
4445.56259,0.00213
4444.53233,0.00253
4443.50208,0.00284
4442.47182,0.00232
4441.44156,0.00175
4440.41130,0.00199
4439.38104,0.00250
4438.35079,0.00275
4437.32053,0.00304
4436.29027,0.00334
4435.26001,0.00320
4434.22975,0.00278
4433.19950,0.00223
4432.16924,0.00185
4431.13898,0.00188
4430.10872,0.00191
4429.07847,0.00193
4428.04821,0.00229
4427.01795,0.00280
4425.98769,0.00314
4424.95743,0.00342
4423.92718,0.00322
4422.89692,0.00251
4421.86666,0.00226
4420.83640,0.00274
4419.80614,0.00339
4418.77589,0.00349
4417.74563,0.00315
4416.71537,0.00286
4415.68511,0.00291
4414.65486,0.00321
4413.62460,0.00274
4412.59434,0.00179
4411.56408,0.00174
4410.53382,0.00220
4409.50357,0.00246
4408.47331,0.00293
4407.44305,0.00350
4406.41279,0.00333
4405.38253,0.00273
4404.35228,0.00262
4403.32202,0.00280
4402.29176,0.00303
4401.26150,0.00329
4400.23125,0.00321
4399.20099,0.00292
4398.17073,0.00269
4397.14047,0.00256
4396.11021,0.00265
4395.07996,0.00280
4394.04970,0.00287
4393.01944,0.00276
4391.98918,0.00233
4390.95893,0.00183
4389.92867,0.00191
4388.89841,0.00245
4387.86815,0.00292
4386.83789,0.00319
4385.80764,0.00322
4384.77738,0.00334
4383.74712,0.00336
4382.71686,0.00293
4381.68660,0.00257
4380.65635,0.00265
4379.62609,0.00283
4378.59583,0.00284
4377.56557,0.00287
4376.53532,0.00291
4375.50506,0.00291
4374.47480,0.00308
4373.44454,0.00333
4372.41428,0.00288
4371.38403,0.00212
4370.35377,0.00244
4369.32351,0.00315
4368.29325,0.00327
4367.26299,0.00316
4366.23274,0.00319
4365.20248,0.00318
4364.17222,0.00308
4363.14196,0.00345
4362.11171,0.00370
4361.08145,0.00324
4360.05119,0.00299
4359.02093,0.00332
4357.99067,0.00376
4356.96042,0.00392
4355.93016,0.00397
4354.89990,0.00421
4353.86964,0.00450
4352.83939,0.00416
4351.80913,0.00332
4350.77887,0.00323
4349.74861,0.00353
4348.71835,0.00319
4347.68810,0.00252
4346.65784,0.00191
4345.62758,0.00167
4344.59732,0.00218
4343.56706,0.00289
4342.53681,0.00311
4341.50655,0.00283
4340.47629,0.00230
4339.44603,0.00205
4338.41578,0.00220
4337.38552,0.00229
4336.35526,0.00220
4335.32500,0.00238
4334.29474,0.00305
4333.26449,0.00347
4332.23423,0.00336
4331.20397,0.00324
4330.17371,0.00298
4329.14345,0.00262
4328.11320,0.00264
4327.08294,0.00265
4326.05268,0.00203
4325.02242,0.00134
4323.99217,0.00143
4322.96191,0.00167
4321.93165,0.00174
4320.90139,0.00209
4319.87113,0.00232
4318.84088,0.00216
4317.81062,0.00203
4316.78036,0.00226
4315.75010,0.00268
4314.71984,0.00301
4313.68959,0.00331
4312.65933,0.00333
4311.62907,0.00298
4310.59881,0.00270
4309.56856,0.00270
4308.53830,0.00267
4307.50804,0.00241
4306.47778,0.00225
4305.44752,0.00212
4304.41727,0.00190
4303.38701,0.00179
4302.35675,0.00199
4301.32649,0.00274
4300.29624,0.00328
4299.26598,0.00285
4298.23572,0.00221
4297.20546,0.00204
4296.17520,0.00204
4295.14495,0.00220
4294.11469,0.00225
4293.08443,0.00189
4292.05417,0.00204
4291.02391,0.00268
4289.99366,0.00278
4288.96340,0.00285
4287.93314,0.00322
4286.90288,0.00321
4285.87263,0.00305
4284.84237,0.00288
4283.81211,0.00246
4282.78185,0.00231
4281.75159,0.00252
4280.72134,0.00252
4279.69108,0.00216
4278.66082,0.00199
4277.63056,0.00194
4276.60030,0.00179
4275.57005,0.00199
4274.53979,0.00227
4273.50953,0.00207
4272.47927,0.00203
4271.44902,0.00287
4270.41876,0.00364
4269.38850,0.00341
4268.35824,0.00288
4267.32798,0.00251
4266.29773,0.00189
4265.26747,0.00125
4264.23721,0.00113
4263.20695,0.00170
4262.17669,0.00239
4261.14644,0.00265
4260.11618,0.00272
4259.08592,0.00271
4258.05566,0.00249
4257.02541,0.00238
4255.99515,0.00287
4254.96489,0.00324
4253.93463,0.00282
4252.90437,0.00230
4251.87412,0.00227
4250.84386,0.00254
4249.81360,0.00271
4248.78334,0.00267
4247.75309,0.00254
4246.72283,0.00249
4245.69257,0.00250
4244.66231,0.00263
4243.63205,0.00287
4242.60180,0.00296
4241.57154,0.00273
4240.54128,0.00234
4239.51102,0.00210
4238.48076,0.00219
4237.45051,0.00256
4236.42025,0.00270
4235.38999,0.00239
4234.35973,0.00230
4233.32948,0.00280
4232.29922,0.00333
4231.26896,0.00326
4230.23870,0.00276
4229.20844,0.00248
4228.17819,0.00257
4227.14793,0.00284
4226.11767,0.00330
4225.08741,0.00349
4224.05715,0.00336
4223.02690,0.00326
4221.99664,0.00324
4220.96638,0.00327
4219.93612,0.00336
4218.90587,0.00362
4217.87561,0.00377
4216.84535,0.00355
4215.81509,0.00337
4214.78483,0.00326
4213.75458,0.00299
4212.72432,0.00295
4211.69406,0.00329
4210.66380,0.00351
4209.63354,0.00340
4208.60329,0.00328
4207.57303,0.00337
4206.54277,0.00348
4205.51251,0.00331
4204.48226,0.00292
4203.45200,0.00271
4202.42174,0.00290
4201.39148,0.00350
4200.36122,0.00407
4199.33097,0.00400
4198.30071,0.00352
4197.27045,0.00320
4196.24019,0.00292
4195.20994,0.00248
4194.17968,0.00220
4193.14942,0.00220
4192.11916,0.00232
4191.08890,0.00240
4190.05865,0.00222
4189.02839,0.00221
4187.99813,0.00276
4186.96787,0.00306
4185.93761,0.00300
4184.90736,0.00334
4183.87710,0.00381
4182.84684,0.00385
4181.81658,0.00342
4180.78633,0.00279
4179.75607,0.00248
4178.72581,0.00259
4177.69555,0.00282
4176.66529,0.00312
4175.63504,0.00323
4174.60478,0.00308
4173.57452,0.00321
4172.54426,0.00358
4171.51400,0.00378
4170.48375,0.00343
4169.45349,0.00280
4168.42323,0.00263
4167.39297,0.00264
4166.36272,0.00266
4165.33246,0.00271
4164.30220,0.00263
4163.27194,0.00297
4162.24168,0.00353
4161.21143,0.00356
4160.18117,0.00331
4159.15091,0.00338
4158.12065,0.00358
4157.09039,0.00366
4156.06014,0.00372
4155.02988,0.00333
4153.99962,0.00272
4152.96936,0.00244
4151.93911,0.00229
4150.90885,0.00233
4149.87859,0.00263
4148.84833,0.00291
4147.81807,0.00282
4146.78782,0.00273
4145.75756,0.00309
4144.72730,0.00317
4143.69704,0.00280
4142.66679,0.00276
4141.63653,0.00328
4140.60627,0.00368
4139.57601,0.00338
4138.54575,0.00277
4137.51550,0.00267
4136.48524,0.00294
4135.45498,0.00289
4134.42472,0.00286
4133.39446,0.00322
4132.36421,0.00342
4131.33395,0.00330
4130.30369,0.00347
4129.27343,0.00393
4128.24318,0.00392
4127.21292,0.00370
4126.18266,0.00399
4125.15240,0.00432
4124.12214,0.00420
4123.09189,0.00387
4122.06163,0.00362
4121.03137,0.00362
4120.00111,0.00373
4118.97085,0.00368
4117.94060,0.00359
4116.91034,0.00370
4115.88008,0.00395
4114.84982,0.00412
4113.81957,0.00415
4112.78931,0.00428
4111.75905,0.00438
4110.72879,0.00422
4109.69853,0.00409
4108.66828,0.00407
4107.63802,0.00415
4106.60776,0.00437
4105.57750,0.00448
4104.54724,0.00394
4103.51699,0.00300
4102.48673,0.00262
4101.45647,0.00297
4100.42621,0.00346
4099.39596,0.00373
4098.36570,0.00375
4097.33544,0.00362
4096.30518,0.00338
4095.27492,0.00290
4094.24467,0.00271
4093.21441,0.00326
4092.18415,0.00382
4091.15389,0.00369
4090.12364,0.00332
4089.09338,0.00334
4088.06312,0.00352
4087.03286,0.00352
4086.00260,0.00348
4084.97235,0.00358
4083.94209,0.00361
4082.91183,0.00348
4081.88157,0.00347
4080.85131,0.00364
4079.82106,0.00401
4078.79080,0.00454
4077.76054,0.00490
4076.73028,0.00482
4075.70003,0.00436
4074.66977,0.00393
4073.63951,0.00375
4072.60925,0.00380
4071.57899,0.00381
4070.54874,0.00357
4069.51848,0.00358
4068.48822,0.00416
4067.45796,0.00471
4066.42770,0.00473
4065.39745,0.00455
4064.36719,0.00471
4063.33693,0.00510
4062.30667,0.00496
4061.27642,0.00413
4060.24616,0.00342
4059.21590,0.00351
4058.18564,0.00421
4057.15538,0.00449
4056.12513,0.00427
4055.09487,0.00422
4054.06461,0.00449
4053.03435,0.00488
4052.00409,0.00501
4050.97384,0.00480
4049.94358,0.00450
4048.91332,0.00421
4047.88306,0.00405
4046.85281,0.00406
4045.82255,0.00418
4044.79229,0.00457
4043.76203,0.00490
4042.73177,0.00435
4041.70152,0.00344
4040.67126,0.00345
4039.64100,0.00410
4038.61074,0.00449
4037.58049,0.00456
4036.55023,0.00447
4035.51997,0.00453
4034.48971,0.00468
4033.45945,0.00475
4032.42920,0.00477
4031.39894,0.00465
4030.36868,0.00451
4029.33842,0.00458
4028.30816,0.00466
4027.27791,0.00451
4026.24765,0.00445
4025.21739,0.00470
4024.18713,0.00471
4023.15688,0.00434
4022.12662,0.00401
4021.09636,0.00401
4020.06610,0.00445
4019.03584,0.00474
4018.00559,0.00460
4016.97533,0.00468
4015.94507,0.00510
4014.91481,0.00522
4013.88455,0.00505
4012.85430,0.00491
4011.82404,0.00452
4010.79378,0.00403
4009.76352,0.00410
4008.73327,0.00448
4007.70301,0.00467
4006.67275,0.00468
4005.64249,0.00468
4004.61223,0.00482
4003.58198,0.00470
4002.55172,0.00435
4001.52146,0.00424
4000.49120,0.00417
3999.46095,0.00406
3998.43069,0.00378
3997.40043,0.00351
3996.37017,0.00388
3995.33991,0.00445
3994.30966,0.00432
3993.27940,0.00374
3992.24914,0.00370
3991.21888,0.00435
3990.18862,0.00472
3989.15837,0.00420
3988.12811,0.00353
3987.09785,0.00343
3986.06759,0.00385
3985.03734,0.00459
3984.00708,0.00524
3982.97682,0.00533
3981.94656,0.00497
3980.91630,0.00459
3979.88605,0.00439
3978.85579,0.00462
3977.82553,0.00516
3976.79527,0.00540
3975.76501,0.00534
3974.73476,0.00529
3973.70450,0.00487
3972.67424,0.00383
3971.64398,0.00292
3970.61373,0.00296
3969.58347,0.00375
3968.55321,0.00460
3967.52295,0.00503
3966.49269,0.00511
3965.46244,0.00500
3964.43218,0.00472
3963.40192,0.00454
3962.37166,0.00447
3961.34140,0.00433
3960.31115,0.00415
3959.28089,0.00419
3958.25063,0.00471
3957.22037,0.00525
3956.19012,0.00519
3955.15986,0.00505
3954.12960,0.00537
3953.09934,0.00554
3952.06908,0.00517
3951.03883,0.00482
3950.00857,0.00481
3948.97831,0.00463
3947.94805,0.00396
3946.91780,0.00364
3945.88754,0.00391
3944.85728,0.00417
3943.82702,0.00441
3942.79676,0.00482
3941.76651,0.00508
3940.73625,0.00484
3939.70599,0.00438
3938.67573,0.00418
3937.64547,0.00402
3936.61522,0.00362
3935.58496,0.00348
3934.55470,0.00368
3933.52444,0.00372
3932.49419,0.00368
3931.46393,0.00403
3930.43367,0.00444
3929.40341,0.00443
3928.37315,0.00404
3927.34290,0.00387
3926.31264,0.00425
3925.28238,0.00453
3924.25212,0.00435
3923.22186,0.00425
3922.19161,0.00447
3921.16135,0.00465
3920.13109,0.00467
3919.10083,0.00459
3918.07058,0.00447
3917.04032,0.00408
3916.01006,0.00365
3914.97980,0.00374
3913.94954,0.00392
3912.91929,0.00383
3911.88903,0.00369
3910.85877,0.00354
3909.82851,0.00340
3908.79825,0.00335
3907.76800,0.00346
3906.73774,0.00374
3905.70748,0.00370
3904.67722,0.00336
3903.64697,0.00364
3902.61671,0.00436
3901.58645,0.00446
3900.55619,0.00408
3899.52593,0.00427
3898.49568,0.00474
3897.46542,0.00471
3896.43516,0.00462
3895.40490,0.00455
3894.37465,0.00402
3893.34439,0.00317
3892.31413,0.00262
3891.28387,0.00250
3890.25361,0.00296
3889.22336,0.00350
3888.19310,0.00372
3887.16284,0.00437
3886.13258,0.00527
3885.10232,0.00522
3884.07207,0.00471
3883.04181,0.00451
3882.01155,0.00441
3880.98129,0.00433
3879.95104,0.00433
3878.92078,0.00410
3877.89052,0.00385
3876.86026,0.00402
3875.83000,0.00433
3874.79975,0.00450
3873.76949,0.00442
3872.73923,0.00400
3871.70897,0.00387
3870.67871,0.00423
3869.64846,0.00436
3868.61820,0.00409
3867.58794,0.00394
3866.55768,0.00355
3865.52743,0.00290
3864.49717,0.00325
3863.46691,0.00415
3862.43665,0.00407
3861.40639,0.00362
3860.37614,0.00360
3859.34588,0.00364
3858.31562,0.00385
3857.28536,0.00431
3856.25510,0.00436
3855.22485,0.00413
3854.19459,0.00442
3853.16433,0.00466
3852.13407,0.00423
3851.10382,0.00414
3850.07356,0.00430
3849.04330,0.00427
3848.01304,0.00426
3846.98278,0.00428
3845.95253,0.00403
3844.92227,0.00360
3843.89201,0.00324
3842.86175,0.00319
3841.83150,0.00343
3840.80124,0.00374
3839.77098,0.00407
3838.74072,0.00422
3837.71046,0.00383
3836.68021,0.00365
3835.64995,0.00397
3834.61969,0.00428
3833.58943,0.00406
3832.55917,0.00341
3831.52892,0.00311
3830.49866,0.00338
3829.46840,0.00384
3828.43814,0.00418
3827.40789,0.00420
3826.37763,0.00422
3825.34737,0.00438
3824.31711,0.00415
3823.28685,0.00362
3822.25660,0.00324
3821.22634,0.00356
3820.19608,0.00453
3819.16582,0.00473
3818.13556,0.00446
3817.10531,0.00441
3816.07505,0.00435
3815.04479,0.00412
3814.01453,0.00374
3812.98428,0.00353
3811.95402,0.00384
3810.92376,0.00419
3809.89350,0.00428
3808.86324,0.00426
3807.83299,0.00426
3806.80273,0.00416
3805.77247,0.00394
3804.74221,0.00390
3803.71195,0.00412
3802.68170,0.00457
3801.65144,0.00496
3800.62118,0.00500
3799.59092,0.00507
3798.56067,0.00524
3797.53041,0.00520
3796.50015,0.00516
3795.46989,0.00514
3794.43963,0.00463
3793.40938,0.00427
3792.37912,0.00454
3791.34886,0.00499
3790.31860,0.00518
3789.28835,0.00490
3788.25809,0.00448
3787.22783,0.00472
3786.19757,0.00541
3785.16731,0.00552
3784.13706,0.00496
3783.10680,0.00461
3782.07654,0.00474
3781.04628,0.00476
3780.01602,0.00466
3778.98577,0.00500
3777.95551,0.00560
3776.92525,0.00590
3775.89499,0.00562
3774.86474,0.00530
3773.83448,0.00512
3772.80422,0.00481
3771.77396,0.00472
3770.74370,0.00477
3769.71345,0.00474
3768.68319,0.00465
3767.65293,0.00444
3766.62267,0.00439
3765.59241,0.00464
3764.56216,0.00481
3763.53190,0.00496
3762.50164,0.00550
3761.47138,0.00609
3760.44113,0.00614
3759.41087,0.00584
3758.38061,0.00573
3757.35035,0.00556
3756.32009,0.00517
3755.28984,0.00495
3754.25958,0.00498
3753.22932,0.00514
3752.19906,0.00532
3751.16880,0.00540
3750.13855,0.00575
3749.10829,0.00645
3748.07803,0.00637
3747.04777,0.00528
3746.01752,0.00468
3744.98726,0.00588
3743.95700,0.00687
3742.92674,0.00606
3741.89648,0.00581
3740.86623,0.00592
3739.83597,0.00599
3738.80571,0.00648
3737.77545,0.00699
3736.74520,0.00674
3735.71494,0.00609
3734.68468,0.00618
3733.65442,0.00669
3732.62416,0.00671
3731.59391,0.00638
3730.56365,0.00625
3729.53339,0.00626
3728.50313,0.00644
3727.47287,0.00679
3726.44262,0.00697
3725.41236,0.00697
3724.38210,0.00705
3723.35184,0.00697
3722.32159,0.00667
3721.29133,0.00679
3720.26107,0.00736
3719.23081,0.00803
3718.20055,0.00848
3717.17030,0.00838
3716.14004,0.00801
3715.10978,0.00789
3714.07952,0.00849
3713.04926,0.00911
3712.01901,0.00863
3710.98875,0.00809
3709.95849,0.00842
3708.92823,0.00876
3707.89798,0.00891
3706.86772,0.00912
3705.83746,0.00905
3704.80720,0.00870
3703.77694,0.00846
3702.74669,0.00858
3701.71643,0.00943
3700.68617,0.01052
3699.65591,0.01082
3698.62565,0.01056
3697.59540,0.01043
3696.56514,0.01064
3695.53488,0.01089
3694.50462,0.01078
3693.47437,0.01090
3692.44411,0.01173
3691.41385,0.01261
3690.38359,0.01335
3689.35333,0.01385
3688.32308,0.01388
3687.29282,0.01431
3686.26256,0.01485
3685.23230,0.01484
3684.20205,0.01486
3683.17179,0.01533
3682.14153,0.01578
3681.11127,0.01608
3680.08101,0.01661
3679.05076,0.01748
3678.02050,0.01837
3676.99024,0.01901
3675.95998,0.01924
3674.92972,0.01915
3673.89947,0.01964
3672.86921,0.02048
3671.83895,0.02095
3670.80869,0.02167
3669.77844,0.02347
3668.74818,0.02471
3667.71792,0.02462
3666.68766,0.02465
3665.65740,0.02545
3664.62715,0.02648
3663.59689,0.02709
3662.56663,0.02733
3661.53637,0.02806
3660.50611,0.02944
3659.47586,0.03050
3658.44560,0.03101
3657.41534,0.03169
3656.38508,0.03248
3655.35483,0.03305
3654.32457,0.03369
3653.29431,0.03449
3652.26405,0.03513
3651.23379,0.03577
3650.20354,0.03669
3649.17328,0.03738
3648.14302,0.03786
3647.11276,0.03881
3646.08250,0.04030
3645.05225,0.04132
3644.02199,0.04155
3642.99173,0.04188
3641.96147,0.04286
3640.93122,0.04425
3639.90096,0.04554
3638.87070,0.04644
3637.84044,0.04719
3636.81018,0.04783
3635.77993,0.04826
3634.74967,0.04888
3633.71941,0.05007
3632.68915,0.05143
3631.65890,0.05241
3630.62864,0.05294
3629.59838,0.05329
3628.56812,0.05401
3627.53786,0.05524
3626.50761,0.05618
3625.47735,0.05648
3624.44709,0.05696
3623.41683,0.05828
3622.38657,0.05966
3621.35632,0.06035
3620.32606,0.06075
3619.29580,0.06105
3618.26554,0.06150
3617.23529,0.06266
3616.20503,0.06392
3615.17477,0.06477
3614.14451,0.06556
3613.11425,0.06650
3612.08400,0.06728
3611.05374,0.06793
3610.02348,0.06892
3608.99322,0.07015
3607.96296,0.07106
3606.93271,0.07210
3605.90245,0.07347
3604.87219,0.07442
3603.84193,0.07492
3602.81168,0.07559
3601.78142,0.07640
3600.75116,0.07699
3599.72090,0.07785
3598.69064,0.07914
3597.66039,0.08035
3596.63013,0.08166
3595.59987,0.08289
3594.56961,0.08356
3593.53936,0.08415
3592.50910,0.08532
3591.47884,0.08677
3590.44858,0.08790
3589.41832,0.08885
3588.38807,0.08987
3587.35781,0.09069
3586.32755,0.09133
3585.29729,0.09202
3584.26703,0.09282
3583.23678,0.09399
3582.20652,0.09539
3581.17626,0.09677
3580.14600,0.09804
3579.11575,0.09921
3578.08549,0.10049
3577.05523,0.10190
3576.02497,0.10313
3574.99471,0.10385
3573.96446,0.10426
3572.93420,0.10501
3571.90394,0.10635
3570.87368,0.10817
3569.84342,0.10975
3568.81317,0.11058
3567.78291,0.11123
3566.75265,0.11230
3565.72239,0.11353
3564.69214,0.11468
3563.66188,0.11569
3562.63162,0.11671
3561.60136,0.11789
3560.57110,0.11901
3559.54085,0.12024
3558.51059,0.12160
3557.48033,0.12271
3556.45007,0.12359
3555.41981,0.12455
3554.38956,0.12587
3553.35930,0.12737
3552.32904,0.12838
3551.29878,0.12899
3550.26853,0.12995
3549.23827,0.13130
3548.20801,0.13278
3547.17775,0.13429
3546.14749,0.13577
3545.11724,0.13694
3544.08698,0.13783
3543.05672,0.13882
3542.02646,0.13988
3540.99621,0.14065
3539.96595,0.14146
3538.93569,0.14309
3537.90543,0.14517
3536.87517,0.14679
3535.84492,0.14794
3534.81466,0.14903
3533.78440,0.15011
3532.75414,0.15133
3531.72388,0.15248
3530.69363,0.15301
3529.66337,0.15328
3528.63311,0.15422
3527.60285,0.15595
3526.57260,0.15764
3525.54234,0.15864
3524.51208,0.15937
3523.48182,0.16038
3522.45156,0.16162
3521.42131,0.16296
3520.39105,0.16387
3519.36079,0.16436
3518.33053,0.16573
3517.30027,0.16790
3516.27002,0.16948
3515.23976,0.17021
3514.20950,0.17093
3513.17924,0.17225
3512.14899,0.17377
3511.11873,0.17480
3510.08847,0.17547
3509.05821,0.17625
3508.02795,0.17741
3506.99770,0.17871
3505.96744,0.17951
3504.93718,0.18003
3503.90692,0.18086
3502.87666,0.18188
3501.84641,0.18286
3500.81615,0.18408
3499.78589,0.18564
3498.75563,0.18691
3497.72538,0.18773
3496.69512,0.18888
3495.66486,0.19055
3494.63460,0.19194
3493.60434,0.19251
3492.57409,0.19284
3491.54383,0.19392
3490.51357,0.19554
3489.48331,0.19693
3488.45306,0.19807
3487.42280,0.19910
3486.39254,0.20000
3485.36228,0.20074
3484.33202,0.20163
3483.30177,0.20280
3482.27151,0.20386
3481.24125,0.20461
3480.21099,0.20527
3479.18073,0.20623
3478.15048,0.20774
3477.12022,0.20912
3476.08996,0.21003
3475.05970,0.21120
3474.02945,0.21255
3472.99919,0.21378
3471.96893,0.21512
3470.93867,0.21606
3469.90841,0.21630
3468.87816,0.21651
3467.84790,0.21719
3466.81764,0.21835
3465.78738,0.21971
3464.75712,0.22076
3463.72687,0.22150
3462.69661,0.22238
3461.66635,0.22326
3460.63609,0.22404
3459.60584,0.22542
3458.57558,0.22748
3457.54532,0.22919
3456.51506,0.23022
3455.48480,0.23104
3454.45455,0.23231
3453.42429,0.23417
3452.39403,0.23564
3451.36377,0.23653
3450.33351,0.23753
3449.30326,0.23825
3448.27300,0.23837
3447.24274,0.23885
3446.21248,0.24021
3445.18223,0.24182
3444.15197,0.24288
3443.12171,0.24331
3442.09145,0.24418
3441.06119,0.24577
3440.03094,0.24675
3439.00068,0.24693
3437.97042,0.24742
3436.94016,0.24863
3435.90991,0.25001
3434.87965,0.25108
3433.84939,0.25206
3432.81913,0.25303
3431.78887,0.25374
3430.75862,0.25469
3429.72836,0.25618
3428.69810,0.25752
3427.66784,0.25840
3426.63758,0.25914
3425.60733,0.26005
3424.57707,0.26158
3423.54681,0.26340
3422.51655,0.26397
3421.48630,0.26341
3420.45604,0.26381
3419.42578,0.26541
3418.39552,0.26685
3417.36526,0.26785
3416.33501,0.26865
3415.30475,0.26978
3414.27449,0.27082
3413.24423,0.27117
3412.21397,0.27165
3411.18372,0.27255
3410.15346,0.27351
3409.12320,0.27436
3408.09294,0.27511
3407.06269,0.27586
3406.03243,0.27641
3405.00217,0.27672
3403.97191,0.27697
3402.94165,0.27741
3401.91140,0.27818
3400.88114,0.27886
3399.85088,0.27926
3398.82062,0.27995
3397.79036,0.28124
3396.76011,0.28235
3395.72985,0.28252
3394.69959,0.28236
3393.66933,0.28289
3392.63908,0.28347
3391.60882,0.28313
3390.57856,0.28292
3389.54830,0.28388
3388.51804,0.28522
3387.48779,0.28609
3386.45753,0.28664
3385.42727,0.28672
3384.39701,0.28630
3383.36676,0.28633
3382.33650,0.28673
3381.30624,0.28695
3380.27598,0.28725
3379.24572,0.28746
3378.21547,0.28748
3377.18521,0.28769
3376.15495,0.28799
3375.12469,0.28806
3374.09443,0.28785
3373.06418,0.28762
3372.03392,0.28777
3371.00366,0.28777
3369.97340,0.28717
3368.94315,0.28681
3367.91289,0.28690
3366.88263,0.28705
3365.85237,0.28777
3364.82211,0.28860
3363.79186,0.28826
3362.76160,0.28729
3361.73134,0.28718
3360.70108,0.28808
3359.67082,0.28858
3358.64057,0.28797
3357.61031,0.28730
3356.58005,0.28702
3355.54979,0.28711
3354.51954,0.28758
3353.48928,0.28763
3352.45902,0.28696
3351.42876,0.28582
3350.39850,0.28473
3349.36825,0.28428
3348.33799,0.28419
3347.30773,0.28405
3346.27747,0.28413
3345.24721,0.28456
3344.21696,0.28460
3343.18670,0.28408
3342.15644,0.28366
3341.12618,0.28333
3340.09593,0.28273
3339.06567,0.28214
3338.03541,0.28196
3337.00515,0.28185
3335.97489,0.28128
3334.94464,0.28074
3333.91438,0.28066
3332.88412,0.28059
3331.85386,0.28006
3330.82361,0.27935
3329.79335,0.27884
3328.76309,0.27837
3327.73283,0.27807
3326.70257,0.27778
3325.67232,0.27751
3324.64206,0.27776
3323.61180,0.27826
3322.58154,0.27851
3321.55128,0.27834
3320.52103,0.27805
3319.49077,0.27740
3318.46051,0.27614
3317.43025,0.27501
3316.40000,0.27463
3315.36974,0.27512
3314.33948,0.27586
3313.30922,0.27614
3312.27896,0.27585
3311.24871,0.27505
3310.21845,0.27423
3309.18819,0.27393
3308.15793,0.27376
3307.12767,0.27321
3306.09742,0.27263
3305.06716,0.27249
3304.03690,0.27265
3303.00664,0.27262
3301.97639,0.27216
3300.94613,0.27145
3299.91587,0.27102
3298.88561,0.27089
3297.85535,0.27070
3296.82510,0.27064
3295.79484,0.27099
3294.76458,0.27137
3293.73432,0.27130
3292.70406,0.27068
3291.67381,0.26956
3290.64355,0.26859
3289.61329,0.26853
3288.58303,0.26905
3287.55278,0.26924
3286.52252,0.26910
3285.49226,0.26886
3284.46200,0.26853
3283.43174,0.26825
3282.40149,0.26795
3281.37123,0.26763
3280.34097,0.26758
3279.31071,0.26769
3278.28046,0.26754
3277.25020,0.26731
3276.21994,0.26729
3275.18968,0.26711
3274.15942,0.26657
3273.12917,0.26584
3272.09891,0.26550
3271.06865,0.26561
3270.03839,0.26556
3269.00813,0.26550
3267.97788,0.26578
3266.94762,0.26596
3265.91736,0.26550
3264.88710,0.26459
3263.85685,0.26369
3262.82659,0.26294
3261.79633,0.26233
3260.76607,0.26200
3259.73581,0.26196
3258.70556,0.26186
3257.67530,0.26137
3256.64504,0.26084
3255.61478,0.26068
3254.58452,0.26050
3253.55427,0.26006
3252.52401,0.25954
3251.49375,0.25914
3250.46349,0.25904
3249.43324,0.25865
3248.40298,0.25772
3247.37272,0.25715
3246.34246,0.25678
3245.31220,0.25612
3244.28195,0.25562
3243.25169,0.25518
3242.22143,0.25464
3241.19117,0.25439
3240.16092,0.25421
3239.13066,0.25362
3238.10040,0.25309
3237.07014,0.25272
3236.03988,0.25227
3235.00963,0.25157
3233.97937,0.25041
3232.94911,0.24912
3231.91885,0.24807
3230.88859,0.24742
3229.85834,0.24708
3228.82808,0.24694
3227.79782,0.24682
3226.76756,0.24609
3225.73731,0.24466
3224.70705,0.24336
3223.67679,0.24244
3222.64653,0.24171
3221.61627,0.24131
3220.58602,0.24067
3219.55576,0.23931
3218.52550,0.23810
3217.49524,0.23708
3216.46498,0.23596
3215.43473,0.23516
3214.40447,0.23404
3213.37421,0.23245
3212.34395,0.23142
3211.31370,0.23083
3210.28344,0.23020
3209.25318,0.22956
3208.22292,0.22887
3207.19266,0.22787
3206.16241,0.22647
3205.13215,0.22491
3204.10189,0.22363
3203.07163,0.22307
3202.04137,0.22272
3201.01112,0.22163
3199.98086,0.21991
3198.95060,0.21841
3197.92034,0.21753
3196.89009,0.21685
3195.85983,0.21559
3194.82957,0.21367
3193.79931,0.21185
3192.76905,0.21060
3191.73880,0.20946
3190.70854,0.20806
3189.67828,0.20653
3188.64802,0.20531
3187.61777,0.20472
3186.58751,0.20391
3185.55725,0.20235
3184.52699,0.20062
3183.49673,0.19893
3182.46648,0.19745
3181.43622,0.19651
3180.40596,0.19571
3179.37570,0.19448
3178.34544,0.19282
3177.31519,0.19098
3176.28493,0.18939
3175.25467,0.18866
3174.22441,0.18848
3173.19416,0.18782
3172.16390,0.18660
3171.13364,0.18489
3170.10338,0.18271
3169.07312,0.18076
3168.04287,0.17930
3167.01261,0.17821
3165.98235,0.17748
3164.95209,0.17662
3163.92183,0.17525
3162.89158,0.17367
3161.86132,0.17240
3160.83106,0.17139
3159.80080,0.17021
3158.77055,0.16892
3157.74029,0.16764
3156.71003,0.16610
3155.67977,0.16438
3154.64951,0.16296
3153.61926,0.16196
3152.58900,0.16120
3151.55874,0.16052
3150.52848,0.15962
3149.49822,0.15828
3148.46797,0.15646
3147.43771,0.15470
3146.40745,0.15332
3145.37719,0.15196
3144.34694,0.15094
3143.31668,0.15022
3142.28642,0.14891
3141.25616,0.14727
3140.22590,0.14615
3139.19565,0.14528
3138.16539,0.14430
3137.13513,0.14327
3136.10487,0.14188
3135.07462,0.14009
3134.04436,0.13849
3133.01410,0.13737
3131.98384,0.13646
3130.95358,0.13529
3129.92333,0.13359
3128.89307,0.13214
3127.86281,0.13134
3126.83255,0.13049
3125.80229,0.12957
3124.77204,0.12860
3123.74178,0.12731
3122.71152,0.12600
3121.68126,0.12484
3120.65101,0.12367
3119.62075,0.12251
3118.59049,0.12143
3117.56023,0.12021
3116.52997,0.11875
3115.49972,0.11739
3114.46946,0.11632
3113.43920,0.11548
3112.40894,0.11481
3111.37868,0.11400
3110.34843,0.11283
3109.31817,0.11141
3108.28791,0.11020
3107.25765,0.10955
3106.22740,0.10925
3105.19714,0.10871
3104.16688,0.10747
3103.13662,0.10605
3102.10636,0.10517
3101.07611,0.10449
3100.04585,0.10364
3099.01559,0.10273
3097.98533,0.10163
3096.95507,0.10027
3095.92482,0.09909
3094.89456,0.09844
3093.86430,0.09794
3092.83404,0.09727
3091.80379,0.09626
3090.77353,0.09508
3089.74327,0.09414
3088.71301,0.09300
3087.68275,0.09156
3086.65250,0.09072
3085.62224,0.09068
3084.59198,0.09042
3083.56172,0.08950
3082.53147,0.08850
3081.50121,0.08753
3080.47095,0.08639
3079.44069,0.08554
3078.41043,0.08509
3077.38018,0.08431
3076.34992,0.08320
3075.31966,0.08221
3074.28940,0.08130
3073.25914,0.08067
3072.22889,0.08043
3071.19863,0.07996
3070.16837,0.07907
3069.13811,0.07825
3068.10786,0.07755
3067.07760,0.07676
3066.04734,0.07589
3065.01708,0.07515
3063.98682,0.07450
3062.95657,0.07367
3061.92631,0.07267
3060.89605,0.07187
3059.86579,0.07128
3058.83553,0.07054
3057.80528,0.06983
3056.77502,0.06942
3055.74476,0.06892
3054.71450,0.06818
3053.68425,0.06760
3052.65399,0.06736
3051.62373,0.06715
3050.59347,0.06666
3049.56321,0.06593
3048.53296,0.06495
3047.50270,0.06387
3046.47244,0.06308
3045.44218,0.06258
3044.41192,0.06212
3043.38167,0.06152
3042.35141,0.06092
3041.32115,0.06033
3040.29089,0.05993
3039.26064,0.05975
3038.23038,0.05922
3037.20012,0.05817
3036.16986,0.05717
3035.13960,0.05655
3034.10935,0.05624
3033.07909,0.05601
3032.04883,0.05551
3031.01857,0.05476
3029.98832,0.05402
3028.95806,0.05345
3027.92780,0.05314
3026.89754,0.05294
3025.86728,0.05266
3024.83703,0.05239
3023.80677,0.05202
3022.77651,0.05130
3021.74625,0.05040
3020.71599,0.04971
3019.68574,0.04941
3018.65548,0.04905
3017.62522,0.04848
3016.59496,0.04802
3015.56471,0.04747
3014.53445,0.04686
3013.50419,0.04656
3012.47393,0.04627
3011.44367,0.04585
3010.41342,0.04568
3009.38316,0.04561
3008.35290,0.04538
3007.32264,0.04524
3006.29238,0.04499
3005.26213,0.04427
3004.23187,0.04352
3003.20161,0.04310
3002.17135,0.04306
3001.14110,0.04319
3000.11084,0.04303
2999.08058,0.04264
2998.05032,0.04231
2997.02006,0.04203
2995.98981,0.04167
2994.95955,0.04132
2993.92929,0.04097
2992.89903,0.04062
2991.86877,0.04050
2990.83852,0.04055
2989.80826,0.04064
2988.77800,0.04091
2987.74774,0.04119
2986.71749,0.04119
2985.68723,0.04118
2984.65697,0.04131
2983.62671,0.04164
2982.59645,0.04230
2981.56620,0.04281
2980.53594,0.04306
2979.50568,0.04342
2978.47542,0.04400
2977.44517,0.04459
2976.41491,0.04503
2975.38465,0.04538
2974.35439,0.04596
2973.32413,0.04670
2972.29388,0.04720
2971.26362,0.04750
2970.23336,0.04796
2969.20310,0.04874
2968.17284,0.04958
2967.14259,0.05023
2966.11233,0.05054
2965.08207,0.05074
2964.05181,0.05126
2963.02156,0.05191
2961.99130,0.05244
2960.96104,0.05314
2959.93078,0.05396
2958.90052,0.05451
2957.87027,0.05487
2956.84001,0.05538
2955.80975,0.05592
2954.77949,0.05613
2953.74923,0.05605
2952.71898,0.05638
2951.68872,0.05715
2950.65846,0.05761
2949.62820,0.05765
2948.59795,0.05795
2947.56769,0.05861
2946.53743,0.05906
2945.50717,0.05904
2944.47691,0.05922
2943.44666,0.05991
2942.41640,0.06050
2941.38614,0.06057
2940.35588,0.06047
2939.32562,0.06084
2938.29537,0.06148
2937.26511,0.06171
2936.23485,0.06187
2935.20459,0.06235
2934.17434,0.06298
2933.14408,0.06348
2932.11382,0.06362
2931.08356,0.06385
2930.05330,0.06449
2929.02305,0.06530
2927.99279,0.06617
2926.96253,0.06695
2925.93227,0.06770
2924.90202,0.06818
2923.87176,0.06799
2922.84150,0.06785
2921.81124,0.06815
2920.78098,0.06843
2919.75073,0.06843
2918.72047,0.06810
2917.69021,0.06779
2916.65995,0.06765
2915.62969,0.06740
2914.59944,0.06708
2913.56918,0.06663
2912.53892,0.06600
2911.50866,0.06545
2910.47841,0.06506
2909.44815,0.06474
2908.41789,0.06437
2907.38763,0.06382
2906.35737,0.06334
2905.32712,0.06288
2904.29686,0.06212
2903.26660,0.06150
2902.23634,0.06127
2901.20608,0.06087
2900.17583,0.06035
2899.14557,0.05997
2898.11531,0.05961
2897.08505,0.05935
2896.05480,0.05919
2895.02454,0.05923
2893.99428,0.05956
2892.96402,0.05986
2891.93376,0.06006
2890.90351,0.06038
2889.87325,0.06080
2888.84299,0.06123
2887.81273,0.06174
2886.78247,0.06221
2885.75222,0.06243
2884.72196,0.06269
2883.69170,0.06322
2882.66144,0.06350
2881.63119,0.06352
2880.60093,0.06358
2879.57067,0.06324
2878.54041,0.06245
2877.51015,0.06179
2876.47990,0.06123
2875.44964,0.06021
2874.41938,0.05878
2873.38912,0.05754
2872.35887,0.05661
2871.32861,0.05553
2870.29835,0.05401
2869.26809,0.05242
2868.23783,0.05105
2867.20758,0.04984
2866.17732,0.04862
2865.14706,0.04741
2864.11680,0.04616
2863.08654,0.04481
2862.05629,0.04345
2861.02603,0.04217
2859.99577,0.04101
2858.96551,0.03997
2857.93526,0.03905
2856.90500,0.03803
2855.87474,0.03689
2854.84448,0.03579
2853.81422,0.03473
2852.78397,0.03372
2851.75371,0.03284
2850.72345,0.03232
2849.69319,0.03189
2848.66293,0.03102
2847.63268,0.03028
2846.60242,0.03014
2845.57216,0.02988
2844.54190,0.02922
2843.51165,0.02859
2842.48139,0.02797
2841.45113,0.02735
2840.42087,0.02699
2839.39061,0.02680
2838.36036,0.02670
2837.33010,0.02662
2836.29984,0.02626
2835.26958,0.02559
2834.23933,0.02500
2833.20907,0.02469
2832.17881,0.02444
2831.14855,0.02406
2830.11829,0.02366
2829.08804,0.02339
2828.05778,0.02328
2827.02752,0.02326
2825.99726,0.02324
2824.96700,0.02317
2823.93675,0.02303
2822.90649,0.02263
2821.87623,0.02203
2820.84597,0.02164
2819.81572,0.02152
2818.78546,0.02127
2817.75520,0.02079
2816.72494,0.02034
2815.69468,0.02025
2814.66443,0.02047
2813.63417,0.02057
2812.60391,0.02031
2811.57365,0.01980
2810.54339,0.01924
2809.51314,0.01884
2808.48288,0.01869
2807.45262,0.01853
2806.42236,0.01827
2805.39211,0.01795
2804.36185,0.01763
2803.33159,0.01749
2802.30133,0.01744
2801.27107,0.01727
2800.24082,0.01705
2799.21056,0.01673
2798.18030,0.01637
2797.15004,0.01617
2796.11978,0.01595
2795.08953,0.01555
2794.05927,0.01528
2793.02901,0.01533
2791.99875,0.01555
2790.96850,0.01578
2789.93824,0.01576
2788.90798,0.01539
2787.87772,0.01504
2786.84746,0.01480
2785.81721,0.01455
2784.78695,0.01435
2783.75669,0.01425
2782.72643,0.01414
2781.69618,0.01403
2780.66592,0.01385
2779.63566,0.01346
2778.60540,0.01316
2777.57514,0.01314
2776.54489,0.01312
2775.51463,0.01287
2774.48437,0.01272
2773.45411,0.01294
2772.42385,0.01313
2771.39360,0.01295
2770.36334,0.01288
2769.33308,0.01305
2768.30282,0.01303
2767.27257,0.01291
2766.24231,0.01285
2765.21205,0.01276
2764.18179,0.01264
2763.15153,0.01247
2762.12128,0.01228
2761.09102,0.01225
2760.06076,0.01232
2759.03050,0.01240
2758.00024,0.01252
2756.96999,0.01258
2755.93973,0.01231
2754.90947,0.01196
2753.87921,0.01198
2752.84896,0.01226
2751.81870,0.01238
2750.78844,0.01214
2749.75818,0.01171
2748.72792,0.01158
2747.69767,0.01174
2746.66741,0.01176
2745.63715,0.01160
2744.60689,0.01147
2743.57663,0.01151
2742.54638,0.01156
2741.51612,0.01133
2740.48586,0.01109
2739.45560,0.01104
2738.42535,0.01095
2737.39509,0.01097
2736.36483,0.01123
2735.33457,0.01128
2734.30431,0.01091
2733.27406,0.01045
2732.24380,0.01036
2731.21354,0.01056
2730.18328,0.01062
2729.15303,0.01038
2728.12277,0.01005
2727.09251,0.00997
2726.06225,0.01007
2725.03199,0.01010
2724.00174,0.01010
2722.97148,0.01022
2721.94122,0.01030
2720.91096,0.01009
2719.88070,0.00970
2718.85045,0.00948
2717.82019,0.00955
2716.78993,0.00969
2715.75967,0.00972
2714.72942,0.00957
2713.69916,0.00923
2712.66890,0.00895
2711.63864,0.00905
2710.60838,0.00937
2709.57813,0.00944
2708.54787,0.00934
2707.51761,0.00926
2706.48735,0.00912
2705.45709,0.00888
2704.42684,0.00877
2703.39658,0.00883
2702.36632,0.00896
2701.33606,0.00918
2700.30581,0.00920
2699.27555,0.00889
2698.24529,0.00856
2697.21503,0.00837
2696.18477,0.00829
2695.15452,0.00823
2694.12426,0.00814
2693.09400,0.00808
2692.06374,0.00819
2691.03348,0.00842
2690.00323,0.00844
2688.97297,0.00817
2687.94271,0.00793
2686.91245,0.00787
2685.88220,0.00783
2684.85194,0.00765
2683.82168,0.00752
2682.79142,0.00765
2681.76116,0.00770
2680.73091,0.00743
2679.70065,0.00726
2678.67039,0.00731
2677.64013,0.00734
2676.60988,0.00738
2675.57962,0.00738
2674.54936,0.00711
2673.51910,0.00675
2672.48884,0.00668
2671.45859,0.00692
2670.42833,0.00712
2669.39807,0.00733
2668.36781,0.00767
2667.33755,0.00790
2666.30730,0.00795
2665.27704,0.00783
2664.24678,0.00744
2663.21652,0.00714
2662.18627,0.00720
2661.15601,0.00728
2660.12575,0.00736
2659.09549,0.00761
2658.06523,0.00780
2657.03498,0.00765
2656.00472,0.00732
2654.97446,0.00719
2653.94420,0.00715
2652.91394,0.00703
2651.88369,0.00695
2650.85343,0.00691
2649.82317,0.00679
2648.79291,0.00671
2647.76266,0.00675
2646.73240,0.00671
2645.70214,0.00663
2644.67188,0.00679
2643.64162,0.00705
2642.61137,0.00703
2641.58111,0.00687
2640.55085,0.00697
2639.52059,0.00715
2638.49033,0.00708
2637.46008,0.00681
2636.42982,0.00657
2635.39956,0.00658
2634.36930,0.00680
2633.33905,0.00675
2632.30879,0.00651
2631.27853,0.00658
2630.24827,0.00689
2629.21801,0.00687
2628.18776,0.00644
2627.15750,0.00611
2626.12724,0.00595
2625.09698,0.00593
2624.06673,0.00619
2623.03647,0.00659
2622.00621,0.00679
2620.97595,0.00674
2619.94569,0.00684
2618.91544,0.00689
2617.88518,0.00638
2616.85492,0.00588
2615.82466,0.00575
2614.79440,0.00575
2613.76415,0.00576
2612.73389,0.00584
2611.70363,0.00599
2610.67337,0.00616
2609.64312,0.00648
2608.61286,0.00685
2607.58260,0.00672
2606.55234,0.00614
2605.52208,0.00578
2604.49183,0.00591
2603.46157,0.00613
2602.43131,0.00607
2601.40105,0.00602
2600.37079,0.00596
2599.34054,0.00575
2598.31028,0.00574
2597.28002,0.00600
2596.24976,0.00619
2595.21951,0.00605
2594.18925,0.00567
2593.15899,0.00521
2592.12873,0.00507
2591.09847,0.00566
2590.06822,0.00616
2589.03796,0.00613
2588.00770,0.00618
2586.97744,0.00621
2585.94718,0.00622
2584.91693,0.00659
2583.88667,0.00685
2582.85641,0.00648
2581.82615,0.00603
2580.79590,0.00587
2579.76564,0.00576
2578.73538,0.00586
2577.70512,0.00624
2576.67486,0.00635
2575.64461,0.00608
2574.61435,0.00568
2573.58409,0.00550
2572.55383,0.00558
2571.52358,0.00526
2570.49332,0.00480
2569.46306,0.00476
2568.43280,0.00518
2567.40254,0.00592
2566.37229,0.00601
2565.34203,0.00545
2564.31177,0.00544
2563.28151,0.00600
2562.25125,0.00633
2561.22100,0.00621
2560.19074,0.00618
2559.16048,0.00632
2558.13022,0.00619
2557.09997,0.00599
2556.06971,0.00586
2555.03945,0.00559
2554.00919,0.00536
2552.97893,0.00545
2551.94868,0.00579
2550.91842,0.00619
2549.88816,0.00642
2548.85790,0.00634
2547.82764,0.00618
2546.79739,0.00614
2545.76713,0.00605
2544.73687,0.00588
2543.70661,0.00596
2542.67636,0.00632
2541.64610,0.00663
2540.61584,0.00674
2539.58558,0.00662
2538.55532,0.00641
2537.52507,0.00623
2536.49481,0.00616
2535.46455,0.00608
2534.43429,0.00594
2533.40403,0.00586
2532.37378,0.00570
2531.34352,0.00562
2530.31326,0.00602
2529.28300,0.00636
2528.25275,0.00604
2527.22249,0.00583
2526.19223,0.00630
2525.16197,0.00659
2524.13171,0.00609
2523.10146,0.00552
2522.07120,0.00576
2521.04094,0.00611
2520.01068,0.00580
2518.98043,0.00560
2517.95017,0.00577
2516.91991,0.00576
2515.88965,0.00550
2514.85939,0.00515
2513.82914,0.00508
2512.79888,0.00559
2511.76862,0.00619
2510.73836,0.00656
2509.70810,0.00667
2508.67785,0.00638
2507.64759,0.00609
2506.61733,0.00634
2505.58707,0.00680
2504.55682,0.00677
2503.52656,0.00625
2502.49630,0.00583
2501.46604,0.00588
2500.43578,0.00589
2499.40553,0.00557
2498.37527,0.00528
2497.34501,0.00521
2496.31475,0.00544
2495.28449,0.00575
2494.25424,0.00608
2493.22398,0.00656
2492.19372,0.00676
2491.16346,0.00694
2490.13321,0.00748
2489.10295,0.00761
2488.07269,0.00709
2487.04243,0.00665
2486.01217,0.00639
2484.98192,0.00601
2483.95166,0.00585
2482.92140,0.00613
2481.89114,0.00648
2480.86088,0.00677
2479.83063,0.00687
2478.80037,0.00677
2477.77011,0.00667
2476.73985,0.00679
2475.70960,0.00694
2474.67934,0.00677
2473.64908,0.00679
2472.61882,0.00712
2471.58856,0.00708
2470.55831,0.00707
2469.52805,0.00726
2468.49779,0.00692
2467.46753,0.00630
2466.43728,0.00617
2465.40702,0.00679
2464.37676,0.00745
2463.34650,0.00757
2462.31624,0.00745
2461.28599,0.00732
2460.25573,0.00720
2459.22547,0.00722
2458.19521,0.00751
2457.16495,0.00750
2456.13470,0.00723
2455.10444,0.00760
2454.07418,0.00824
2453.04392,0.00822
2452.01367,0.00773
2450.98341,0.00712
2449.95315,0.00661
2448.92289,0.00640
2447.89263,0.00651
2446.86238,0.00678
2445.83212,0.00688
2444.80186,0.00715
2443.77160,0.00766
2442.74134,0.00766
2441.71109,0.00722
2440.68083,0.00691
2439.65057,0.00691
2438.62031,0.00720
2437.59006,0.00768
2436.55980,0.00803
2435.52954,0.00793
2434.49928,0.00764
2433.46902,0.00758
2432.43877,0.00791
2431.40851,0.00824
2430.37825,0.00815
2429.34799,0.00794
2428.31774,0.00803
2427.28748,0.00828
2426.25722,0.00814
2425.22696,0.00775
2424.19670,0.00767
2423.16645,0.00800
2422.13619,0.00826
2421.10593,0.00800
2420.07567,0.00762
2419.04541,0.00743
2418.01516,0.00753
2416.98490,0.00789
2415.95464,0.00828
2414.92438,0.00851
2413.89413,0.00834
2412.86387,0.00807
2411.83361,0.00800
2410.80335,0.00808
2409.77309,0.00814
2408.74284,0.00830
2407.71258,0.00855
2406.68232,0.00850
2405.65206,0.00814
2404.62180,0.00793
2403.59155,0.00819
2402.56129,0.00868
2401.53103,0.00877
2400.50077,0.00870
2399.47052,0.00889
2398.44026,0.00878
2397.41000,0.00847
2396.37974,0.00863
2395.34948,0.00893
2394.31923,0.00906
2393.28897,0.00916
2392.25871,0.00933
2391.22845,0.00955
2390.19819,0.00967
2389.16794,0.00963
2388.13768,0.00952
2387.10742,0.00915
2386.07716,0.00863
2385.04691,0.00848
2384.01665,0.00870
2382.98639,0.00907
2381.95613,0.00937
2380.92587,0.00957
2379.89562,0.00979
2378.86536,0.00999
2377.83510,0.01023
2376.80484,0.01039
2375.77459,0.01015
2374.74433,0.01008
2373.71407,0.01042
2372.68381,0.01096
2371.65355,0.01197
2370.62330,0.01273
2369.59304,0.01258
2368.56278,0.01187
2367.53252,0.01106
2366.50226,0.01108
2365.47201,0.01175
2364.44175,0.01158
2363.41149,0.01095
2362.38123,0.01131
2361.35098,0.01216
2360.32072,0.01175
2359.29046,0.01003
2358.26020,0.00915
2357.22994,0.00997
2356.19969,0.01100
2355.16943,0.01132
2354.13917,0.01140
2353.10891,0.01162
2352.07865,0.01156
2351.04840,0.01160
2350.01814,0.01224
2348.98788,0.01266
2347.95762,0.01245
2346.92737,0.01179
2345.89711,0.01118
2344.86685,0.01127
2343.83659,0.01170
2342.80633,0.01182
2341.77608,0.01189
2340.74582,0.01231
2339.71556,0.01269
2338.68530,0.01267
2337.65504,0.01270
2336.62479,0.01293
2335.59453,0.01300
2334.56427,0.01273
2333.53401,0.01261
2332.50376,0.01312
2331.47350,0.01363
2330.44324,0.01329
2329.41298,0.01260
2328.38272,0.01231
2327.35247,0.01229
2326.32221,0.01231
2325.29195,0.01222
2324.26169,0.01220
2323.23144,0.01240
2322.20118,0.01261
2321.17092,0.01259
2320.14066,0.01217
2319.11040,0.01136
2318.08015,0.01069
2317.04989,0.01070
2316.01963,0.01123
2314.98937,0.01189
2313.95911,0.01214
2312.92886,0.01208
2311.89860,0.01239
2310.86834,0.01282
2309.83808,0.01286
2308.80783,0.01255
2307.77757,0.01250
2306.74731,0.01264
2305.71705,0.01264
2304.68679,0.01267
2303.65654,0.01253
2302.62628,0.01199
2301.59602,0.01144
2300.56576,0.01132
2299.53550,0.01156
2298.50525,0.01183
2297.47499,0.01183
2296.44473,0.01149
2295.41447,0.01130
2294.38422,0.01168
2293.35396,0.01230
2292.32370,0.01274
2291.29344,0.01316
2290.26318,0.01336
2289.23293,0.01296
2288.20267,0.01274
2287.17241,0.01324
2286.14215,0.01341
2285.11189,0.01273
2284.08164,0.01186
2283.05138,0.01172
2282.02112,0.01219
2280.99086,0.01213
2279.96061,0.01172
2278.93035,0.01169
2277.90009,0.01192
2276.86983,0.01198
2275.83957,0.01182
2274.80932,0.01226
2273.77906,0.01325
2272.74880,0.01314
2271.71854,0.01235
2270.68829,0.01238
2269.65803,0.01257
2268.62777,0.01259
2267.59751,0.01274
2266.56725,0.01252
2265.53700,0.01223
2264.50674,0.01233
2263.47648,0.01225
2262.44622,0.01226
2261.41596,0.01311
2260.38571,0.01381
2259.35545,0.01360
2258.32519,0.01317
2257.29493,0.01286
2256.26468,0.01286
2255.23442,0.01312
2254.20416,0.01302
2253.17390,0.01265
2252.14364,0.01207
2251.11339,0.01164
2250.08313,0.01214
2249.05287,0.01315
2248.02261,0.01394
2246.99235,0.01394
2245.96210,0.01322
2244.93184,0.01294
2243.90158,0.01331
2242.87132,0.01313
2241.84107,0.01217
2240.81081,0.01138
2239.78055,0.01153
2238.75029,0.01230
2237.72003,0.01301
2236.68978,0.01348
2235.65952,0.01353
2234.62926,0.01389
2233.59900,0.01422
2232.56874,0.01357
2231.53849,0.01375
2230.50823,0.01509
2229.47797,0.01508
2228.44771,0.01369
2227.41746,0.01303
2226.38720,0.01318
2225.35694,0.01285
2224.32668,0.01223
2223.29642,0.01249
2222.26617,0.01401
2221.23591,0.01495
2220.20565,0.01405
2219.17539,0.01279
2218.14514,0.01235
2217.11488,0.01248
2216.08462,0.01252
2215.05436,0.01294
2214.02410,0.01410
2212.99385,0.01471
2211.96359,0.01390
2210.93333,0.01250
2209.90307,0.01181
2208.87281,0.01208
2207.84256,0.01278
2206.81230,0.01362
2205.78204,0.01478
2204.75178,0.01546
2203.72153,0.01496
2202.69127,0.01476
2201.66101,0.01538
2200.63075,0.01531
2199.60049,0.01443
2198.57024,0.01299
2197.53998,0.01151
2196.50972,0.01138
2195.47946,0.01165
2194.44920,0.01164
2193.41895,0.01239
2192.38869,0.01337
2191.35843,0.01358
2190.32817,0.01381
2189.29792,0.01487
2188.26766,0.01577
2187.23740,0.01518
2186.20714,0.01331
2185.17688,0.01241
2184.14663,0.01324
2183.11637,0.01340
2182.08611,0.01311
2181.05585,0.01426
2180.02559,0.01481
2178.99534,0.01438
2177.96508,0.01471
2176.93482,0.01501
2175.90456,0.01569
2174.87431,0.01647
2173.84405,0.01533
2172.81379,0.01373
2171.78353,0.01360
2170.75327,0.01390
2169.72302,0.01387
2168.69276,0.01426
2167.66250,0.01558
2166.63224,0.01628
2165.60199,0.01544
2164.57173,0.01499
2163.54147,0.01484
2162.51121,0.01309
2161.48095,0.01056
2160.45070,0.01015
2159.42044,0.01259
2158.39018,0.01438
2157.35992,0.01298
2156.32966,0.01214
2155.29941,0.01460
2154.26915,0.01577
2153.23889,0.01347
2152.20863,0.01191
2151.17838,0.01324
2150.14812,0.01528
2149.11786,0.01603
2148.08760,0.01635
2147.05734,0.01649
2146.02709,0.01554
2144.99683,0.01520
2143.96657,0.01628
2142.93631,0.01733
2141.90605,0.01782
2140.87580,0.01786
2139.84554,0.01771
2138.81528,0.01703
2137.78502,0.01600
2136.75477,0.01567
2135.72451,0.01592
2134.69425,0.01598
2133.66399,0.01619
2132.63373,0.01680
2131.60348,0.01707
2130.57322,0.01700
2129.54296,0.01701
2128.51270,0.01687
2127.48244,0.01715
2126.45219,0.01831
2125.42193,0.01891
2124.39167,0.01808
2123.36141,0.01703
2122.33116,0.01644
2121.30090,0.01649
2120.27064,0.01758
2119.24038,0.01863
2118.21012,0.01864
2117.17987,0.01879
2116.14961,0.01942
2115.11935,0.01939
2114.08909,0.01875
2113.05884,0.01817
2112.02858,0.01801
2110.99832,0.01825
2109.96806,0.01827
2108.93780,0.01775
2107.90755,0.01709
2106.87729,0.01702
2105.84703,0.01757
2104.81677,0.01790
2103.78651,0.01812
2102.75626,0.01902
2101.72600,0.02008
2100.69574,0.02019
2099.66548,0.01939
2098.63523,0.01784
2097.60497,0.01642
2096.57471,0.01669
2095.54445,0.01790
2094.51419,0.01862
2093.48394,0.01902
2092.45368,0.01956
2091.42342,0.01980
2090.39316,0.01923
2089.36290,0.01845
2088.33265,0.01822
2087.30239,0.01826
2086.27213,0.01819
2085.24187,0.01796
2084.21162,0.01764
2083.18136,0.01710
2082.15110,0.01675
2081.12084,0.01755
2080.09058,0.01853
2079.06033,0.01803
2078.03007,0.01678
2076.99981,0.01637
2075.96955,0.01686
2074.93930,0.01708
2073.90904,0.01672
2072.87878,0.01638
2071.84852,0.01591
2070.81826,0.01592
2069.78801,0.01703
2068.75775,0.01742
2067.72749,0.01600
2066.69723,0.01442
2065.66697,0.01430
2064.63672,0.01480
2063.60646,0.01456
2062.57620,0.01430
2061.54594,0.01489
2060.51569,0.01573
2059.48543,0.01583
2058.45517,0.01545
2057.42491,0.01539
2056.39465,0.01569
2055.36440,0.01582
2054.33414,0.01550
2053.30388,0.01564
2052.27362,0.01630
2051.24336,0.01591
2050.21311,0.01459
2049.18285,0.01380
2048.15259,0.01384
2047.12233,0.01471
2046.09208,0.01647
2045.06182,0.01825
2044.03156,0.01888
2043.00130,0.01834
2041.97104,0.01666
2040.94079,0.01477
2039.91053,0.01378
2038.88027,0.01306
2037.85001,0.01316
2036.81975,0.01394
2035.78950,0.01334
2034.75924,0.01192
2033.72898,0.01164
2032.69872,0.01194
2031.66847,0.01185
2030.63821,0.01234
2029.60795,0.01302
2028.57769,0.01330
2027.54743,0.01407
2026.51718,0.01480
2025.48692,0.01514
2024.45666,0.01549
2023.42640,0.01535
2022.39615,0.01415
2021.36589,0.01295
2020.33563,0.01280
2019.30537,0.01270
2018.27511,0.01320
2017.24486,0.01477
2016.21460,0.01467
2015.18434,0.01314
2014.15408,0.01288
2013.12382,0.01298
2012.09357,0.01161
2011.06331,0.00994
2010.03305,0.01007
2009.00279,0.01181
2007.97254,0.01402
2006.94228,0.01531
2005.91202,0.01406
2004.88176,0.01230
2003.85150,0.01180
2002.82125,0.01215
2001.79099,0.01273
2000.76073,0.01190
1999.73047,0.01087
1998.70021,0.01152
1997.66996,0.01195
1996.63970,0.01147
1995.60944,0.01157
1994.57918,0.01215
1993.54893,0.01208
1992.51867,0.01124
1991.48841,0.01224
1990.45815,0.01507
1989.42789,0.01580
1988.39764,0.01493
1987.36738,0.01507
1986.33712,0.01541
1985.30686,0.01461
1984.27660,0.01284
1983.24635,0.01078
1982.21609,0.00939
1981.18583,0.00973
1980.15557,0.01116
1979.12532,0.01139
1978.09506,0.01077
1977.06480,0.01109
1976.03454,0.01184
1975.00428,0.01315
1973.97403,0.01473
1972.94377,0.01462
1971.91351,0.01249
1970.88325,0.01079
1969.85300,0.01185
1968.82274,0.01371
1967.79248,0.01426
1966.76222,0.01437
1965.73196,0.01390
1964.70171,0.01252
1963.67145,0.01154
1962.64119,0.01112
1961.61093,0.01088
1960.58067,0.01188
1959.55042,0.01326
1958.52016,0.01278
1957.48990,0.01140
1956.45964,0.01088
1955.42939,0.01146
1954.39913,0.01256
1953.36887,0.01301
1952.33861,0.01283
1951.30835,0.01288
1950.27810,0.01304
1949.24784,0.01246
1948.21758,0.01110
1947.18732,0.00982
1946.15706,0.00994
1945.12681,0.01182
1944.09655,0.01333
1943.06629,0.01345
1942.03603,0.01278
1941.00578,0.01168
1939.97552,0.01136
1938.94526,0.01206
1937.91500,0.01229
1936.88474,0.01153
1935.85449,0.01098
1934.82423,0.01095
1933.79397,0.01071
1932.76371,0.01073
1931.73345,0.01162
1930.70320,0.01266
1929.67294,0.01322
1928.64268,0.01266
1927.61242,0.01140
1926.58217,0.01123
1925.55191,0.01212
1924.52165,0.01270
1923.49139,0.01247
1922.46113,0.01190
1921.43088,0.01175
1920.40062,0.01189
1919.37036,0.01149
1918.34010,0.01047
1917.30985,0.01015
1916.27959,0.01066
1915.24933,0.01126
1914.21907,0.01177
1913.18881,0.01139
1912.15856,0.01007
1911.12830,0.00929
1910.09804,0.00951
1909.06778,0.01016
1908.03752,0.01080
1907.00727,0.01121
1905.97701,0.01112
1904.94675,0.01072
1903.91649,0.01069
1902.88624,0.01060
1901.85598,0.00997
1900.82572,0.00983
1899.79546,0.01049
1898.76520,0.01099
1897.73495,0.01116
1896.70469,0.01092
1895.67443,0.01009
1894.64417,0.00954
1893.61391,0.00978
1892.58366,0.01030
1891.55340,0.01053
1890.52314,0.01042
1889.49288,0.01054
1888.46263,0.01085
1887.43237,0.01073
1886.40211,0.01061
1885.37185,0.01073
1884.34159,0.01059
1883.31134,0.01051
1882.28108,0.01067
1881.25082,0.01042
1880.22056,0.00994
1879.19030,0.01004
1878.16005,0.01058
1877.12979,0.01109
1876.09953,0.01156
1875.06927,0.01163
1874.03902,0.01118
1873.00876,0.01100
1871.97850,0.01115
1870.94824,0.01128
1869.91798,0.01146
1868.88773,0.01115
1867.85747,0.01053
1866.82721,0.01025
1865.79695,0.01019
1864.76670,0.01034
1863.73644,0.01061
1862.70618,0.01077
1861.67592,0.01062
1860.64566,0.01018
1859.61541,0.00984
1858.58515,0.00986
1857.55489,0.01023
1856.52463,0.01055
1855.49437,0.01063
1854.46412,0.01070
1853.43386,0.01063
1852.40360,0.01017
1851.37334,0.01005
1850.34309,0.01031
1849.31283,0.01032
1848.28257,0.01061
1847.25231,0.01115
1846.22205,0.01124
1845.19180,0.01123
1844.16154,0.01142
1843.13128,0.01134
1842.10102,0.01094
1841.07076,0.01079
1840.04051,0.01106
1839.01025,0.01138
1837.97999,0.01149
1836.94973,0.01160
1835.91948,0.01158
1834.88922,0.01142
1833.85896,0.01136
1832.82870,0.01122
1831.79844,0.01107
1830.76819,0.01107
1829.73793,0.01089
1828.70767,0.01086
1827.67741,0.01116
1826.64715,0.01139
1825.61690,0.01145
1824.58664,0.01149
1823.55638,0.01164
1822.52612,0.01188
1821.49587,0.01189
1820.46561,0.01169
1819.43535,0.01170
1818.40509,0.01200
1817.37483,0.01221
1816.34458,0.01216
1815.31432,0.01209
1814.28406,0.01218
1813.25380,0.01240
1812.22355,0.01257
1811.19329,0.01244
1810.16303,0.01217
1809.13277,0.01222
1808.10251,0.01261
1807.07226,0.01275
1806.04200,0.01251
1805.01174,0.01234
1803.98148,0.01218
1802.95122,0.01212
1801.92097,0.01252
1800.89071,0.01290
1799.86045,0.01302
1798.83019,0.01316
1797.79994,0.01328
1796.76968,0.01331
1795.73942,0.01356
1794.70916,0.01415
1793.67890,0.01454
1792.64865,0.01431
1791.61839,0.01386
1790.58813,0.01388
1789.55787,0.01429
1788.52761,0.01430
1787.49736,0.01389
1786.46710,0.01370
1785.43684,0.01365
1784.40658,0.01362
1783.37633,0.01406
1782.34607,0.01475
1781.31581,0.01523
1780.28555,0.01531
1779.25529,0.01518
1778.22504,0.01507
1777.19478,0.01496
1776.16452,0.01507
1775.13426,0.01541
1774.10400,0.01552
1773.07375,0.01520
1772.04349,0.01486
1771.01323,0.01524
1769.98297,0.01598
1768.95272,0.01654
1767.92246,0.01667
1766.89220,0.01651
1765.86194,0.01652
1764.83168,0.01675
1763.80143,0.01711
1762.77117,0.01750
1761.74091,0.01766
1760.71065,0.01769
1759.68040,0.01809
1758.65014,0.01867
1757.61988,0.01892
1756.58962,0.01887
1755.55936,0.01883
1754.52911,0.01881
1753.49885,0.01882
1752.46859,0.01895
1751.43833,0.01927
1750.40807,0.01978
1749.37782,0.02037
1748.34756,0.02091
1747.31730,0.02128
1746.28704,0.02168
1745.25679,0.02205
1744.22653,0.02221
1743.19627,0.02231
1742.16601,0.02252
1741.13575,0.02270
1740.10550,0.02295
1739.07524,0.02360
1738.04498,0.02447
1737.01472,0.02503
1735.98446,0.02520
1734.95421,0.02526
1733.92395,0.02560
1732.89369,0.02601
1731.86343,0.02634
1730.83318,0.02689
1729.80292,0.02765
1728.77266,0.02820
1727.74240,0.02860
1726.71214,0.02919
1725.68189,0.02991
1724.65163,0.03053
1723.62137,0.03095
1722.59111,0.03137
1721.56085,0.03202
1720.53060,0.03269
1719.50034,0.03319
1718.47008,0.03380
1717.43982,0.03462
1716.40957,0.03523
1715.37931,0.03602
1714.34905,0.03714
1713.31879,0.03805
1712.28853,0.03888
1711.25828,0.03990
1710.22802,0.04105
1709.19776,0.04209
1708.16750,0.04289
1707.13725,0.04378
1706.10699,0.04494
1705.07673,0.04617
1704.04647,0.04736
1703.01621,0.04843
1701.98596,0.04944
1700.95570,0.05072
1699.92544,0.05278
1698.89518,0.05437
1697.86492,0.05549
1696.83467,0.05683
1695.80441,0.05886
1694.77415,0.06069
1693.74389,0.06190
1692.71364,0.06313
1691.68338,0.06437
1690.65312,0.06574
1689.62286,0.06738
1688.59260,0.06903
1687.56235,0.07074
1686.53209,0.07257
1685.50183,0.07454
1684.47157,0.07676
1683.44131,0.07860
1682.41106,0.08007
1681.38080,0.08175
1680.35054,0.08376
1679.32028,0.08596
1678.29003,0.08816
1677.25977,0.09034
1676.22951,0.09224
1675.19925,0.09416
1674.16899,0.09633
1673.13874,0.09826
1672.10848,0.10012
1671.07822,0.10214
1670.04796,0.10423
1669.01771,0.10640
1667.98745,0.10825
1666.95719,0.10984
1665.92693,0.11178
1664.89667,0.11413
1663.86642,0.11650
1662.83616,0.11870
1661.80590,0.12082
1660.77564,0.12277
1659.74538,0.12455
1658.71513,0.12610
1657.68487,0.12762
1656.65461,0.12933
1655.62435,0.13100
1654.59410,0.13240
1653.56384,0.13351
1652.53358,0.13457
1651.50332,0.13610
1650.47306,0.13790
1649.44281,0.13950
1648.41255,0.14064
1647.38229,0.14173
1646.35203,0.14275
1645.32177,0.14313
1644.29152,0.14342
1643.26126,0.14366
1642.23100,0.14376
1641.20074,0.14387
1640.17049,0.14391
1639.14023,0.14396
1638.10997,0.14393
1637.07971,0.14370
1636.04945,0.14291
1635.01920,0.14139
1633.98894,0.14054
1632.95868,0.14015
1631.92842,0.13910
1630.89816,0.13741
1629.86791,0.13577
1628.83765,0.13433
1627.80739,0.13244
1626.77713,0.13040
1625.74688,0.12878
1624.71662,0.12702
1623.68636,0.12446
1622.65610,0.12152
1621.62584,0.11927
1620.59559,0.11727
1619.56533,0.11508
1618.53507,0.11286
1617.50481,0.11055
1616.47456,0.10734
1615.44430,0.10452
1614.41404,0.10263
1613.38378,0.10064
1612.35352,0.09837
1611.32327,0.09600
1610.29301,0.09371
1609.26275,0.09153
1608.23249,0.08956
1607.20223,0.08748
1606.17198,0.08532
1605.14172,0.08348
1604.11146,0.08189
1603.08120,0.08013
1602.05095,0.07828
1601.02069,0.07658
1599.99043,0.07510
1598.96017,0.07374
1597.92991,0.07233
1596.89966,0.07091
1595.86940,0.06953
1594.83914,0.06820
1593.80888,0.06702
1592.77862,0.06598
1591.74837,0.06484
1590.71811,0.06378
1589.68785,0.06288
1588.65759,0.06194
1587.62734,0.06102
1586.59708,0.06016
1585.56682,0.05928
1584.53656,0.05850
1583.50630,0.05771
1582.47605,0.05686
1581.44579,0.05620
1580.41553,0.05577
1579.38527,0.05532
1578.35501,0.05470
1577.32476,0.05387
1576.29450,0.05248
1575.26424,0.05127
1574.23398,0.05091
1573.20373,0.05069
1572.17347,0.05031
1571.14321,0.04981
1570.11295,0.04924
1569.08269,0.04857
1568.05244,0.04814
1567.02218,0.04794
1565.99192,0.04762
1564.96166,0.04704
1563.93141,0.04639
1562.90115,0.04589
1561.87089,0.04553
1560.84063,0.04529
1559.81037,0.04512
1558.78012,0.04465
1557.74986,0.04399
1556.71960,0.04370
1555.68934,0.04353
1554.65908,0.04343
1553.62883,0.04327
1552.59857,0.04287
1551.56831,0.04243
1550.53805,0.04210
1549.50780,0.04207
1548.47754,0.04206
1547.44728,0.04165
1546.41702,0.04122
1545.38676,0.04105
1544.35651,0.04073
1543.32625,0.04040
1542.29599,0.04046
1541.26573,0.04042
1540.23547,0.03979
1539.20522,0.03933
1538.17496,0.03955
1537.14470,0.03978
1536.11444,0.03975
1535.08419,0.03950
1534.05393,0.03919
1533.02367,0.03899
1531.99341,0.03896
1530.96315,0.03883
1529.93290,0.03863
1528.90264,0.03848
1527.87238,0.03829
1526.84212,0.03827
1525.81186,0.03838
1524.78161,0.03839
1523.75135,0.03839
1522.72109,0.03820
1521.69083,0.03786
1520.66058,0.03775
1519.63032,0.03772
1518.60006,0.03763
1517.56980,0.03725
1516.53954,0.03675
1515.50929,0.03688
1514.47903,0.03733
1513.44877,0.03758
1512.41851,0.03772
1511.38826,0.03773
1510.35800,0.03744
1509.32774,0.03729
1508.29748,0.03738
1507.26722,0.03686
1506.23697,0.03610
1505.20671,0.03646
1504.17645,0.03704
1503.14619,0.03738
1502.11593,0.03750
1501.08568,0.03747
1500.05542,0.03748
1499.02516,0.03752
1497.99490,0.03767
1496.96465,0.03797
1495.93439,0.03842
1494.90413,0.03885
1493.87387,0.03914
1492.84361,0.03948
1491.81336,0.03992
1490.78310,0.04038
1489.75284,0.04103
1488.72258,0.04173
1487.69232,0.04232
1486.66207,0.04295
1485.63181,0.04357
1484.60155,0.04423
1483.57129,0.04501
1482.54104,0.04584
1481.51078,0.04695
1480.48052,0.04864
1479.45026,0.05073
1478.42000,0.05296
1477.38975,0.05528
1476.35949,0.05792
1475.32923,0.06042
1474.29897,0.06214
1473.26871,0.06330
1472.23846,0.06385
1471.20820,0.06376
1470.17794,0.06348
1469.14768,0.06326
1468.11743,0.06314
1467.08717,0.06323
1466.05691,0.06349
1465.02665,0.06386
1463.99639,0.06422
1462.96614,0.06443
1461.93588,0.06464
1460.90562,0.06501
1459.87536,0.06547
1458.84511,0.06608
1457.81485,0.06678
1456.78459,0.06723
1455.75433,0.06740
1454.72407,0.06701
1453.69382,0.06599
1452.66356,0.06442
1451.63330,0.06259
1450.60304,0.06102
1449.57278,0.05989
1448.54253,0.05923
1447.51227,0.05870
1446.48201,0.05777
1445.45175,0.05662
1444.42150,0.05570
1443.39124,0.05495
1442.36098,0.05391
1441.33072,0.05259
1440.30046,0.05126
1439.27021,0.05004
1438.23995,0.04900
1437.20969,0.04786
1436.17943,0.04668
1435.14917,0.04628
1434.11892,0.04613
1433.08866,0.04568
1432.05840,0.04510
1431.02814,0.04478
1429.99789,0.04474
1428.96763,0.04463
1427.93737,0.04436
1426.90711,0.04417
1425.87685,0.04424
1424.84660,0.04429
1423.81634,0.04413
1422.78608,0.04384
1421.75582,0.04365
1420.72556,0.04368
1419.69531,0.04371
1418.66505,0.04357
1417.63479,0.04344
1416.60453,0.04336
1415.57428,0.04333
1414.54402,0.04338
1413.51376,0.04343
1412.48350,0.04348
1411.45324,0.04357
1410.42299,0.04364
1409.39273,0.04361
1408.36247,0.04338
1407.33221,0.04316
1406.30196,0.04318
1405.27170,0.04330
1404.24144,0.04339
1403.21118,0.04358
1402.18092,0.04391
1401.15067,0.04417
1400.12041,0.04419
1399.09015,0.04394
1398.05989,0.04368
1397.02963,0.04378
1395.99938,0.04398
1394.96912,0.04394
1393.93886,0.04381
1392.90860,0.04370
1391.87835,0.04366
1390.84809,0.04390
1389.81783,0.04419
1388.78757,0.04412
1387.75731,0.04397
1386.72706,0.04418
1385.69680,0.04450
1384.66654,0.04476
1383.63628,0.04496
1382.60602,0.04490
1381.57577,0.04474
1380.54551,0.04485
1379.51525,0.04527
1378.48499,0.04583
1377.45474,0.04641
1376.42448,0.04692
1375.39422,0.04734
1374.36396,0.04773
1373.33370,0.04817
1372.30345,0.04872
1371.27319,0.04944
1370.24293,0.05026
1369.21267,0.05109
1368.18241,0.05200
1367.15216,0.05300
1366.12190,0.05407
1365.09164,0.05519
1364.06138,0.05637
1363.03113,0.05808
1362.00087,0.06032
1360.97061,0.06257
1359.94035,0.06476
1358.91009,0.06702
1357.87984,0.06939
1356.84958,0.07200
1355.81932,0.07490
1354.78906,0.07800
1353.75881,0.08110
1352.72855,0.08389
1351.69829,0.08632
1350.66803,0.08844
1349.63777,0.08973
1348.60752,0.08911
1347.57726,0.08615
1346.54700,0.08119
1345.51674,0.07473
1344.48648,0.06778
1343.45623,0.06172
1342.42597,0.05732
1341.39571,0.05465
1340.36545,0.05322
1339.33520,0.05243
1338.30494,0.05187
1337.27468,0.05139
1336.24442,0.05122
1335.21416,0.05145
1334.18391,0.05178
1333.15365,0.05193
1332.12339,0.05178
1331.09313,0.05132
1330.06287,0.05069
1329.03262,0.05010
1328.00236,0.04955
1326.97210,0.04899
1325.94184,0.04842
1324.91159,0.04805
1323.88133,0.04799
1322.85107,0.04778
1321.82081,0.04738
1320.79055,0.04734
1319.76030,0.04769
1318.73004,0.04819
1317.69978,0.04885
1316.66952,0.04960
1315.63927,0.05031
1314.60901,0.05113
1313.57875,0.05221
1312.54849,0.05347
1311.51823,0.05471
1310.48798,0.05597
1309.45772,0.05745
1308.42746,0.05902
1307.39720,0.06031
1306.36694,0.06129
1305.33669,0.06229
1304.30643,0.06326
1303.27617,0.06393
1302.24591,0.06430
1301.21566,0.06449
1300.18540,0.06471
1299.15514,0.06512
1298.12488,0.06542
1297.09462,0.06535
1296.06437,0.06525
1295.03411,0.06535
1294.00385,0.06539
1292.97359,0.06519
1291.94333,0.06494
1290.91308,0.06490
1289.88282,0.06500
1288.85256,0.06496
1287.82230,0.06481
1286.79205,0.06471
1285.76179,0.06446
1284.73153,0.06392
1283.70127,0.06332
1282.67101,0.06265
1281.64076,0.06172
1280.61050,0.06060
1279.58024,0.05959
1278.54998,0.05888
1277.51972,0.05834
1276.48947,0.05779
1275.45921,0.05709
1274.42895,0.05639
1273.39869,0.05599
1272.36844,0.05587
1271.33818,0.05584
1270.30792,0.05580
1269.27766,0.05570
1268.24740,0.05573
1267.21715,0.05628
1266.18689,0.05737
1265.15663,0.05850
1264.12637,0.05951
1263.09612,0.06061
1262.06586,0.06183
1261.03560,0.06322
1260.00534,0.06473
1258.97508,0.06599
1257.94483,0.06716
1256.91457,0.06867
1255.88431,0.07017
1254.85405,0.07110
1253.82379,0.07170
1252.79354,0.07237
1251.76328,0.07288
1250.73302,0.07293
1249.70276,0.07245
1248.67251,0.07145
1247.64225,0.07024
1246.61199,0.06909
1245.58173,0.06783
1244.55147,0.06627
1243.52122,0.06460
1242.49096,0.06309
1241.46070,0.06182
1240.43044,0.06072
1239.40018,0.05971
1238.36993,0.05868
1237.33967,0.05755
1236.30941,0.05639
1235.27915,0.05526
1234.24890,0.05407
1233.21864,0.05296
1232.18838,0.05208
1231.15812,0.05111
1230.12786,0.05006
1229.09761,0.04928
1228.06735,0.04884
1227.03709,0.04858
1226.00683,0.04823
1224.97657,0.04763
1223.94632,0.04701
1222.91606,0.04661
1221.88580,0.04642
1220.85554,0.04628
1219.82529,0.04586
1218.79503,0.04523
1217.76477,0.04480
1216.73451,0.04456
1215.70425,0.04439
1214.67400,0.04426
1213.64374,0.04401
1212.61348,0.04366
1211.58322,0.04335
1210.55297,0.04305
1209.52271,0.04287
1208.49245,0.04281
1207.46219,0.04264
1206.43193,0.04250
1205.40168,0.04249
1204.37142,0.04246
1203.34116,0.04250
1202.31090,0.04255
1201.28064,0.04239
1200.25039,0.04213
1199.22013,0.04201
1198.18987,0.04204
1197.15961,0.04208
1196.12936,0.04213
1195.09910,0.04236
1194.06884,0.04265
1193.03858,0.04274
1192.00832,0.04267
1190.97807,0.04247
1189.94781,0.04227
1188.91755,0.04225
1187.88729,0.04245
1186.85703,0.04288
1185.82678,0.04331
1184.79652,0.04349
1183.76626,0.04358
1182.73600,0.04371
1181.70575,0.04375
1180.67549,0.04380
1179.64523,0.04393
1178.61497,0.04410
1177.58471,0.04425
1176.55446,0.04447
1175.52420,0.04481
1174.49394,0.04503
1173.46368,0.04518
1172.43342,0.04571
1171.40317,0.04650
1170.37291,0.04702
1169.34265,0.04746
1168.31239,0.04809
1167.28214,0.04869
1166.25188,0.04935
1165.22162,0.05026
1164.19136,0.05126
1163.16110,0.05226
1162.13085,0.05359
1161.10059,0.05537
1160.07033,0.05732
1159.04007,0.05932
1158.00982,0.06134
1156.97956,0.06354
1155.94930,0.06615
1154.91904,0.06902
1153.88878,0.07207
1152.85853,0.07527
1151.82827,0.07859
1150.79801,0.08222
1149.76775,0.08603
1148.73749,0.08963
1147.70724,0.09327
1146.67698,0.09734
1145.64672,0.10146
1144.61646,0.10506
1143.58621,0.10824
1142.55595,0.11125
1141.52569,0.11422
1140.49543,0.11736
1139.46517,0.12059
1138.43492,0.12352
1137.40466,0.12602
1136.37440,0.12817
1135.34414,0.12984
1134.31388,0.13133
1133.28363,0.13306
1132.25337,0.13480
1131.22311,0.13646
1130.19285,0.13836
1129.16260,0.14030
1128.13234,0.14219
1127.10208,0.14436
1126.07182,0.14679
1125.04156,0.14917
1124.01131,0.15157
1122.98105,0.15419
1121.95079,0.15727
1120.92053,0.16079
1119.89027,0.16439
1118.86002,0.16789
1117.82976,0.17107
1116.79950,0.17397
1115.76924,0.17716
1114.73899,0.18067
1113.70873,0.18411
1112.67847,0.18730
1111.64821,0.19052
1110.61795,0.19400
1109.58770,0.19746
1108.55744,0.20098
1107.52718,0.20476
1106.49692,0.20867
1105.46667,0.21255
1104.43641,0.21622
1103.40615,0.21970
1102.37589,0.22317
1101.34563,0.22665
1100.31538,0.23028
1099.28512,0.23395
1098.25486,0.23717
1097.22460,0.24008
1096.19434,0.24327
1095.16409,0.24639
1094.13383,0.24896
1093.10357,0.25138
1092.07331,0.25407
1091.04306,0.25664
1090.01280,0.25855
1088.98254,0.26015
1087.95228,0.26179
1086.92202,0.26308
1085.89177,0.26369
1084.86151,0.26420
1083.83125,0.26485
1082.80099,0.26527
1081.77073,0.26548
1080.74048,0.26510
1079.71022,0.26380
1078.67996,0.26207
1077.64970,0.26033
1076.61945,0.25872
1075.58919,0.25714
1074.55893,0.25527
1073.52867,0.25328
1072.49841,0.25116
1071.46816,0.24864
1070.43790,0.24553
1069.40764,0.24200
1068.37738,0.23857
1067.34712,0.23526
1066.31687,0.23152
1065.28661,0.22690
1064.25635,0.22172
1063.22609,0.21638
1062.19584,0.21083
1061.16558,0.20476
1060.13532,0.19822
1059.10506,0.19157
1058.07480,0.18484
1057.04455,0.17796
1056.01429,0.17097
1054.98403,0.16412
1053.95377,0.15761
1052.92352,0.15133
1051.89326,0.14528
1050.86300,0.13986
1049.83274,0.13501
1048.80248,0.13051
1047.77223,0.12670
1046.74197,0.12353
1045.71171,0.12080
1044.68145,0.11869
1043.65119,0.11719
1042.62094,0.11612
1041.59068,0.11522
1040.56042,0.11422
1039.53016,0.11310
1038.49991,0.11214
1037.46965,0.11155
1036.43939,0.11104
1035.40913,0.11046
1034.37887,0.10997
1033.34862,0.10920
1032.31836,0.10797
1031.28810,0.10673
1030.25784,0.10546
1029.22758,0.10401
1028.19733,0.10251
1027.16707,0.10077
1026.13681,0.09873
1025.10655,0.09666
1024.07630,0.09472
1023.04604,0.09285
1022.01578,0.09080
1020.98552,0.08849
1019.95526,0.08621
1018.92501,0.08416
1017.89475,0.08235
1016.86449,0.08064
1015.83423,0.07888
1014.80397,0.07734
1013.77372,0.07625
1012.74346,0.07520
1011.71320,0.07396
1010.68294,0.07287
1009.65269,0.07206
1008.62243,0.07126
1007.59217,0.07042
1006.56191,0.06964
1005.53165,0.06898
1004.50140,0.06845
1003.47114,0.06817
1002.44088,0.06821
1001.41062,0.06803
1000.38037,0.06746
999.35011,0.06713
998.31985,0.06722
997.28959,0.06737
996.25933,0.06741
995.22908,0.06749
994.19882,0.06728
993.16856,0.06651
992.13830,0.06587
991.10804,0.06576
990.07779,0.06603
989.04753,0.06633
988.01727,0.06626
986.98701,0.06597
985.95676,0.06567
984.92650,0.06543
983.89624,0.06529
982.86598,0.06518
981.83572,0.06520
980.80547,0.06532
979.77521,0.06522
978.74495,0.06493
977.71469,0.06502
976.68443,0.06526
975.65418,0.06509
974.62392,0.06504
973.59366,0.06550
972.56340,0.06603
971.53315,0.06654
970.50289,0.06741
969.47263,0.06852
968.44237,0.06954
967.41211,0.07060
966.38186,0.07207
965.35160,0.07399
964.32134,0.07614
963.29108,0.07852
962.26082,0.08141
961.23057,0.08474
960.20031,0.08825
959.17005,0.09204
958.13979,0.09620
957.10954,0.10060
956.07928,0.10490
955.04902,0.10908
954.01876,0.11334
952.98850,0.11728
951.95825,0.12047
950.92799,0.12312
949.89773,0.12530
948.86747,0.12705
947.83722,0.12851
946.80696,0.12925
945.77670,0.12893
944.74644,0.12816
943.71618,0.12751
942.68593,0.12678
941.65567,0.12564
940.62541,0.12429
939.59515,0.12303
938.56489,0.12178
937.53464,0.12028
936.50438,0.11869
935.47412,0.11721
934.44386,0.11574
933.41361,0.11435
932.38335,0.11303
931.35309,0.11166
930.32283,0.11025
929.29257,0.10880
928.26232,0.10752
927.23206,0.10661
926.20180,0.10571
925.17154,0.10505
924.14128,0.10487
923.11103,0.10443
922.08077,0.10367
921.05051,0.10302
920.02025,0.10257
918.99000,0.10218
917.95974,0.10173
916.92948,0.10151
915.89922,0.10143
914.86896,0.10125
913.83871,0.10092
912.80845,0.10030
911.77819,0.09955
910.74793,0.09886
909.71768,0.09840
908.68742,0.09808
907.65716,0.09766
906.62690,0.09746
905.59664,0.09751
904.56639,0.09753
903.53613,0.09764
902.50587,0.09756
901.47561,0.09709
900.44535,0.09698
899.41510,0.09751
898.38484,0.09839
897.35458,0.09934
896.32432,0.10006
895.29407,0.10073
894.26381,0.10163
893.23355,0.10277
892.20329,0.10395
891.17303,0.10508
890.14278,0.10656
889.11252,0.10841
888.08226,0.11020
887.05200,0.11165
886.02174,0.11280
884.99149,0.11390
883.96123,0.11482
882.93097,0.11518
881.90071,0.11510
880.87046,0.11490
879.84020,0.11489
878.80994,0.11513
877.77968,0.11545
876.74942,0.11585
875.71917,0.11640
874.68891,0.11726
873.65865,0.11814
872.62839,0.11866
871.59813,0.11912
870.56788,0.11959
869.53762,0.12011
868.50736,0.12119
867.47710,0.12285
866.44685,0.12410
865.41659,0.12453
864.38633,0.12483
863.35607,0.12591
862.32581,0.12778
861.29556,0.12933
860.26530,0.13005
859.23504,0.13062
858.20478,0.13157
857.17453,0.13289
856.14427,0.13471
855.11401,0.13688
854.08375,0.13913
853.05349,0.14130
852.02324,0.14316
850.99298,0.14500
849.96272,0.14714
848.93246,0.14913
847.90220,0.15068
846.87195,0.15211
845.84169,0.15372
844.81143,0.15597
843.78117,0.15855
842.75092,0.16047
841.72066,0.16180
840.69040,0.16309
839.66014,0.16419
838.62988,0.16505
837.59963,0.16595
836.56937,0.16703
835.53911,0.16834
834.50885,0.16983
833.47859,0.17138
832.44834,0.17247
831.41808,0.17282
830.38782,0.17309
829.35756,0.17372
828.32731,0.17478
827.29705,0.17614
826.26679,0.17707
825.23653,0.17734
824.20627,0.17791
823.17602,0.17916
822.14576,0.18021
821.11550,0.18024
820.08524,0.17986
819.05498,0.18038
818.02473,0.18194
816.99447,0.18402
815.96421,0.18575
814.93395,0.18649
813.90370,0.18666
812.87344,0.18692
811.84318,0.18761
810.81292,0.18856
809.78266,0.18945
808.75241,0.19039
807.72215,0.19172
806.69189,0.19364
805.66163,0.19548
804.63138,0.19621
803.60112,0.19624
802.57086,0.19695
801.54060,0.19838
800.51034,0.19975
799.48009,0.20102
798.44983,0.20252
797.41957,0.20408
796.38931,0.20519
795.35905,0.20598
794.32880,0.20712
793.29854,0.20864
792.26828,0.20966
791.23802,0.20993
790.20777,0.21078
789.17751,0.21264
788.14725,0.21447
787.11699,0.21556
786.08673,0.21616
785.05648,0.21704
784.02622,0.21838
782.99596,0.21979
781.96570,0.22110
780.93544,0.22238
779.90519,0.22354
778.87493,0.22458
777.84467,0.22571
776.81441,0.22687
775.78416,0.22847
774.75390,0.23055
773.72364,0.23191
772.69338,0.23212
771.66312,0.23265
770.63287,0.23441
769.60261,0.23671
768.57235,0.23864
767.54209,0.23973
766.51183,0.23998
765.48158,0.24043
764.45132,0.24213
763.42106,0.24439
762.39080,0.24604
761.36055,0.24706
760.33029,0.24817
759.30003,0.24967
758.26977,0.25136
757.23951,0.25314
756.20926,0.25457
755.17900,0.25541
754.14874,0.25663
753.11848,0.25858
752.08823,0.26006
751.05797,0.26108
750.02771,0.26252
748.99745,0.26415
747.96719,0.26584
746.93694,0.26735
745.90668,0.26849
744.87642,0.27015
743.84616,0.27222
742.81590,0.27374
741.78565,0.27463
740.75539,0.27512
739.72513,0.27611
738.69487,0.27802
737.66462,0.27967
736.63436,0.28067
735.60410,0.28202
734.57384,0.28384
733.54358,0.28540
732.51333,0.28677
731.48307,0.28813
730.45281,0.28964
729.42255,0.29134
728.39229,0.29254
727.36204,0.29356
726.33178,0.29538
725.30152,0.29721
724.27126,0.29808
723.24101,0.29876
722.21075,0.30024
721.18049,0.30232
720.15023,0.30430
719.11997,0.30568
718.08972,0.30654
717.05946,0.30741
716.02920,0.30896
714.99894,0.31089
713.96868,0.31215
712.93843,0.31291
711.90817,0.31444
710.87791,0.31697
709.84765,0.31908
708.81740,0.32041
707.78714,0.32122
706.75688,0.32184
705.72662,0.32391
704.69636,0.32675
703.66611,0.32811
702.63585,0.32877
701.60559,0.33014
700.57533,0.33130
699.54508,0.33178
698.51482,0.33246
697.48456,0.33410
696.45430,0.33667
695.42404,0.33858
694.39379,0.33872
693.36353,0.33847
692.33327,0.33940
691.30301,0.34109
690.27275,0.34299
689.24250,0.34514
688.21224,0.34719
687.18198,0.34869
686.15172,0.34936
685.12147,0.34984
684.09121,0.35096
683.06095,0.35244
682.03069,0.35388
681.00043,0.35530
679.97018,0.35620
678.93992,0.35693
677.90966,0.35869
676.87940,0.36118
675.84914,0.36344
674.81889,0.36478
673.78863,0.36479
672.75837,0.36451
671.72811,0.36531
670.69786,0.36701
669.66760,0.36874
668.63734,0.36941
667.60708,0.36851
666.57682,0.36939
665.54657,0.37122
664.51631,0.37302
663.48605,0.37507
662.45579,0.37723
661.42553,0.37854
660.39528,0.37839
659.36502,0.37719
658.33476,0.37647
657.30450,0.37756
656.27425,0.38067
655.24399,0.38371
654.21373,0.38508
653.18347,0.38550
652.15321,0.38611
651.12296,0.38748
650.09270,0.38884
649.06244,0.39047
648.03218,0.39234
647.00193,0.39216
645.97167,0.39076
644.94141,0.39174
643.91115,0.39472
642.88089,0.39712
641.85064,0.39879
640.82038,0.40022
639.79012,0.40131
638.75986,0.40217
637.72960,0.40324
636.69935,0.40392
635.66909,0.40348
634.63883,0.40300
633.60857,0.40410
632.57832,0.40683
631.54806,0.40891
630.51780,0.40903
629.48754,0.40880
628.45728,0.40943
627.42703,0.41053
626.39677,0.41221
625.36651,0.41419
624.33625,0.41421
623.30599,0.41242
622.27574,0.41149
621.24548,0.41270
620.21522,0.41568
619.18496,0.41801
618.15471,0.41836
617.12445,0.41805
616.09419,0.41919
615.06393,0.42151
614.03367,0.42245
613.00342,0.42192
611.97316,0.42171
610.94290,0.42239
609.91264,0.42370
608.88238,0.42552
607.85213,0.42724
606.82187,0.42806
605.79161,0.42856
604.76135,0.43018
603.73110,0.43283
602.70084,0.43425
601.67058,0.43424
600.64032,0.43367
599.61006,0.43313
598.57981,0.43489
597.54955,0.43778
596.51929,0.43987
595.48903,0.44196
594.45878,0.44289
593.42852,0.44263
592.39826,0.44298
591.36800,0.44363
590.33774,0.44314
589.30749,0.44276
588.27723,0.44495
587.24697,0.44714
586.21671,0.44563
585.18645,0.44303
584.15620,0.44308
583.12594,0.44502
582.09568,0.44745
581.06542,0.44928
580.03517,0.44973
579.00491,0.45082
577.97465,0.45285
576.94439,0.45346
575.91413,0.45273
574.88388,0.45257
573.85362,0.45451
572.82336,0.45738
571.79310,0.45782
570.76284,0.45618
569.73259,0.45616
568.70233,0.45810
567.67207,0.45912
566.64181,0.45925
565.61156,0.45980
564.58130,0.45943
563.55104,0.45719
562.52078,0.45648
561.49052,0.45902
560.46027,0.46201
559.43001,0.46448
558.39975,0.46573
557.36949,0.46530
556.33924,0.46523
555.30898,0.46670
554.27872,0.46882
553.24846,0.46897
552.21820,0.46684
551.18795,0.46673
550.15769,0.46977
549.12743,0.47068
548.09717,0.46708
547.06691,0.46573
546.03666,0.46978
545.00640,0.47247
543.97614,0.47110
542.94588,0.46939
541.91563,0.47058
540.88537,0.47332
539.85511,0.47387
538.82485,0.47222
537.79459,0.47225
536.76434,0.47494
535.73408,0.47658
534.70382,0.47686
533.67356,0.47806
532.64330,0.47996
531.61305,0.48103
530.58279,0.48003
529.55253,0.47801
528.52227,0.47823
527.49202,0.48067
526.46176,0.48308
525.43150,0.48445
524.40124,0.48451
523.37098,0.48425
522.34073,0.48431
521.31047,0.48502
520.28021,0.48720
519.24995,0.49005
518.21969,0.48976
517.18944,0.48677
516.15918,0.48544
515.12892,0.48665
514.09866,0.48894
513.06841,0.49023
512.03815,0.48973
511.00789,0.48817
509.97763,0.48745
508.94737,0.48851
507.91712,0.49031
506.88686,0.49262
505.85660,0.49572
504.82634,0.49883
503.79609,0.49897
502.76583,0.49618
501.73557,0.49409
500.70531,0.49402
499.67505,0.49620
498.64480,0.49680
497.61454,0.49318
496.58428,0.49083
495.55402,0.49217
494.52376,0.49391
493.49351,0.49375
492.46325,0.49296
491.43299,0.49383
490.40273,0.49460
489.37248,0.49195
488.34222,0.48819
487.31196,0.48839
486.28170,0.49276
485.25144,0.49587
484.22119,0.49547
483.19093,0.49535
482.16067,0.49559
481.13041,0.49533
480.10015,0.49565
479.06990,0.49421
478.03964,0.49269
477.00938,0.49591
475.97912,0.50070
474.94887,0.50166
473.91861,0.49989
472.88835,0.49734
471.85809,0.49393
470.82783,0.49352
469.79758,0.49754
468.76732,0.49959
467.73706,0.49903
466.70680,0.49995
465.67654,0.50022
464.64629,0.49712
463.61603,0.49228
462.58577,0.49048
461.55551,0.49480
460.52526,0.49882
459.49500,0.49619
458.46474,0.49495
457.43448,0.49835
456.40422,0.50066
455.37397,0.50231
454.34371,0.50038
453.31345,0.49673
452.28319,0.49642
451.25294,0.49745
450.22268,0.49731
449.19242,0.49347
448.16216,0.48878
447.13190,0.48788
446.10165,0.48844
445.07139,0.48770
444.04113,0.48718
443.01087,0.49114
441.98061,0.49457
440.95036,0.49113
439.92010,0.48944
438.88984,0.49578
437.85958,0.50513
436.82933,0.50677
435.79907,0.49941
434.76881,0.49278
433.73855,0.49127
432.70829,0.49390
431.67804,0.49564
430.64778,0.49751
429.61752,0.50088
428.58726,0.49602
427.55700,0.48510
426.52675,0.48172
425.49649,0.48766
424.46623,0.49281
423.43597,0.49165
422.40572,0.49139
421.37546,0.49857
420.34520,0.50279
419.31494,0.49130
418.28468,0.48219
417.25443,0.48589
416.22417,0.48881
415.19391,0.49102
414.16365,0.49002
413.13339,0.48459
412.10314,0.47998
411.07288,0.48090
410.04262,0.48835
409.01236,0.49373
407.98211,0.49069
406.95185,0.48821
405.92159,0.48930
404.89133,0.48597
403.86107,0.48248
402.83082,0.48360
401.80056,0.48636
400.77030,0.48919
399.74004,0.49198
