4998.81105,0.00361
4997.78079,0.00431
4996.75054,0.00417
4995.72028,0.00340
4994.69002,0.00281
4993.65976,0.00277
4992.62951,0.00294
4991.59925,0.00312
4990.56899,0.00325
4989.53873,0.00273
4988.50847,0.00163
4987.47822,0.00105
4986.44796,0.00116
4985.41770,0.00116
4984.38744,0.00141
4983.35718,0.00266
4982.32693,0.00405
4981.29667,0.00419
4980.26641,0.00342
4979.23615,0.00329
4978.20590,0.00384
4977.17564,0.00412
4976.14538,0.00385
4975.11512,0.00337
4974.08486,0.00312
4973.05461,0.00297
4972.02435,0.00274
4970.99409,0.00247
4969.96383,0.00242
4968.93357,0.00280
4967.90332,0.00323
4966.87306,0.00273
4965.84280,0.00179
4964.81254,0.00190
4963.78229,0.00258
4962.75203,0.00326
4961.72177,0.00390
4960.69151,0.00341
4959.66125,0.00252
4958.63100,0.00343
4957.60074,0.00506
4956.57048,0.00529
4955.54022,0.00481
4954.50997,0.00464
4953.47971,0.00468
4952.44945,0.00459
4951.41919,0.00427
4950.38893,0.00403
4949.35868,0.00400
4948.32842,0.00408
4947.29816,0.00462
4946.26790,0.00543
4945.23764,0.00496
4944.20739,0.00369
4943.17713,0.00328
4942.14687,0.00287
4941.11661,0.00248
4940.08636,0.00328
4939.05610,0.00390
4938.02584,0.00316
4936.99558,0.00234
4935.96532,0.00221
4934.93507,0.00196
4933.90481,0.00181
4932.87455,0.00261
4931.84429,0.00278
4930.81403,0.00154
4929.78378,0.00104
4928.75352,0.00167
4927.72326,0.00225
4926.69300,0.00277
4925.66275,0.00343
4924.63249,0.00396
4923.60223,0.00389
4922.57197,0.00316
4921.54171,0.00249
4920.51146,0.00228
4919.48120,0.00238
4918.45094,0.00240
4917.42068,0.00196
4916.39042,0.00153
4915.36017,0.00201
4914.32991,0.00245
4913.29965,0.00170
4912.26939,0.00085
4911.23914,0.00101
4910.20888,0.00175
4909.17862,0.00235
4908.14836,0.00272
4907.11810,0.00315
4906.08785,0.00327
4905.05759,0.00323
4904.02733,0.00337
4902.99707,0.00311
4901.96682,0.00282
4900.93656,0.00283
4899.90630,0.00305
4898.87604,0.00358
4897.84578,0.00340
4896.81553,0.00266
4895.78527,0.00250
4894.75501,0.00274
4893.72475,0.00298
4892.69449,0.00308
4891.66424,0.00295
4890.63398,0.00306
4889.60372,0.00298
4888.57346,0.00159
4887.54321,0.00026
4886.51295,0.00098
4885.48269,0.00284
4884.45243,0.00416
4883.42217,0.00430
4882.39192,0.00341
4881.36166,0.00299
4880.33140,0.00320
4879.30114,0.00273
4878.27088,0.00235
4877.24063,0.00249
4876.21037,0.00225
4875.18011,0.00222
4874.14985,0.00291
4873.11960,0.00283
4872.08934,0.00172
4871.05908,0.00094
4870.02882,0.00145
4868.99856,0.00316
4867.96831,0.00440
4866.93805,0.00444
4865.90779,0.00429
4864.87753,0.00384
4863.84727,0.00288
4862.81702,0.00295
4861.78676,0.00366
4860.75650,0.00333
4859.72624,0.00240
4858.69599,0.00177
4857.66573,0.00156
4856.63547,0.00192
4855.60521,0.00226
4854.57495,0.00193
4853.54470,0.00151
4852.51444,0.00150
4851.48418,0.00198
4850.45392,0.00200
4849.42367,0.00160
4848.39341,0.00220
4847.36315,0.00309
4846.33289,0.00352
4845.30263,0.00394
4844.27238,0.00404
4843.24212,0.00373
4842.21186,0.00327
4841.18160,0.00279
4840.15134,0.00282
4839.12109,0.00354
4838.09083,0.00399
4837.06057,0.00353
4836.03031,0.00281
4835.00006,0.00251
4833.96980,0.00223
4832.93954,0.00179
4831.90928,0.00174
4830.87902,0.00230
4829.84877,0.00322
4828.81851,0.00311
4827.78825,0.00195
4826.75799,0.00202
4825.72773,0.00295
4824.69748,0.00297
4823.66722,0.00295
4822.63696,0.00339
4821.60670,0.00324
4820.57645,0.00281
4819.54619,0.00269
4818.51593,0.00257
4817.48567,0.00255
4816.45541,0.00261
4815.42516,0.00254
4814.39490,0.00242
4813.36464,0.00211
4812.33438,0.00162
4811.30412,0.00136
4810.27387,0.00163
4809.24361,0.00219
4808.21335,0.00259
4807.18309,0.00263
4806.15284,0.00284
4805.12258,0.00328
4804.09232,0.00311
4803.06206,0.00232
4802.03180,0.00168
4801.00155,0.00189
4799.97129,0.00293
4798.94103,0.00367
4797.91077,0.00373
4796.88052,0.00329
4795.85026,0.00273
4794.82000,0.00228
4793.78974,0.00211
4792.75948,0.00254
4791.72923,0.00317
4790.69897,0.00369
4789.66871,0.00343
4788.63845,0.00212
4787.60819,0.00097
4786.57794,0.00070
4785.54768,0.00119
4784.51742,0.00253
4783.48716,0.00376
4782.45691,0.00345
4781.42665,0.00226
4780.39639,0.00152
4779.36613,0.00174
4778.33587,0.00213
4777.30562,0.00199
4776.27536,0.00231
4775.24510,0.00329
4774.21484,0.00357
4773.18458,0.00287
4772.15433,0.00218
4771.12407,0.00179
4770.09381,0.00175
4769.06355,0.00209
4768.03330,0.00232
4767.00304,0.00218
4765.97278,0.00184
4764.94252,0.00168
4763.91226,0.00197
4762.88201,0.00258
4761.85175,0.00327
4760.82149,0.00320
4759.79123,0.00192
4758.76098,0.00120
4757.73072,0.00207
4756.70046,0.00352
4755.67020,0.00460
4754.63994,0.00495
4753.60969,0.00453
4752.57943,0.00368
4751.54917,0.00351
4750.51891,0.00429
4749.48865,0.00443
4748.45840,0.00324
4747.42814,0.00210
4746.39788,0.00216
4745.36762,0.00278
4744.33737,0.00272
4743.30711,0.00180
4742.27685,0.00102
4741.24659,0.00109
4740.21633,0.00179
4739.18608,0.00250
4738.15582,0.00247
4737.12556,0.00153
4736.09530,0.00080
4735.06504,0.00093
4734.03479,0.00143
4733.00453,0.00224
4731.97427,0.00297
4730.94401,0.00277
4729.91376,0.00212
4728.88350,0.00203
4727.85324,0.00275
4726.82298,0.00332
4725.79272,0.00266
4724.76247,0.00178
4723.73221,0.00142
4722.70195,0.00087
4721.67169,0.00037
4720.64143,0.00105
4719.61118,0.00261
4718.58092,0.00322
4717.55066,0.00254
4716.52040,0.00169
4715.49015,0.00152
4714.45989,0.00240
4713.42963,0.00347
4712.39937,0.00379
4711.36911,0.00327
4710.33886,0.00237
4709.30860,0.00200
4708.27834,0.00205
4707.24808,0.00191
4706.21783,0.00176
4705.18757,0.00193
4704.15731,0.00234
4703.12705,0.00226
4702.09679,0.00157
4701.06654,0.00094
4700.03628,0.00082
4699.00602,0.00116
4697.97576,0.00189
4696.94550,0.00257
4695.91525,0.00279
4694.88499,0.00291
4693.85473,0.00285
4692.82447,0.00243
4691.79422,0.00213
4690.76396,0.00226
4689.73370,0.00257
4688.70344,0.00325
4687.67318,0.00369
4686.64293,0.00296
4685.61267,0.00200
4684.58241,0.00163
4683.55215,0.00155
4682.52189,0.00162
4681.49164,0.00152
4680.46138,0.00122
4679.43112,0.00128
4678.40086,0.00152
4677.37061,0.00212
4676.34035,0.00273
4675.31009,0.00239
4674.27983,0.00185
4673.24957,0.00204
4672.21932,0.00247
4671.18906,0.00240
4670.15880,0.00223
4669.12854,0.00231
4668.09828,0.00247
4667.06803,0.00287
4666.03777,0.00350
4665.00751,0.00348
4663.97725,0.00293
4662.94700,0.00267
4661.91674,0.00235
4660.88648,0.00217
4659.85622,0.00241
4658.82596,0.00218
4657.79571,0.00139
4656.76545,0.00099
4655.73519,0.00142
4654.70493,0.00229
4653.67468,0.00276
4652.64442,0.00248
4651.61416,0.00209
4650.58390,0.00236
4649.55364,0.00338
4648.52339,0.00397
4647.49313,0.00358
4646.46287,0.00292
4645.43261,0.00255
4644.40235,0.00230
4643.37210,0.00175
4642.34184,0.00105
4641.31158,0.00077
4640.28132,0.00087
4639.25107,0.00154
4638.22081,0.00310
4637.19055,0.00419
4636.16029,0.00368
4635.13003,0.00261
4634.09978,0.00244
4633.06952,0.00281
4632.03926,0.00256
4631.00900,0.00181
4629.97874,0.00181
4628.94849,0.00264
4627.91823,0.00294
4626.88797,0.00238
4625.85771,0.00186
4624.82746,0.00194
4623.79720,0.00214
4622.76694,0.00234
4621.73668,0.00252
4620.70642,0.00245
4619.67617,0.00261
4618.64591,0.00304
4617.61565,0.00326
4616.58539,0.00334
4615.55513,0.00311
4614.52488,0.00226
4613.49462,0.00172
4612.46436,0.00212
4611.43410,0.00262
4610.40385,0.00250
4609.37359,0.00215
4608.34333,0.00226
4607.31307,0.00258
4606.28281,0.00255
4605.25256,0.00200
4604.22230,0.00113
4603.19204,0.00062
4602.16178,0.00074
4601.13153,0.00131
4600.10127,0.00209
4599.07101,0.00262
4598.04075,0.00285
4597.01049,0.00294
4595.98024,0.00267
4594.94998,0.00245
4593.91972,0.00246
4592.88946,0.00244
4591.85920,0.00242
4590.82895,0.00228
4589.79869,0.00244
4588.76843,0.00280
4587.73817,0.00283
4586.70792,0.00322
4585.67766,0.00376
4584.64740,0.00329
4583.61714,0.00235
4582.58688,0.00172
4581.55663,0.00095
4580.52637,0.00060
4579.49611,0.00128
4578.46585,0.00209
4577.43559,0.00254
4576.40534,0.00291
4575.37508,0.00313
4574.34482,0.00278
4573.31456,0.00202
4572.28431,0.00158
4571.25405,0.00140
4570.22379,0.00146
4569.19353,0.00172
4568.16327,0.00157
4567.13302,0.00146
4566.10276,0.00198
4565.07250,0.00225
4564.04224,0.00185
4563.01198,0.00185
4561.98173,0.00228
4560.95147,0.00229
4559.92121,0.00165
4558.89095,0.00100
4557.86070,0.00115
4556.83044,0.00163
4555.80018,0.00196
4554.76992,0.00241
4553.73966,0.00273
4552.70941,0.00244
4551.67915,0.00200
4550.64889,0.00223
4549.61863,0.00278
4548.58838,0.00279
4547.55812,0.00244
4546.52786,0.00220
4545.49760,0.00204
4544.46734,0.00202
4543.43709,0.00243
4542.40683,0.00301
4541.37657,0.00329
4540.34631,0.00324
4539.31605,0.00311
4538.28580,0.00362
4537.25554,0.00432
4536.22528,0.00384
4535.19502,0.00296
4534.16477,0.00240
4533.13451,0.00184
4532.10425,0.00218
4531.07399,0.00298
4530.04373,0.00250
4529.01348,0.00155
4527.98322,0.00146
4526.95296,0.00187
4525.92270,0.00231
4524.89244,0.00276
4523.86219,0.00285
4522.83193,0.00232
4521.80167,0.00181
4520.77141,0.00194
4519.74116,0.00239
4518.71090,0.00251
4517.68064,0.00219
4516.65038,0.00223
4515.62012,0.00265
4514.58987,0.00264
4513.55961,0.00243
4512.52935,0.00253
4511.49909,0.00275
4510.46883,0.00277
4509.43858,0.00243
4508.40832,0.00204
4507.37806,0.00246
4506.34780,0.00322
4505.31755,0.00286
4504.28729,0.00191
4503.25703,0.00130
4502.22677,0.00115
4501.19651,0.00113
4500.16626,0.00069
4499.13600,0.00039
4498.10574,0.00084
4497.07548,0.00139
4496.04523,0.00143
4495.01497,0.00109
4493.98471,0.00103
4492.95445,0.00154
4491.92419,0.00205
4490.89394,0.00237
4489.86368,0.00254
4488.83342,0.00232
4487.80316,0.00220
4486.77290,0.00238
4485.74265,0.00242
4484.71239,0.00259
4483.68213,0.00262
4482.65187,0.00233
4481.62162,0.00237
4480.59136,0.00216
4479.56110,0.00159
4478.53084,0.00161
4477.50058,0.00201
4476.47033,0.00226
4475.44007,0.00211
4474.40981,0.00156
4473.37955,0.00120
4472.34929,0.00117
4471.31904,0.00143
4470.28878,0.00199
4469.25852,0.00197
4468.22826,0.00141
4467.19801,0.00156
4466.16775,0.00234
4465.13749,0.00273
4464.10723,0.00272
4463.07697,0.00280
4462.04672,0.00260
4461.01646,0.00241
4459.98620,0.00277
4458.95594,0.00263
4457.92568,0.00152
4456.89543,0.00061
4455.86517,0.00054
4454.83491,0.00134
4453.80465,0.00242
4452.77440,0.00303
4451.74414,0.00303
4450.71388,0.00263
4449.68362,0.00240
4448.65336,0.00245
4447.62311,0.00237
4446.59285,0.00231
4445.56259,0.00262
4444.53233,0.00308
4443.50208,0.00284
4442.47182,0.00170
4441.44156,0.00127
4440.41130,0.00222
4439.38104,0.00320
4438.35079,0.00337
4437.32053,0.00296
4436.29027,0.00255
4435.26001,0.00243
4434.22975,0.00220
4433.19950,0.00176
4432.16924,0.00185
4431.13898,0.00228
4430.10872,0.00224
4429.07847,0.00217
4428.04821,0.00241
4427.01795,0.00229
4425.98769,0.00178
4424.95743,0.00176
4423.92718,0.00203
4422.89692,0.00180
4421.86666,0.00189
4420.83640,0.00288
4419.80614,0.00343
4418.77589,0.00291
4417.74563,0.00256
4416.71537,0.00265
4415.68511,0.00252
4414.65486,0.00252
4413.62460,0.00237
4412.59434,0.00170
4411.56408,0.00151
4410.53382,0.00216
4409.50357,0.00292
4408.47331,0.00342
4407.44305,0.00343
4406.41279,0.00282
4405.38253,0.00219
4404.35228,0.00174
4403.32202,0.00133
4402.29176,0.00150
4401.26150,0.00217
4400.23125,0.00256
4399.20099,0.00227
4398.17073,0.00151
4397.14047,0.00116
4396.11021,0.00158
4395.07996,0.00216
4394.04970,0.00269
4393.01944,0.00299
4391.98918,0.00267
4390.95893,0.00218
4389.92867,0.00217
4388.89841,0.00233
4387.86815,0.00254
4386.83789,0.00274
4385.80764,0.00253
4384.77738,0.00223
4383.74712,0.00207
4382.71686,0.00174
4381.68660,0.00156
4380.65635,0.00192
4379.62609,0.00242
4378.59583,0.00270
4377.56557,0.00260
4376.53532,0.00224
4375.50506,0.00197
4374.47480,0.00199
4373.44454,0.00234
4372.41428,0.00212
4371.38403,0.00156
4370.35377,0.00203
4369.32351,0.00259
4368.29325,0.00240
4367.26299,0.00231
4366.23274,0.00235
4365.20248,0.00200
4364.17222,0.00173
4363.14196,0.00240
4362.11171,0.00291
4361.08145,0.00241
4360.05119,0.00200
4359.02093,0.00238
4357.99067,0.00331
4356.96042,0.00388
4355.93016,0.00331
4354.89990,0.00251
4353.86964,0.00249
4352.83939,0.00250
4351.80913,0.00240
4350.77887,0.00270
4349.74861,0.00301
4348.71835,0.00277
4347.68810,0.00197
4346.65784,0.00116
4345.62758,0.00108
4344.59732,0.00191
4343.56706,0.00291
4342.53681,0.00328
4341.50655,0.00285
4340.47629,0.00232
4339.44603,0.00241
4338.41578,0.00263
4337.38552,0.00251
4336.35526,0.00232
4335.32500,0.00259
4334.29474,0.00335
4333.26449,0.00395
4332.23423,0.00391
4331.20397,0.00331
4330.17371,0.00243
4329.14345,0.00182
4328.11320,0.00196
4327.08294,0.00241
4326.05268,0.00220
4325.02242,0.00167
4323.99217,0.00180
4322.96191,0.00216
4321.93165,0.00213
4320.90139,0.00205
4319.87113,0.00213
4318.84088,0.00190
4317.81062,0.00154
4316.78036,0.00155
4315.75010,0.00157
4314.71984,0.00170
4313.68959,0.00225
4312.65933,0.00255
4311.62907,0.00216
4310.59881,0.00192
4309.56856,0.00233
4308.53830,0.00245
4307.50804,0.00218
4306.47778,0.00231
4305.44752,0.00256
4304.41727,0.00263
4303.38701,0.00258
4302.35675,0.00233
4301.32649,0.00242
4300.29624,0.00263
4299.26598,0.00212
4298.23572,0.00147
4297.20546,0.00164
4296.17520,0.00210
4295.14495,0.00235
4294.11469,0.00268
4293.08443,0.00252
4292.05417,0.00201
4291.02391,0.00185
4289.99366,0.00170
4288.96340,0.00201
4287.93314,0.00291
4286.90288,0.00321
4285.87263,0.00286
4284.84237,0.00256
4283.81211,0.00266
4282.78185,0.00298
4281.75159,0.00323
4280.72134,0.00329
4279.69108,0.00278
4278.66082,0.00192
4277.63056,0.00143
4276.60030,0.00130
4275.57005,0.00153
4274.53979,0.00209
4273.50953,0.00254
4272.47927,0.00296
4271.44902,0.00338
4270.41876,0.00355
4269.38850,0.00341
4268.35824,0.00288
4267.32798,0.00230
4266.29773,0.00196
4265.26747,0.00173
4264.23721,0.00179
4263.20695,0.00229
4262.17669,0.00268
4261.14644,0.00278
4260.11618,0.00281
4259.08592,0.00268
4258.05566,0.00238
4257.02541,0.00233
4255.99515,0.00294
4254.96489,0.00347
4253.93463,0.00332
4252.90437,0.00277
4251.87412,0.00229
4250.84386,0.00238
4249.81360,0.00275
4248.78334,0.00264
4247.75309,0.00237
4246.72283,0.00239
4245.69257,0.00215
4244.66231,0.00191
4243.63205,0.00236
4242.60180,0.00278
4241.57154,0.00252
4240.54128,0.00215
4239.51102,0.00205
4238.48076,0.00210
4237.45051,0.00246
4236.42025,0.00291
4235.38999,0.00295
4234.35973,0.00298
4233.32948,0.00344
4232.29922,0.00375
4231.26896,0.00342
4230.23870,0.00266
4229.20844,0.00211
4228.17819,0.00226
4227.14793,0.00284
4226.11767,0.00339
4225.08741,0.00367
4224.05715,0.00379
4223.02690,0.00376
4221.99664,0.00318
4220.96638,0.00234
4219.93612,0.00207
4218.90587,0.00254
4217.87561,0.00308
4216.84535,0.00318
4215.81509,0.00330
4214.78483,0.00354
4213.75458,0.00336
4212.72432,0.00285
4211.69406,0.00272
4210.66380,0.00283
4209.63354,0.00266
4208.60329,0.00250
4207.57303,0.00252
4206.54277,0.00256
4205.51251,0.00240
4204.48226,0.00191
4203.45200,0.00166
4202.42174,0.00234
4201.39148,0.00322
4200.36122,0.00336
4199.33097,0.00332
4198.30071,0.00313
4197.27045,0.00263
4196.24019,0.00228
4195.20994,0.00208
4194.17968,0.00216
4193.14942,0.00252
4192.11916,0.00266
4191.08890,0.00263
4190.05865,0.00259
4189.02839,0.00271
4187.99813,0.00310
4186.96787,0.00313
4185.93761,0.00301
4184.90736,0.00332
4183.87710,0.00350
4182.84684,0.00333
4181.81658,0.00317
4180.78633,0.00321
4179.75607,0.00335
4178.72581,0.00319
4177.69555,0.00305
4176.66529,0.00345
4175.63504,0.00385
4174.60478,0.00368
4173.57452,0.00327
4172.54426,0.00313
4171.51400,0.00335
4170.48375,0.00333
4169.45349,0.00287
4168.42323,0.00271
4167.39297,0.00277
4166.36272,0.00256
4165.33246,0.00243
4164.30220,0.00263
4163.27194,0.00307
4162.24168,0.00346
4161.21143,0.00346
4160.18117,0.00326
4159.15091,0.00329
4158.12065,0.00340
4157.09039,0.00339
4156.06014,0.00346
4155.02988,0.00347
4153.99962,0.00352
4152.96936,0.00376
4151.93911,0.00358
4150.90885,0.00323
4149.87859,0.00327
4148.84833,0.00317
4147.81807,0.00280
4146.78782,0.00270
4145.75756,0.00295
4144.72730,0.00309
4143.69704,0.00299
4142.66679,0.00303
4141.63653,0.00335
4140.60627,0.00358
4139.57601,0.00358
4138.54575,0.00362
4137.51550,0.00369
4136.48524,0.00355
4135.45498,0.00297
4134.42472,0.00250
4133.39446,0.00265
4132.36421,0.00297
4131.33395,0.00342
4130.30369,0.00409
4129.27343,0.00433
4128.24318,0.00390
4127.21292,0.00339
4126.18266,0.00331
4125.15240,0.00336
4124.12214,0.00318
4123.09189,0.00310
4122.06163,0.00329
4121.03137,0.00366
4120.00111,0.00416
4118.97085,0.00423
4117.94060,0.00361
4116.91034,0.00308
4115.88008,0.00329
4114.84982,0.00361
4113.81957,0.00381
4112.78931,0.00438
4111.75905,0.00495
4110.72879,0.00484
4109.69853,0.00430
4108.66828,0.00410
4107.63802,0.00420
4106.60776,0.00403
4105.57750,0.00366
4104.54724,0.00337
4103.51699,0.00313
4102.48673,0.00314
4101.45647,0.00354
4100.42621,0.00384
4099.39596,0.00372
4098.36570,0.00350
4097.33544,0.00345
4096.30518,0.00356
4095.27492,0.00367
4094.24467,0.00376
4093.21441,0.00382
4092.18415,0.00372
4091.15389,0.00353
4090.12364,0.00336
4089.09338,0.00328
4088.06312,0.00341
4087.03286,0.00368
4086.00260,0.00400
4084.97235,0.00436
4083.94209,0.00443
4082.91183,0.00414
4081.88157,0.00399
4080.85131,0.00390
4079.82106,0.00381
4078.79080,0.00418
4077.76054,0.00437
4076.73028,0.00398
4075.70003,0.00380
4074.66977,0.00397
4073.63951,0.00403
4072.60925,0.00402
4071.57899,0.00417
4070.54874,0.00411
4069.51848,0.00378
4068.48822,0.00365
4067.45796,0.00374
4066.42770,0.00391
4065.39745,0.00418
4064.36719,0.00445
4063.33693,0.00469
4062.30667,0.00451
4061.27642,0.00384
4060.24616,0.00331
4059.21590,0.00322
4058.18564,0.00350
4057.15538,0.00393
4056.12513,0.00432
4055.09487,0.00462
4054.06461,0.00462
4053.03435,0.00420
4052.00409,0.00372
4050.97384,0.00362
4049.94358,0.00389
4048.91332,0.00402
4047.88306,0.00382
4046.85281,0.00379
4045.82255,0.00427
4044.79229,0.00470
4043.76203,0.00453
4042.73177,0.00388
4041.70152,0.00327
4040.67126,0.00342
4039.64100,0.00402
4038.61074,0.00426
4037.58049,0.00410
4036.55023,0.00368
4035.51997,0.00323
4034.48971,0.00316
4033.45945,0.00349
4032.42920,0.00366
4031.39894,0.00338
4030.36868,0.00327
4029.33842,0.00358
4028.30816,0.00374
4027.27791,0.00365
4026.24765,0.00367
4025.21739,0.00403
4024.18713,0.00441
4023.15688,0.00436
4022.12662,0.00408
4021.09636,0.00387
4020.06610,0.00398
4019.03584,0.00406
4018.00559,0.00370
4016.97533,0.00354
4015.94507,0.00403
4014.91481,0.00448
4013.88455,0.00452
4012.85430,0.00447
4011.82404,0.00444
4010.79378,0.00442
4009.76352,0.00441
4008.73327,0.00432
4007.70301,0.00426
4006.67275,0.00431
4005.64249,0.00447
4004.61223,0.00477
4003.58198,0.00469
4002.55172,0.00410
4001.52146,0.00381
4000.49120,0.00393
3999.46095,0.00417
3998.43069,0.00435
3997.40043,0.00429
3996.37017,0.00435
3995.33991,0.00454
3994.30966,0.00434
3993.27940,0.00390
3992.24914,0.00386
3991.21888,0.00426
3990.18862,0.00465
3989.15837,0.00472
3988.12811,0.00429
3987.09785,0.00376
3986.06759,0.00376
3985.03734,0.00410
3984.00708,0.00429
3982.97682,0.00405
3981.94656,0.00360
3980.91630,0.00346
3979.88605,0.00367
3978.85579,0.00391
3977.82553,0.00417
3976.79527,0.00457
3975.76501,0.00466
3974.73476,0.00426
3973.70450,0.00400
3972.67424,0.00384
3971.64398,0.00337
3970.61373,0.00313
3969.58347,0.00345
3968.55321,0.00403
3967.52295,0.00476
3966.49269,0.00520
3965.46244,0.00491
3964.43218,0.00446
3963.40192,0.00463
3962.37166,0.00504
3961.34140,0.00497
3960.31115,0.00444
3959.28089,0.00415
3958.25063,0.00435
3957.22037,0.00449
3956.19012,0.00448
3955.15986,0.00477
3954.12960,0.00521
3953.09934,0.00539
3952.06908,0.00542
3951.03883,0.00544
3950.00857,0.00540
3948.97831,0.00520
3947.94805,0.00471
3946.91780,0.00429
3945.88754,0.00400
3944.85728,0.00388
3943.82702,0.00423
3942.79676,0.00457
3941.76651,0.00454
3940.73625,0.00442
3939.70599,0.00440
3938.67573,0.00443
3937.64547,0.00417
3936.61522,0.00371
3935.58496,0.00375
3934.55470,0.00419
3933.52444,0.00415
3932.49419,0.00383
3931.46393,0.00397
3930.43367,0.00434
3929.40341,0.00465
3928.37315,0.00459
3927.34290,0.00405
3926.31264,0.00395
3925.28238,0.00463
3924.25212,0.00509
3923.22186,0.00491
3922.19161,0.00465
3921.16135,0.00465
3920.13109,0.00493
3919.10083,0.00487
3918.07058,0.00449
3917.04032,0.00430
3916.01006,0.00431
3914.97980,0.00458
3913.94954,0.00488
3912.91929,0.00482
3911.88903,0.00451
3910.85877,0.00442
3909.82851,0.00450
3908.79825,0.00448
3907.76800,0.00442
3906.73774,0.00434
3905.70748,0.00432
3904.67722,0.00449
3903.64697,0.00488
3902.61671,0.00518
3901.58645,0.00488
3900.55619,0.00460
3899.52593,0.00499
3898.49568,0.00511
3897.46542,0.00451
3896.43516,0.00428
3895.40490,0.00456
3894.37465,0.00459
3893.34439,0.00410
3892.31413,0.00333
3891.28387,0.00273
3890.25361,0.00310
3889.22336,0.00375
3888.19310,0.00392
3887.16284,0.00416
3886.13258,0.00458
3885.10232,0.00489
3884.07207,0.00506
3883.04181,0.00506
3882.01155,0.00502
3880.98129,0.00487
3879.95104,0.00482
3878.92078,0.00479
3877.89052,0.00452
3876.86026,0.00455
3875.83000,0.00498
3874.79975,0.00513
3873.76949,0.00469
3872.73923,0.00449
3871.70897,0.00470
3870.67871,0.00480
3869.64846,0.00487
3868.61820,0.00496
3867.58794,0.00486
3866.55768,0.00449
3865.52743,0.00380
3864.49717,0.00356
3863.46691,0.00395
3862.43665,0.00404
3861.40639,0.00384
3860.37614,0.00389
3859.34588,0.00430
3858.31562,0.00462
3857.28536,0.00446
3856.25510,0.00398
3855.22485,0.00381
3854.19459,0.00458
3853.16433,0.00567
3852.13407,0.00600
3851.10382,0.00570
3850.07356,0.00507
3849.04330,0.00478
3848.01304,0.00495
3846.98278,0.00499
3845.95253,0.00488
3844.92227,0.00490
3843.89201,0.00484
3842.86175,0.00467
3841.83150,0.00475
3840.80124,0.00484
3839.77098,0.00484
3838.74072,0.00506
3837.71046,0.00508
3836.68021,0.00498
3835.64995,0.00516
3834.61969,0.00529
3833.58943,0.00499
3832.55917,0.00417
3831.52892,0.00342
3830.49866,0.00355
3829.46840,0.00434
3828.43814,0.00524
3827.40789,0.00563
3826.37763,0.00509
3825.34737,0.00442
3824.31711,0.00430
3823.28685,0.00429
3822.25660,0.00415
3821.22634,0.00478
3820.19608,0.00570
3819.16582,0.00554
3818.13556,0.00518
3817.10531,0.00519
3816.07505,0.00538
3815.04479,0.00543
3814.01453,0.00521
3812.98428,0.00494
3811.95402,0.00498
3810.92376,0.00521
3809.89350,0.00551
3808.86324,0.00591
3807.83299,0.00607
3806.80273,0.00574
3805.77247,0.00516
3804.74221,0.00514
3803.71195,0.00585
3802.68170,0.00629
3801.65144,0.00566
3800.62118,0.00501
3799.59092,0.00543
3798.56067,0.00597
3797.53041,0.00575
3796.50015,0.00516
3795.46989,0.00491
3794.43963,0.00479
3793.40938,0.00492
3792.37912,0.00537
3791.34886,0.00566
3790.31860,0.00576
3789.28835,0.00567
3788.25809,0.00548
3787.22783,0.00583
3786.19757,0.00624
3785.16731,0.00573
3784.13706,0.00503
3783.10680,0.00520
3782.07654,0.00589
3781.04628,0.00636
3780.01602,0.00651
3778.98577,0.00646
3777.95551,0.00655
3776.92525,0.00661
3775.89499,0.00611
3774.86474,0.00561
3773.83448,0.00560
3772.80422,0.00584
3771.77396,0.00609
3770.74370,0.00619
3769.71345,0.00629
3768.68319,0.00643
3767.65293,0.00639
3766.62267,0.00613
3765.59241,0.00578
3764.56216,0.00582
3763.53190,0.00632
3762.50164,0.00701
3761.47138,0.00750
3760.44113,0.00745
3759.41087,0.00703
3758.38061,0.00656
3757.35035,0.00620
3756.32009,0.00617
3755.28984,0.00628
3754.25958,0.00638
3753.22932,0.00660
3752.19906,0.00680
3751.16880,0.00690
3750.13855,0.00727
3749.10829,0.00799
3748.07803,0.00789
3747.04777,0.00693
3746.01752,0.00642
3744.98726,0.00708
3743.95700,0.00792
3742.92674,0.00765
3741.89648,0.00744
3740.86623,0.00784
3739.83597,0.00830
3738.80571,0.00844
3737.77545,0.00866
3736.74520,0.00872
3735.71494,0.00814
3734.68468,0.00767
3733.65442,0.00786
3732.62416,0.00794
3731.59391,0.00748
3730.56365,0.00736
3729.53339,0.00794
3728.50313,0.00855
3727.47287,0.00889
3726.44262,0.00916
3725.41236,0.00947
3724.38210,0.00945
3723.35184,0.00893
3722.32159,0.00858
3721.29133,0.00884
3720.26107,0.00942
3719.23081,0.01023
3718.20055,0.01045
3717.17030,0.01012
3716.14004,0.01040
3715.10978,0.01077
3714.07952,0.01076
3713.04926,0.01102
3712.01901,0.01125
3710.98875,0.01113
3709.95849,0.01128
3708.92823,0.01152
3707.89798,0.01181
3706.86772,0.01219
3705.83746,0.01234
3704.80720,0.01225
3703.77694,0.01215
3702.74669,0.01225
3701.71643,0.01271
3700.68617,0.01328
3699.65591,0.01367
3698.62565,0.01406
3697.59540,0.01471
3696.56514,0.01527
3695.53488,0.01527
3694.50462,0.01485
3693.47437,0.01493
3692.44411,0.01583
3691.41385,0.01674
3690.38359,0.01722
3689.35333,0.01758
3688.32308,0.01806
3687.29282,0.01904
3686.26256,0.01993
3685.23230,0.02018
3684.20205,0.02045
3683.17179,0.02130
3682.14153,0.02219
3681.11127,0.02272
3680.08101,0.02332
3679.05076,0.02414
3678.02050,0.02496
3676.99024,0.02596
3675.95998,0.02737
3674.92972,0.02835
3673.89947,0.02867
3672.86921,0.02923
3671.83895,0.02973
3670.80869,0.03009
3669.77844,0.03122
3668.74818,0.03295
3667.71792,0.03372
3666.68766,0.03407
3665.65740,0.03511
3664.62715,0.03633
3663.59689,0.03728
3662.56663,0.03837
3661.53637,0.03967
3660.50611,0.04067
3659.47586,0.04115
3658.44560,0.04157
3657.41534,0.04260
3656.38508,0.04402
3655.35483,0.04528
3654.32457,0.04646
3653.29431,0.04764
3652.26405,0.04878
3651.23379,0.04975
3650.20354,0.05025
3649.17328,0.05038
3648.14302,0.05097
3647.11276,0.05216
3646.08250,0.05394
3645.05225,0.05547
3644.02199,0.05610
3642.99173,0.05671
3641.96147,0.05776
3640.93122,0.05874
3639.90096,0.05954
3638.87070,0.06028
3637.84044,0.06099
3636.81018,0.06210
3635.77993,0.06350
3634.74967,0.06477
3633.71941,0.06606
3632.68915,0.06717
3631.65890,0.06803
3630.62864,0.06892
3629.59838,0.06964
3628.56812,0.06988
3627.53786,0.07044
3626.50761,0.07134
3625.47735,0.07217
3624.44709,0.07346
3623.41683,0.07535
3622.38657,0.07661
3621.35632,0.07689
3620.32606,0.07721
3619.29580,0.07768
3618.26554,0.07814
3617.23529,0.07930
3616.20503,0.08086
3615.17477,0.08179
3614.14451,0.08186
3613.11425,0.08201
3612.08400,0.08304
3611.05374,0.08418
3610.02348,0.08515
3608.99322,0.08666
3607.96296,0.08812
3606.93271,0.08896
3605.90245,0.08956
3604.87219,0.09032
3603.84193,0.09155
3602.81168,0.09291
3601.78142,0.09374
3600.75116,0.09415
3599.72090,0.09473
3598.69064,0.09546
3597.66039,0.09606
3596.63013,0.09668
3595.59987,0.09749
3594.56961,0.09833
3593.53936,0.09911
3592.50910,0.10019
3591.47884,0.10133
3590.44858,0.10202
3589.41832,0.10303
3588.38807,0.10484
3587.35781,0.10604
3586.32755,0.10596
3585.29729,0.10587
3584.26703,0.10673
3583.23678,0.10839
3582.20652,0.11005
3581.17626,0.11131
3580.14600,0.11211
3579.11575,0.11257
3578.08549,0.11331
3577.05523,0.11476
3576.02497,0.11626
3574.99471,0.11682
3573.96446,0.11701
3572.93420,0.11806
3571.90394,0.11969
3570.87368,0.12107
3569.84342,0.12210
3568.81317,0.12328
3567.78291,0.12440
3566.75265,0.12496
3565.72239,0.12529
3564.69214,0.12569
3563.66188,0.12674
3562.63162,0.12850
3561.60136,0.13001
3560.57110,0.13095
3559.54085,0.13176
3558.51059,0.13283
3557.48033,0.13420
3556.45007,0.13542
3555.41981,0.13642
3554.38956,0.13740
3553.35930,0.13809
3552.32904,0.13855
3551.29878,0.13937
3550.26853,0.14066
3549.23827,0.14219
3548.20801,0.14337
3547.17775,0.14421
3546.14749,0.14555
3545.11724,0.14711
3544.08698,0.14845
3543.05672,0.14957
3542.02646,0.15031
3540.99621,0.15111
3539.96595,0.15232
3538.93569,0.15378
3537.90543,0.15509
3536.87517,0.15586
3535.84492,0.15622
3534.81466,0.15707
3533.78440,0.15880
3532.75414,0.16036
3531.72388,0.16101
3530.69363,0.16164
3529.66337,0.16287
3528.63311,0.16431
3527.60285,0.16560
3526.57260,0.16664
3525.54234,0.16781
3524.51208,0.16949
3523.48182,0.17111
3522.45156,0.17217
3521.42131,0.17320
3520.39105,0.17427
3519.36079,0.17520
3518.33053,0.17642
3517.30027,0.17794
3516.27002,0.17925
3515.23976,0.18027
3514.20950,0.18147
3513.17924,0.18320
3512.14899,0.18498
3511.11873,0.18610
3510.08847,0.18684
3509.05821,0.18775
3508.02795,0.18861
3506.99770,0.18946
3505.96744,0.19037
3504.93718,0.19133
3503.90692,0.19287
3502.87666,0.19446
3501.84641,0.19535
3500.81615,0.19612
3499.78589,0.19716
3498.75563,0.19846
3497.72538,0.19999
3496.69512,0.20183
3495.66486,0.20388
3494.63460,0.20529
3493.60434,0.20582
3492.57409,0.20650
3491.54383,0.20778
3490.51357,0.20913
3489.48331,0.21053
3488.45306,0.21215
3487.42280,0.21331
3486.39254,0.21402
3485.36228,0.21508
3484.33202,0.21636
3483.30177,0.21780
3482.27151,0.21951
3481.24125,0.22089
3480.21099,0.22163
3479.18073,0.22237
3478.15048,0.22356
3477.12022,0.22505
3476.08996,0.22662
3475.05970,0.22806
3474.02945,0.22927
3472.99919,0.23042
3471.96893,0.23187
3470.93867,0.23357
3469.90841,0.23484
3468.87816,0.23543
3467.84790,0.23564
3466.81764,0.23635
3465.78738,0.23827
3464.75712,0.24053
3463.72687,0.24179
3462.69661,0.24268
3461.66635,0.24431
3460.63609,0.24565
3459.60584,0.24667
3458.57558,0.24851
3457.54532,0.25037
3456.51506,0.25160
3455.48480,0.25287
3454.45455,0.25436
3453.42429,0.25543
3452.39403,0.25610
3451.36377,0.25758
3450.33351,0.25997
3449.30326,0.26177
3448.27300,0.26255
3447.24274,0.26344
3446.21248,0.26494
3445.18223,0.26608
3444.15197,0.26687
3443.12171,0.26832
3442.09145,0.27035
3441.06119,0.27190
3440.03094,0.27233
3439.00068,0.27253
3437.97042,0.27372
3436.94016,0.27576
3435.90991,0.27744
3434.87965,0.27823
3433.84939,0.27927
3432.81913,0.28098
3431.78887,0.28221
3430.75862,0.28322
3429.72836,0.28504
3428.69810,0.28688
3427.66784,0.28800
3426.63758,0.28871
3425.60733,0.28972
3424.57707,0.29158
3423.54681,0.29353
3422.51655,0.29485
3421.48630,0.29616
3420.45604,0.29762
3419.42578,0.29870
3418.39552,0.29958
3417.36526,0.30054
3416.33501,0.30153
3415.30475,0.30279
3414.27449,0.30419
3413.24423,0.30550
3412.21397,0.30693
3411.18372,0.30799
3410.15346,0.30857
3409.12320,0.30970
3408.09294,0.31155
3407.06269,0.31318
3406.03243,0.31396
3405.00217,0.31454
3403.97191,0.31554
3402.94165,0.31625
3401.91140,0.31686
3400.88114,0.31801
3399.85088,0.31886
3398.82062,0.31939
3397.79036,0.32067
3396.76011,0.32212
3395.72985,0.32312
3394.69959,0.32463
3393.66933,0.32637
3392.63908,0.32703
3391.60882,0.32703
3390.57856,0.32758
3389.54830,0.32880
3388.51804,0.33031
3387.48779,0.33178
3386.45753,0.33241
3385.42727,0.33263
3384.39701,0.33393
3383.36676,0.33570
3382.33650,0.33636
3381.30624,0.33627
3380.27598,0.33677
3379.24572,0.33787
3378.21547,0.33863
3377.18521,0.33868
3376.15495,0.33852
3375.12469,0.33899
3374.09443,0.34009
3373.06418,0.34103
3372.03392,0.34124
3371.00366,0.34110
3369.97340,0.34168
3368.94315,0.34278
3367.91289,0.34321
3366.88263,0.34351
3365.85237,0.34465
3364.82211,0.34586
3363.79186,0.34649
3362.76160,0.34716
3361.73134,0.34788
3360.70108,0.34833
3359.67082,0.34850
3358.64057,0.34842
3357.61031,0.34884
3356.58005,0.34963
3355.54979,0.34982
3354.51954,0.34964
3353.48928,0.34980
3352.45902,0.35002
3351.42876,0.34992
3350.39850,0.34997
3349.36825,0.35038
3348.33799,0.35057
3347.30773,0.35063
3346.27747,0.35134
3345.24721,0.35206
3344.21696,0.35207
3343.18670,0.35209
3342.15644,0.35255
3341.12618,0.35289
3340.09593,0.35274
3339.06567,0.35262
3338.03541,0.35284
3337.00515,0.35329
3335.97489,0.35371
3334.94464,0.35378
3333.91438,0.35365
3332.88412,0.35390
3331.85386,0.35474
3330.82361,0.35520
3329.79335,0.35471
3328.76309,0.35450
3327.73283,0.35480
3326.70257,0.35441
3325.67232,0.35390
3324.64206,0.35394
3323.61180,0.35419
3322.58154,0.35463
3321.55128,0.35503
3320.52103,0.35550
3319.49077,0.35616
3318.46051,0.35668
3317.43025,0.35664
3316.40000,0.35605
3315.36974,0.35569
3314.33948,0.35594
3313.30922,0.35625
3312.27896,0.35615
3311.24871,0.35585
3310.21845,0.35563
3309.18819,0.35528
3308.15793,0.35492
3307.12767,0.35487
3306.09742,0.35518
3305.06716,0.35550
3304.03690,0.35550
3303.00664,0.35542
3301.97639,0.35568
3300.94613,0.35617
3299.91587,0.35641
3298.88561,0.35646
3297.85535,0.35645
3296.82510,0.35609
3295.79484,0.35552
3294.76458,0.35541
3293.73432,0.35599
3292.70406,0.35625
3291.67381,0.35534
3290.64355,0.35433
3289.61329,0.35460
3288.58303,0.35564
3287.55278,0.35635
3286.52252,0.35652
3285.49226,0.35623
3284.46200,0.35608
3283.43174,0.35605
3282.40149,0.35574
3281.37123,0.35588
3280.34097,0.35629
3279.31071,0.35659
3278.28046,0.35715
3277.25020,0.35754
3276.21994,0.35744
3275.18968,0.35709
3274.15942,0.35640
3273.12917,0.35541
3272.09891,0.35471
3271.06865,0.35473
3270.03839,0.35529
3269.00813,0.35625
3267.97788,0.35754
3266.94762,0.35843
3265.91736,0.35832
3264.88710,0.35783
3263.85685,0.35729
3262.82659,0.35663
3261.79633,0.35608
3260.76607,0.35578
3259.73581,0.35573
3258.70556,0.35559
3257.67530,0.35542
3256.64504,0.35596
3255.61478,0.35634
3254.58452,0.35549
3253.55427,0.35444
3252.52401,0.35403
3251.49375,0.35394
3250.46349,0.35418
3249.43324,0.35472
3248.40298,0.35481
3247.37272,0.35430
3246.34246,0.35381
3245.31220,0.35323
3244.28195,0.35236
3243.25169,0.35187
3242.22143,0.35181
3241.19117,0.35187
3240.16092,0.35199
3239.13066,0.35163
3238.10040,0.35108
3237.07014,0.35078
3236.03988,0.35068
3235.00963,0.35100
3233.97937,0.35108
3232.94911,0.35036
3231.91885,0.34920
3230.88859,0.34826
3229.85834,0.34758
3228.82808,0.34713
3227.79782,0.34723
3226.76756,0.34736
3225.73731,0.34669
3224.70705,0.34523
3223.67679,0.34362
3222.64653,0.34267
3221.61627,0.34267
3220.58602,0.34279
3219.55576,0.34222
3218.52550,0.34107
3217.49524,0.34005
3216.46498,0.33958
3215.43473,0.33917
3214.40447,0.33804
3213.37421,0.33661
3212.34395,0.33580
3211.31370,0.33515
3210.28344,0.33416
3209.25318,0.33313
3208.22292,0.33239
3207.19266,0.33215
3206.16241,0.33181
3205.13215,0.33076
3204.10189,0.32921
3203.07163,0.32752
3202.04137,0.32611
3201.01112,0.32527
3199.98086,0.32476
3198.95060,0.32421
3197.92034,0.32344
3196.89009,0.32221
3195.85983,0.32041
3194.82957,0.31867
3193.79931,0.31743
3192.76905,0.31611
3191.73880,0.31460
3190.70854,0.31324
3189.67828,0.31204
3188.64802,0.31090
3187.61777,0.30948
3186.58751,0.30801
3185.55725,0.30707
3184.52699,0.30624
3183.49673,0.30474
3182.46648,0.30246
3181.43622,0.30017
3180.40596,0.29918
3179.37570,0.29902
3178.34544,0.29787
3177.31519,0.29584
3176.28493,0.29392
3175.25467,0.29274
3174.22441,0.29196
3173.19416,0.29028
3172.16390,0.28818
3171.13364,0.28647
3170.10338,0.28472
3169.07312,0.28306
3168.04287,0.28149
3167.01261,0.27999
3165.98235,0.27888
3164.95209,0.27781
3163.92183,0.27608
3162.89158,0.27419
3161.86132,0.27299
3160.83106,0.27178
3159.80080,0.26998
3158.77055,0.26850
3157.74029,0.26750
3156.71003,0.26586
3155.67977,0.26366
3154.64951,0.26147
3153.61926,0.25918
3152.58900,0.25721
3151.55874,0.25592
3150.52848,0.25499
3149.49822,0.25399
3148.46797,0.25256
3147.43771,0.25054
3146.40745,0.24847
3145.37719,0.24684
3144.34694,0.24532
3143.31668,0.24353
3142.28642,0.24168
3141.25616,0.23984
3140.22590,0.23797
3139.19565,0.23629
3138.16539,0.23507
3137.13513,0.23418
3136.10487,0.23303
3135.07462,0.23120
3134.04436,0.22892
3133.01410,0.22683
3131.98384,0.22507
3130.95358,0.22338
3129.92333,0.22161
3128.89307,0.21998
3127.86281,0.21858
3126.83255,0.21716
3125.80229,0.21592
3124.77204,0.21476
3123.74178,0.21324
3122.71152,0.21144
3121.68126,0.20925
3120.65101,0.20679
3119.62075,0.20486
3118.59049,0.20371
3117.56023,0.20283
3116.52997,0.20162
3115.49972,0.19975
3114.46946,0.19782
3113.43920,0.19648
3112.40894,0.19529
3111.37868,0.19369
3110.34843,0.19169
3109.31817,0.18992
3108.28791,0.18902
3107.25765,0.18838
3106.22740,0.18707
3105.19714,0.18528
3104.16688,0.18376
3103.13662,0.18244
3102.10636,0.18093
3101.07611,0.17932
3100.04585,0.17782
3099.01559,0.17648
3097.98533,0.17499
3096.95507,0.17331
3095.92482,0.17191
3094.89456,0.17059
3093.86430,0.16918
3092.83404,0.16806
3091.80379,0.16695
3090.77353,0.16565
3089.74327,0.16437
3088.71301,0.16251
3087.68275,0.16032
3086.65250,0.15907
3085.62224,0.15840
3084.59198,0.15726
3083.56172,0.15593
3082.53147,0.15505
3081.50121,0.15426
3080.47095,0.15287
3079.44069,0.15125
3078.41043,0.14972
3077.38018,0.14810
3076.34992,0.14665
3075.31966,0.14549
3074.28940,0.14425
3073.25914,0.14306
3072.22889,0.14229
3071.19863,0.14129
3070.16837,0.13964
3069.13811,0.13807
3068.10786,0.13693
3067.07760,0.13572
3066.04734,0.13438
3065.01708,0.13336
3063.98682,0.13258
3062.95657,0.13154
3061.92631,0.13032
3060.89605,0.12917
3059.86579,0.12789
3058.83553,0.12662
3057.80528,0.12573
3056.77502,0.12498
3055.74476,0.12407
3054.71450,0.12294
3053.68425,0.12173
3052.65399,0.12082
3051.62373,0.12012
3050.59347,0.11927
3049.56321,0.11829
3048.53296,0.11708
3047.50270,0.11566
3046.47244,0.11455
3045.44218,0.11396
3044.41192,0.11345
3043.38167,0.11235
3042.35141,0.11076
3041.32115,0.10944
3040.29089,0.10867
3039.26064,0.10815
3038.23038,0.10749
3037.20012,0.10657
3036.16986,0.10550
3035.13960,0.10443
3034.10935,0.10350
3033.07909,0.10287
3032.04883,0.10238
3031.01857,0.10159
3029.98832,0.10050
3028.95806,0.09951
3027.92780,0.09874
3026.89754,0.09784
3025.86728,0.09691
3024.83703,0.09633
3023.80677,0.09574
3022.77651,0.09459
3021.74625,0.09336
3020.71599,0.09256
3019.68574,0.09206
3018.65548,0.09160
3017.62522,0.09085
3016.59496,0.08955
3015.56471,0.08809
3014.53445,0.08698
3013.50419,0.08627
3012.47393,0.08579
3011.44367,0.08538
3010.41342,0.08499
3009.38316,0.08447
3008.35290,0.08367
3007.32264,0.08307
3006.29238,0.08247
3005.26213,0.08137
3004.23187,0.08045
3003.20161,0.07989
3002.17135,0.07914
3001.14110,0.07824
3000.11084,0.07757
2999.08058,0.07721
2998.05032,0.07682
2997.02006,0.07614
2995.98981,0.07531
2994.95955,0.07442
2993.92929,0.07350
2992.89903,0.07297
2991.86877,0.07284
2990.83852,0.07247
2989.80826,0.07165
2988.77800,0.07080
2987.74774,0.07016
2986.71749,0.06959
2985.68723,0.06906
2984.65697,0.06877
2983.62671,0.06842
2982.59645,0.06764
2981.56620,0.06661
2980.53594,0.06586
2979.50568,0.06577
2978.47542,0.06587
2977.44517,0.06550
2976.41491,0.06487
2975.38465,0.06434
2974.35439,0.06376
2973.32413,0.06300
2972.29388,0.06212
2971.26362,0.06130
2970.23336,0.06072
2969.20310,0.06033
2968.17284,0.05997
2967.14259,0.05956
2966.11233,0.05906
2965.08207,0.05868
2964.05181,0.05858
2963.02156,0.05842
2961.99130,0.05798
2960.96104,0.05726
2959.93078,0.05657
2958.90052,0.05600
2957.87027,0.05539
2956.84001,0.05483
2955.80975,0.05426
2954.77949,0.05359
2953.74923,0.05302
2952.71898,0.05277
2951.68872,0.05261
2950.65846,0.05206
2949.62820,0.05141
2948.59795,0.05100
2947.56769,0.05074
2946.53743,0.05026
2945.50717,0.04945
2944.47691,0.04879
2943.44666,0.04848
2942.41640,0.04833
2941.38614,0.04800
2940.35588,0.04734
2939.32562,0.04674
2938.29537,0.04637
2937.26511,0.04593
2936.23485,0.04538
2935.20459,0.04504
2934.17434,0.04489
2933.14408,0.04468
2932.11382,0.04416
2931.08356,0.04368
2930.05330,0.04359
2929.02305,0.04337
2927.99279,0.04295
2926.96253,0.04286
2925.93227,0.04296
2924.90202,0.04245
2923.87176,0.04156
2922.84150,0.04113
2921.81124,0.04074
2920.78098,0.04021
2919.75073,0.03997
2918.72047,0.03991
2917.69021,0.03983
2916.65995,0.03960
2915.62969,0.03923
2914.59944,0.03894
2913.56918,0.03870
2912.53892,0.03829
2911.50866,0.03777
2910.47841,0.03741
2909.44815,0.03716
2908.41789,0.03674
2907.38763,0.03623
2906.35737,0.03609
2905.32712,0.03610
2904.29686,0.03572
2903.26660,0.03535
2902.23634,0.03526
2901.20608,0.03493
2900.17583,0.03454
2899.14557,0.03434
2898.11531,0.03402
2897.08505,0.03365
2896.05480,0.03330
2895.02454,0.03301
2893.99428,0.03293
2892.96402,0.03283
2891.93376,0.03257
2890.90351,0.03236
2889.87325,0.03213
2888.84299,0.03158
2887.81273,0.03095
2886.78247,0.03075
2885.75222,0.03067
2884.72196,0.03038
2883.69170,0.03026
2882.66144,0.03036
2881.63119,0.03038
2880.60093,0.03012
2879.57067,0.02957
2878.54041,0.02912
2877.51015,0.02890
2876.47990,0.02854
2875.44964,0.02808
2874.41938,0.02788
2873.38912,0.02793
2872.35887,0.02807
2871.32861,0.02807
2870.29835,0.02770
2869.26809,0.02705
2868.23783,0.02657
2867.20758,0.02643
2866.17732,0.02650
2865.14706,0.02657
2864.11680,0.02650
2863.08654,0.02612
2862.05629,0.02556
2861.02603,0.02512
2859.99577,0.02503
2858.96551,0.02544
2857.93526,0.02603
2856.90500,0.02605
2855.87474,0.02538
2854.84448,0.02473
2853.81422,0.02447
2852.78397,0.02425
2851.75371,0.02382
2850.72345,0.02350
2849.69319,0.02328
2848.66293,0.02276
2847.63268,0.02244
2846.60242,0.02268
2845.57216,0.02290
2844.54190,0.02281
2843.51165,0.02264
2842.48139,0.02237
2841.45113,0.02220
2840.42087,0.02231
2839.39061,0.02221
2838.36036,0.02191
2837.33010,0.02187
2836.29984,0.02186
2835.26958,0.02157
2834.23933,0.02112
2833.20907,0.02078
2832.17881,0.02063
2831.14855,0.02043
2830.11829,0.02021
2829.08804,0.02010
2828.05778,0.01998
2827.02752,0.02004
2825.99726,0.02022
2824.96700,0.02026
2823.93675,0.02016
2822.90649,0.01987
2821.87623,0.01955
2820.84597,0.01950
2819.81572,0.01942
2818.78546,0.01901
2817.75520,0.01868
2816.72494,0.01875
2815.69468,0.01900
2814.66443,0.01905
2813.63417,0.01876
2812.60391,0.01839
2811.57365,0.01816
2810.54339,0.01798
2809.51314,0.01788
2808.48288,0.01792
2807.45262,0.01794
2806.42236,0.01789
2805.39211,0.01777
2804.36185,0.01758
2803.33159,0.01739
2802.30133,0.01715
2801.27107,0.01679
2800.24082,0.01644
2799.21056,0.01625
2798.18030,0.01627
2797.15004,0.01655
2796.11978,0.01677
2795.08953,0.01647
2794.05927,0.01607
2793.02901,0.01603
2791.99875,0.01605
2790.96850,0.01606
2789.93824,0.01618
2788.90798,0.01622
2787.87772,0.01615
2786.84746,0.01613
2785.81721,0.01604
2784.78695,0.01586
2783.75669,0.01583
2782.72643,0.01574
2781.69618,0.01550
2780.66592,0.01517
2779.63566,0.01477
2778.60540,0.01458
2777.57514,0.01465
2776.54489,0.01472
2775.51463,0.01467
2774.48437,0.01460
2773.45411,0.01457
2772.42385,0.01440
2771.39360,0.01413
2770.36334,0.01408
2769.33308,0.01414
2768.30282,0.01412
2767.27257,0.01420
2766.24231,0.01441
2765.21205,0.01440
2764.18179,0.01407
2763.15153,0.01380
2762.12128,0.01369
2761.09102,0.01359
2760.06076,0.01355
2759.03050,0.01359
2758.00024,0.01377
2756.96999,0.01388
2755.93973,0.01355
2754.90947,0.01302
2753.87921,0.01270
2752.84896,0.01266
2751.81870,0.01287
2750.78844,0.01295
2749.75818,0.01271
2748.72792,0.01268
2747.69767,0.01297
2746.66741,0.01293
2745.63715,0.01256
2744.60689,0.01242
2743.57663,0.01252
2742.54638,0.01240
2741.51612,0.01217
2740.48586,0.01241
2739.45560,0.01276
2738.42535,0.01253
2737.39509,0.01218
2736.36483,0.01225
2735.33457,0.01236
2734.30431,0.01230
2733.27406,0.01233
2732.24380,0.01239
2731.21354,0.01224
2730.18328,0.01197
2729.15303,0.01177
2728.12277,0.01175
2727.09251,0.01179
2726.06225,0.01160
2725.03199,0.01134
2724.00174,0.01128
2722.97148,0.01137
2721.94122,0.01138
2720.91096,0.01120
2719.88070,0.01097
2718.85045,0.01088
2717.82019,0.01102
2716.78993,0.01115
2715.75967,0.01113
2714.72942,0.01110
2713.69916,0.01097
2712.66890,0.01060
2711.63864,0.01046
2710.60838,0.01078
2709.57813,0.01101
2708.54787,0.01099
2707.51761,0.01088
2706.48735,0.01049
2705.45709,0.01016
2704.42684,0.01026
2703.39658,0.01035
2702.36632,0.01021
2701.33606,0.01028
2700.30581,0.01060
2699.27555,0.01079
2698.24529,0.01067
2697.21503,0.01036
2696.18477,0.01022
2695.15452,0.01031
2694.12426,0.01048
2693.09400,0.01061
2692.06374,0.01056
2691.03348,0.01033
2690.00323,0.01011
2688.97297,0.00999
2687.94271,0.00990
2686.91245,0.00982
2685.88220,0.00971
2684.85194,0.00946
2683.82168,0.00936
2682.79142,0.00956
2681.76116,0.00980
2680.73091,0.00984
2679.70065,0.00973
2678.67039,0.00958
2677.64013,0.00949
2676.60988,0.00956
2675.57962,0.00965
2674.54936,0.00958
2673.51910,0.00937
2672.48884,0.00927
2671.45859,0.00947
2670.42833,0.00965
2669.39807,0.00972
2668.36781,0.00993
2667.33755,0.01012
2666.30730,0.01013
2665.27704,0.00993
2664.24678,0.00961
2663.21652,0.00940
2662.18627,0.00948
2661.15601,0.00974
2660.12575,0.00988
2659.09549,0.00974
2658.06523,0.00961
2657.03498,0.00962
2656.00472,0.00961
2654.97446,0.00963
2653.94420,0.00941
2652.91394,0.00898
2651.88369,0.00893
2650.85343,0.00928
2649.82317,0.00945
2648.79291,0.00922
2647.76266,0.00897
2646.73240,0.00895
2645.70214,0.00900
2644.67188,0.00905
2643.64162,0.00927
2642.61137,0.00945
2641.58111,0.00929
2640.55085,0.00902
2639.52059,0.00894
2638.49033,0.00891
2637.46008,0.00876
2636.42982,0.00868
2635.39956,0.00885
2634.36930,0.00914
2633.33905,0.00922
2632.30879,0.00924
2631.27853,0.00927
2630.24827,0.00911
2629.21801,0.00882
2628.18776,0.00847
2627.15750,0.00802
2626.12724,0.00770
2625.09698,0.00792
2624.06673,0.00845
2623.03647,0.00879
2622.00621,0.00880
2620.97595,0.00855
2619.94569,0.00853
2618.91544,0.00885
2617.88518,0.00882
2616.85492,0.00835
2615.82466,0.00801
2614.79440,0.00788
2613.76415,0.00783
2612.73389,0.00791
2611.70363,0.00828
2610.67337,0.00877
2609.64312,0.00903
2608.61286,0.00903
2607.58260,0.00882
2606.55234,0.00861
2605.52208,0.00849
2604.49183,0.00832
2603.46157,0.00800
2602.43131,0.00770
2601.40105,0.00785
2600.37079,0.00819
2599.34054,0.00814
2598.31028,0.00793
2597.28002,0.00798
2596.24976,0.00821
2595.21951,0.00855
2594.18925,0.00883
2593.15899,0.00866
2592.12873,0.00848
2591.09847,0.00897
2590.06822,0.00921
2589.03796,0.00861
2588.00770,0.00818
2586.97744,0.00836
2585.94718,0.00853
2584.91693,0.00853
2583.88667,0.00842
2582.85641,0.00824
2581.82615,0.00819
2580.79590,0.00809
2579.76564,0.00785
2578.73538,0.00791
2577.70512,0.00821
2576.67486,0.00820
2575.64461,0.00803
2574.61435,0.00797
2573.58409,0.00789
2572.55383,0.00766
2571.52358,0.00724
2570.49332,0.00728
2569.46306,0.00775
2568.43280,0.00777
2567.40254,0.00773
2566.37229,0.00797
2565.34203,0.00801
2564.31177,0.00772
2563.28151,0.00747
2562.25125,0.00758
2561.22100,0.00785
2560.19074,0.00816
2559.16048,0.00834
2558.13022,0.00827
2557.09997,0.00808
2556.06971,0.00788
2555.03945,0.00771
2554.00919,0.00775
2552.97893,0.00803
2551.94868,0.00822
2550.91842,0.00829
2549.88816,0.00831
2548.85790,0.00833
2547.82764,0.00845
2546.79739,0.00874
2545.76713,0.00904
2544.73687,0.00892
2543.70661,0.00850
2542.67636,0.00838
2541.64610,0.00877
2540.61584,0.00941
2539.58558,0.00968
2538.55532,0.00936
2537.52507,0.00885
2536.49481,0.00852
2535.46455,0.00857
2534.43429,0.00882
2533.40403,0.00871
2532.37378,0.00830
2531.34352,0.00829
2530.31326,0.00893
2529.28300,0.00920
2528.25275,0.00853
2527.22249,0.00819
2526.19223,0.00893
2525.16197,0.00952
2524.13171,0.00908
2523.10146,0.00837
2522.07120,0.00826
2521.04094,0.00836
2520.01068,0.00813
2518.98043,0.00812
2517.95017,0.00861
2516.91991,0.00883
2515.88965,0.00836
2514.85939,0.00770
2513.82914,0.00738
2512.79888,0.00751
2511.76862,0.00803
2510.73836,0.00861
2509.70810,0.00871
2508.67785,0.00831
2507.64759,0.00808
2506.61733,0.00843
2505.58707,0.00895
2504.55682,0.00910
2503.52656,0.00881
2502.49630,0.00859
2501.46604,0.00870
2500.43578,0.00858
2499.40553,0.00804
2498.37527,0.00772
2497.34501,0.00798
2496.31475,0.00828
2495.28449,0.00809
2494.25424,0.00811
2493.22398,0.00855
2492.19372,0.00860
2491.16346,0.00877
2490.13321,0.00959
2489.10295,0.00985
2488.07269,0.00936
2487.04243,0.00910
2486.01217,0.00891
2484.98192,0.00875
2483.95166,0.00905
2482.92140,0.00935
2481.89114,0.00952
2480.86088,0.00974
2479.83063,0.00970
2478.80037,0.00939
2477.77011,0.00925
2476.73985,0.00953
2475.70960,0.00993
2474.67934,0.01007
2473.64908,0.01017
2472.61882,0.01013
2471.58856,0.00961
2470.55831,0.00931
2469.52805,0.00965
2468.49779,0.01003
2467.46753,0.01012
2466.43728,0.01020
2465.40702,0.01040
2464.37676,0.01038
2463.34650,0.01008
2462.31624,0.00986
2461.28599,0.01000
2460.25573,0.01029
2459.22547,0.01039
2458.19521,0.01071
2457.16495,0.01096
2456.13470,0.01066
2455.10444,0.01063
2454.07418,0.01104
2453.04392,0.01092
2452.01367,0.01017
2450.98341,0.00950
2449.95315,0.00942
2448.92289,0.00983
2447.89263,0.01035
2446.86238,0.01064
2445.83212,0.01064
2444.80186,0.01072
2443.77160,0.01056
2442.74134,0.00986
2441.71109,0.00949
2440.68083,0.00977
2439.65057,0.00992
2438.62031,0.00971
2437.59006,0.00975
2436.55980,0.01013
2435.52954,0.01028
2434.49928,0.01012
2433.46902,0.01007
2432.43877,0.01021
2431.40851,0.01046
2430.37825,0.01076
2429.34799,0.01112
2428.31774,0.01147
2427.28748,0.01148
2426.25722,0.01132
2425.22696,0.01139
2424.19670,0.01126
2423.16645,0.01086
2422.13619,0.01069
2421.10593,0.01072
2420.07567,0.01054
2419.04541,0.00997
2418.01516,0.00962
2416.98490,0.00985
2415.95464,0.01039
2414.92438,0.01085
2413.89413,0.01095
2412.86387,0.01113
2411.83361,0.01154
2410.80335,0.01152
2409.77309,0.01122
2408.74284,0.01133
2407.71258,0.01162
2406.68232,0.01166
2405.65206,0.01146
2404.62180,0.01146
2403.59155,0.01172
2402.56129,0.01179
2401.53103,0.01163
2400.50077,0.01154
2399.47052,0.01168
2398.44026,0.01187
2397.41000,0.01210
2396.37974,0.01238
2395.34948,0.01244
2394.31923,0.01230
2393.28897,0.01220
2392.25871,0.01225
2391.22845,0.01229
2390.19819,0.01217
2389.16794,0.01190
2388.13768,0.01183
2387.10742,0.01203
2386.07716,0.01208
2385.04691,0.01188
2384.01665,0.01189
2382.98639,0.01234
2381.95613,0.01287
2380.92587,0.01313
2379.89562,0.01305
2378.86536,0.01289
2377.83510,0.01305
2376.80484,0.01312
2375.77459,0.01283
2374.74433,0.01312
2373.71407,0.01389
2372.68381,0.01433
2371.65355,0.01477
2370.62330,0.01509
2369.59304,0.01467
2368.56278,0.01416
2367.53252,0.01428
2366.50226,0.01452
2365.47201,0.01447
2364.44175,0.01452
2363.41149,0.01452
2362.38123,0.01427
2361.35098,0.01477
2360.32072,0.01548
2359.29046,0.01481
2358.26020,0.01337
2357.22994,0.01286
2356.19969,0.01359
2355.16943,0.01448
2354.13917,0.01475
2353.10891,0.01451
2352.07865,0.01413
2351.04840,0.01411
2350.01814,0.01453
2348.98788,0.01490
2347.95762,0.01494
2346.92737,0.01466
2345.89711,0.01444
2344.86685,0.01469
2343.83659,0.01512
2342.80633,0.01526
2341.77608,0.01528
2340.74582,0.01555
2339.71556,0.01568
2338.68530,0.01559
2337.65504,0.01580
2336.62479,0.01611
2335.59453,0.01593
2334.56427,0.01544
2333.53401,0.01542
2332.50376,0.01642
2331.47350,0.01742
2330.44324,0.01669
2329.41298,0.01501
2328.38272,0.01431
2327.35247,0.01467
2326.32221,0.01524
2325.29195,0.01561
2324.26169,0.01569
2323.23144,0.01549
2322.20118,0.01542
2321.17092,0.01552
2320.14066,0.01538
2319.11040,0.01505
2318.08015,0.01500
2317.04989,0.01528
2316.01963,0.01567
2314.98937,0.01607
2313.95911,0.01593
2312.92886,0.01551
2311.89860,0.01570
2310.86834,0.01627
2309.83808,0.01659
2308.80783,0.01666
2307.77757,0.01648
2306.74731,0.01601
2305.71705,0.01589
2304.68679,0.01638
2303.65654,0.01678
2302.62628,0.01647
2301.59602,0.01565
2300.56576,0.01523
2299.53550,0.01576
2298.50525,0.01651
2297.47499,0.01649
2296.44473,0.01596
2295.41447,0.01579
2294.38422,0.01619
2293.35396,0.01672
2292.32370,0.01677
2291.29344,0.01642
2290.26318,0.01618
2289.23293,0.01623
2288.20267,0.01676
2287.17241,0.01763
2286.14215,0.01806
2285.11189,0.01774
2284.08164,0.01732
2283.05138,0.01729
2282.02112,0.01741
2280.99086,0.01729
2279.96061,0.01685
2278.93035,0.01659
2277.90009,0.01674
2276.86983,0.01654
2275.83957,0.01603
2274.80932,0.01640
2273.77906,0.01736
2272.74880,0.01765
2271.71854,0.01736
2270.68829,0.01736
2269.65803,0.01764
2268.62777,0.01790
2267.59751,0.01828
2266.56725,0.01847
2265.53700,0.01796
2264.50674,0.01702
2263.47648,0.01646
2262.44622,0.01683
2261.41596,0.01786
2260.38571,0.01833
2259.35545,0.01783
2258.32519,0.01785
2257.29493,0.01923
2256.26468,0.02033
2255.23442,0.01932
2254.20416,0.01778
2253.17390,0.01822
2252.14364,0.01891
2251.11339,0.01759
2250.08313,0.01665
2249.05287,0.01817
2248.02261,0.01999
2246.99235,0.02014
2245.96210,0.01937
2244.93184,0.01915
2243.90158,0.01912
2242.87132,0.01827
2241.84107,0.01759
2240.81081,0.01771
2239.78055,0.01779
2238.75029,0.01780
2237.72003,0.01836
2236.68978,0.01885
2235.65952,0.01875
2234.62926,0.01893
2233.59900,0.01902
2232.56874,0.01906
2231.53849,0.01973
2230.50823,0.01995
2229.47797,0.01981
2228.44771,0.02007
2227.41746,0.01947
2226.38720,0.01791
2225.35694,0.01767
2224.32668,0.01944
2223.29642,0.02129
2222.26617,0.02198
2221.23591,0.02150
2220.20565,0.02040
2219.17539,0.01946
2218.14514,0.01948
2217.11488,0.02042
2216.08462,0.02046
2215.05436,0.01941
2214.02410,0.01982
2212.99385,0.02171
2211.96359,0.02198
2210.93333,0.02014
2209.90307,0.01896
2208.87281,0.01946
2207.84256,0.01997
2206.81230,0.01997
2205.78204,0.02053
2204.75178,0.02143
2203.72153,0.02131
2202.69127,0.02079
2201.66101,0.02149
2200.63075,0.02249
2199.60049,0.02232
2198.57024,0.02107
2197.53998,0.02000
2196.50972,0.02036
2195.47946,0.02137
2194.44920,0.02178
2193.41895,0.02135
2192.38869,0.02036
2191.35843,0.01919
2190.32817,0.01873
2189.29792,0.01982
2188.26766,0.02175
2187.23740,0.02251
2186.20714,0.02207
2185.17688,0.02225
2184.14663,0.02214
2183.11637,0.01996
2182.08611,0.01815
2181.05585,0.01923
2180.02559,0.02093
2178.99534,0.02136
2177.96508,0.02131
2176.93482,0.02110
2175.90456,0.02099
2174.87431,0.02042
2173.84405,0.01899
2172.81379,0.01955
2171.78353,0.02252
2170.75327,0.02399
2169.72302,0.02275
2168.69276,0.02178
2167.66250,0.02329
2166.63224,0.02471
2165.60199,0.02454
2164.57173,0.02493
2163.54147,0.02466
2162.51121,0.02300
2161.48095,0.02126
2160.45070,0.01917
2159.42044,0.01896
2158.39018,0.02086
2157.35992,0.02124
2156.32966,0.02127
2155.29941,0.02250
2154.26915,0.02304
2153.23889,0.02227
2152.20863,0.02163
2151.17838,0.02236
2150.14812,0.02374
2149.11786,0.02422
2148.08760,0.02434
2147.05734,0.02469
2146.02709,0.02413
2144.99683,0.02342
2143.96657,0.02375
2142.93631,0.02404
2141.90605,0.02375
2140.87580,0.02403
2139.84554,0.02456
2138.81528,0.02413
2137.78502,0.02389
2136.75477,0.02399
2135.72451,0.02288
2134.69425,0.02139
2133.66399,0.02142
2132.63373,0.02280
2131.60348,0.02356
2130.57322,0.02295
2129.54296,0.02251
2128.51270,0.02319
2127.48244,0.02391
2126.45219,0.02400
2125.42193,0.02380
2124.39167,0.02336
2123.36141,0.02282
2122.33116,0.02275
2121.30090,0.02351
2120.27064,0.02445
2119.24038,0.02468
2118.21012,0.02475
2117.17987,0.02524
2116.14961,0.02557
2115.11935,0.02571
2114.08909,0.02585
2113.05884,0.02582
2112.02858,0.02553
2110.99832,0.02502
2109.96806,0.02473
2108.93780,0.02468
2107.90755,0.02392
2106.87729,0.02317
2105.84703,0.02391
2104.81677,0.02469
2103.78651,0.02447
2102.75626,0.02471
2101.72600,0.02563
2100.69574,0.02630
2099.66548,0.02601
2098.63523,0.02425
2097.60497,0.02246
2096.57471,0.02259
2095.54445,0.02360
2094.51419,0.02375
2093.48394,0.02377
2092.45368,0.02473
2091.42342,0.02567
2090.39316,0.02557
2089.36290,0.02490
2088.33265,0.02413
2087.30239,0.02342
2086.27213,0.02313
2085.24187,0.02332
2084.21162,0.02357
2083.18136,0.02341
2082.15110,0.02277
2081.12084,0.02242
2080.09058,0.02294
2079.06033,0.02312
2078.03007,0.02226
2076.99981,0.02187
2075.96955,0.02272
2074.93930,0.02342
2073.90904,0.02335
2072.87878,0.02335
2071.84852,0.02297
2070.81826,0.02238
2069.78801,0.02326
2068.75775,0.02431
2067.72749,0.02321
2066.69723,0.02159
2065.66697,0.02156
2064.63672,0.02165
2063.60646,0.02063
2062.57620,0.01985
2061.54594,0.02045
2060.51569,0.02141
2059.48543,0.02138
2058.45517,0.02097
2057.42491,0.02149
2056.39465,0.02290
2055.36440,0.02357
2054.33414,0.02312
2053.30388,0.02308
2052.27362,0.02332
2051.24336,0.02260
2050.21311,0.02132
2049.18285,0.02082
2048.15259,0.02145
2047.12233,0.02270
2046.09208,0.02350
2045.06182,0.02376
2044.03156,0.02417
2043.00130,0.02379
2041.97104,0.02224
2040.94079,0.02089
2039.91053,0.01994
2038.88027,0.01897
2037.85001,0.01849
2036.81975,0.01905
2035.78950,0.01997
2034.75924,0.01965
2033.72898,0.01802
2032.69872,0.01683
2031.66847,0.01779
2030.63821,0.02065
2029.60795,0.02226
2028.57769,0.02150
2027.54743,0.02127
2026.51718,0.02194
2025.48692,0.02187
2024.45666,0.02128
2023.42640,0.02051
2022.39615,0.01945
2021.36589,0.01927
2020.33563,0.01995
2019.30537,0.01951
2018.27511,0.01911
2017.24486,0.01949
2016.21460,0.01821
2015.18434,0.01689
2014.15408,0.01740
2013.12382,0.01705
2012.09357,0.01563
2011.06331,0.01618
2010.03305,0.01837
2009.00279,0.01943
2007.97254,0.01973
2006.94228,0.01986
2005.91202,0.01873
2004.88176,0.01834
2003.85150,0.01941
2002.82125,0.01995
2001.79099,0.01944
2000.76073,0.01791
1999.73047,0.01695
1998.70021,0.01753
1997.66996,0.01740
1996.63970,0.01560
1995.60944,0.01427
1994.57918,0.01511
1993.54893,0.01658
1992.51867,0.01715
1991.48841,0.01885
1990.45815,0.02182
1989.42789,0.02220
1988.39764,0.01942
1987.36738,0.01746
1986.33712,0.01767
1985.30686,0.01788
1984.27660,0.01691
1983.24635,0.01495
1982.21609,0.01265
1981.18583,0.01206
1980.15557,0.01409
1979.12532,0.01512
1978.09506,0.01407
1977.06480,0.01377
1976.03454,0.01411
1975.00428,0.01535
1973.97403,0.01694
1972.94377,0.01668
1971.91351,0.01513
1970.88325,0.01417
1969.85300,0.01506
1968.82274,0.01671
1967.79248,0.01722
1966.76222,0.01657
1965.73196,0.01588
1964.70171,0.01583
1963.67145,0.01649
1962.64119,0.01701
1961.61093,0.01681
1960.58067,0.01644
1959.55042,0.01566
1958.52016,0.01496
1957.48990,0.01542
1956.45964,0.01566
1955.42939,0.01560
1954.39913,0.01610
1953.36887,0.01540
1952.33861,0.01392
1951.30835,0.01398
1950.27810,0.01493
1949.24784,0.01514
1948.21758,0.01406
1947.18732,0.01250
1946.15706,0.01198
1945.12681,0.01284
1944.09655,0.01379
1943.06629,0.01441
1942.03603,0.01468
1941.00578,0.01365
1939.97552,0.01261
1938.94526,0.01305
1937.91500,0.01414
1936.88474,0.01461
1935.85449,0.01428
1934.82423,0.01384
1933.79397,0.01353
1932.76371,0.01345
1931.73345,0.01373
1930.70320,0.01418
1929.67294,0.01473
1928.64268,0.01512
1927.61242,0.01522
1926.58217,0.01529
1925.55191,0.01540
1924.52165,0.01518
1923.49139,0.01423
1922.46113,0.01325
1921.43088,0.01315
1920.40062,0.01372
1919.37036,0.01401
1918.34010,0.01419
1917.30985,0.01459
1916.27959,0.01451
1915.24933,0.01452
1914.21907,0.01494
1913.18881,0.01456
1912.15856,0.01337
1911.12830,0.01304
1910.09804,0.01371
1909.06778,0.01411
1908.03752,0.01385
1907.00727,0.01380
1905.97701,0.01421
1904.94675,0.01432
1903.91649,0.01396
1902.88624,0.01342
1901.85598,0.01313
1900.82572,0.01357
1899.79546,0.01418
1898.76520,0.01423
1897.73495,0.01421
1896.70469,0.01416
1895.67443,0.01405
1894.64417,0.01462
1893.61391,0.01546
1892.58366,0.01561
1891.55340,0.01533
1890.52314,0.01518
1889.49288,0.01531
1888.46263,0.01578
1887.43237,0.01596
1886.40211,0.01584
1885.37185,0.01571
1884.34159,0.01541
1883.31134,0.01518
1882.28108,0.01512
1881.25082,0.01496
1880.22056,0.01470
1879.19030,0.01495
1878.16005,0.01557
1877.12979,0.01579
1876.09953,0.01590
1875.06927,0.01620
1874.03902,0.01631
1873.00876,0.01607
1871.97850,0.01578
1870.94824,0.01581
1869.91798,0.01580
1868.88773,0.01523
1867.85747,0.01483
1866.82721,0.01456
1865.79695,0.01401
1864.76670,0.01392
1863.73644,0.01462
1862.70618,0.01527
1861.67592,0.01511
1860.64566,0.01455
1859.61541,0.01430
1858.58515,0.01452
1857.55489,0.01474
1856.52463,0.01460
1855.49437,0.01451
1854.46412,0.01470
1853.43386,0.01466
1852.40360,0.01424
1851.37334,0.01407
1850.34309,0.01418
1849.31283,0.01426
1848.28257,0.01483
1847.25231,0.01548
1846.22205,0.01554
1845.19180,0.01552
1844.16154,0.01546
1843.13128,0.01510
1842.10102,0.01492
1841.07076,0.01518
1840.04051,0.01568
1839.01025,0.01608
1837.97999,0.01606
1836.94973,0.01593
1835.91948,0.01581
1834.88922,0.01551
1833.85896,0.01549
1832.82870,0.01571
1831.79844,0.01556
1830.76819,0.01509
1829.73793,0.01488
1828.70767,0.01533
1827.67741,0.01595
1826.64715,0.01640
1825.61690,0.01672
1824.58664,0.01664
1823.55638,0.01635
1822.52612,0.01633
1821.49587,0.01636
1820.46561,0.01633
1819.43535,0.01653
1818.40509,0.01693
1817.37483,0.01713
1816.34458,0.01706
1815.31432,0.01702
1814.28406,0.01720
1813.25380,0.01744
1812.22355,0.01759
1811.19329,0.01771
1810.16303,0.01773
1809.13277,0.01763
1808.10251,0.01756
1807.07226,0.01770
1806.04200,0.01787
1805.01174,0.01792
1803.98148,0.01793
1802.95122,0.01803
1801.92097,0.01821
1800.89071,0.01833
1799.86045,0.01839
1798.83019,0.01843
1797.79994,0.01861
1796.76968,0.01899
1795.73942,0.01930
1794.70916,0.01942
1793.67890,0.01951
1792.64865,0.01956
1791.61839,0.01977
1790.58813,0.02023
1789.55787,0.02026
1788.52761,0.01978
1787.49736,0.01944
1786.46710,0.01937
1785.43684,0.01935
1784.40658,0.01955
1783.37633,0.01992
1782.34607,0.02033
1781.31581,0.02074
1780.28555,0.02094
1779.25529,0.02092
1778.22504,0.02091
1777.19478,0.02094
1776.16452,0.02120
1775.13426,0.02157
1774.10400,0.02153
1773.07375,0.02117
1772.04349,0.02093
1771.01323,0.02113
1769.98297,0.02167
1768.95272,0.02237
1767.92246,0.02291
1766.89220,0.02299
1765.86194,0.02297
1764.83168,0.02311
1763.80143,0.02338
1762.77117,0.02366
1761.74091,0.02387
1760.71065,0.02423
1759.68040,0.02473
1758.65014,0.02516
1757.61988,0.02543
1756.58962,0.02570
1755.55936,0.02596
1754.52911,0.02598
1753.49885,0.02603
1752.46859,0.02645
1751.43833,0.02712
1750.40807,0.02779
1749.37782,0.02821
1748.34756,0.02834
1747.31730,0.02863
1746.28704,0.02930
1745.25679,0.02983
1744.22653,0.03005
1743.19627,0.03026
1742.16601,0.03070
1741.13575,0.03133
1740.10550,0.03196
1739.07524,0.03236
1738.04498,0.03267
1737.01472,0.03316
1735.98446,0.03360
1734.95421,0.03376
1733.92395,0.03410
1732.89369,0.03484
1731.86343,0.03545
1730.83318,0.03595
1729.80292,0.03661
1728.77266,0.03743
1727.74240,0.03825
1726.71214,0.03910
1725.68189,0.03996
1724.65163,0.04082
1723.62137,0.04164
1722.59111,0.04234
1721.56085,0.04307
1720.53060,0.04384
1719.50034,0.04454
1718.47008,0.04528
1717.43982,0.04612
1716.40957,0.04678
1715.37931,0.04769
1714.34905,0.04899
1713.31879,0.05009
1712.28853,0.05105
1711.25828,0.05219
1710.22802,0.05364
1709.19776,0.05522
1708.16750,0.05638
1707.13725,0.05712
1706.10699,0.05811
1705.07673,0.05961
1704.04647,0.06102
1703.01621,0.06204
1701.98596,0.06292
1700.95570,0.06384
1699.92544,0.06582
1698.89518,0.06816
1697.86492,0.06981
1696.83467,0.07144
1695.80441,0.07358
1694.77415,0.07546
1693.74389,0.07684
1692.71364,0.07836
1691.68338,0.07991
1690.65312,0.08141
1689.62286,0.08298
1688.59260,0.08476
1687.56235,0.08676
1686.53209,0.08870
1685.50183,0.09071
1684.47157,0.09336
1683.44131,0.09545
1682.41106,0.09678
1681.38080,0.09850
1680.35054,0.10056
1679.32028,0.10265
1678.29003,0.10471
1677.25977,0.10675
1676.22951,0.10861
1675.19925,0.11078
1674.16899,0.11309
1673.13874,0.11499
1672.10848,0.11685
1671.07822,0.11878
1670.04796,0.12081
1669.01771,0.12315
1667.98745,0.12523
1666.95719,0.12684
1665.92693,0.12866
1664.89667,0.13087
1663.86642,0.13309
1662.83616,0.13532
1661.80590,0.13788
1660.77564,0.14032
1659.74538,0.14220
1658.71513,0.14376
1657.68487,0.14550
1656.65461,0.14750
1655.62435,0.14956
1654.59410,0.15160
1653.56384,0.15327
1652.53358,0.15496
1651.50332,0.15722
1650.47306,0.15921
1649.44281,0.16067
1648.41255,0.16185
1647.38229,0.16343
1646.35203,0.16543
1645.32177,0.16664
1644.29152,0.16725
1643.26126,0.16808
1642.23100,0.16915
1641.20074,0.17010
1640.17049,0.17090
1639.14023,0.17160
1638.10997,0.17205
1637.07971,0.17255
1636.04945,0.17286
1635.01920,0.17204
1633.98894,0.17131
1632.95868,0.17121
1631.92842,0.17073
1630.89816,0.16979
1629.86791,0.16892
1628.83765,0.16803
1627.80739,0.16648
1626.77713,0.16472
1625.74688,0.16332
1624.71662,0.16175
1623.68636,0.15938
1622.65610,0.15680
1621.62584,0.15509
1620.59559,0.15344
1619.56533,0.15139
1618.53507,0.14949
1617.50481,0.14737
1616.47456,0.14350
1615.44430,0.14025
1614.41404,0.13852
1613.38378,0.13670
1612.35352,0.13452
1611.32327,0.13207
1610.29301,0.12953
1609.26275,0.12702
1608.23249,0.12466
1607.20223,0.12230
1606.17198,0.11994
1605.14172,0.11781
1604.11146,0.11580
1603.08120,0.11369
1602.05095,0.11156
1601.02069,0.10939
1599.99043,0.10722
1598.96017,0.10532
1597.92991,0.10374
1596.89966,0.10224
1595.86940,0.10063
1594.83914,0.09913
1593.80888,0.09784
1592.77862,0.09647
1591.74837,0.09471
1590.71811,0.09295
1589.68785,0.09160
1588.65759,0.09036
1587.62734,0.08890
1586.59708,0.08749
1585.56682,0.08638
1584.53656,0.08541
1583.50630,0.08439
1582.47605,0.08335
1581.44579,0.08246
1580.41553,0.08155
1579.38527,0.08060
1578.35501,0.07977
1577.32476,0.07882
1576.29450,0.07704
1575.26424,0.07541
1574.23398,0.07494
1573.20373,0.07473
1572.17347,0.07430
1571.14321,0.07362
1570.11295,0.07280
1569.08269,0.07189
1568.05244,0.07124
1567.02218,0.07072
1565.99192,0.07013
1564.96166,0.06951
1563.93141,0.06890
1562.90115,0.06828
1561.87089,0.06780
1560.84063,0.06754
1559.81037,0.06723
1558.78012,0.06617
1557.74986,0.06474
1556.71960,0.06413
1555.68934,0.06408
1554.65908,0.06394
1553.62883,0.06341
1552.59857,0.06297
1551.56831,0.06263
1550.53805,0.06228
1549.50780,0.06208
1548.47754,0.06184
1547.44728,0.06138
1546.41702,0.06107
1545.38676,0.06077
1544.35651,0.05994
1543.32625,0.05930
1542.29599,0.05941
1541.26573,0.05959
1540.23547,0.05917
1539.20522,0.05873
1538.17496,0.05863
1537.14470,0.05848
1536.11444,0.05824
1535.08419,0.05786
1534.05393,0.05723
1533.02367,0.05676
1531.99341,0.05674
1530.96315,0.05672
1529.93290,0.05661
1528.90264,0.05639
1527.87238,0.05595
1526.84212,0.05566
1525.81186,0.05555
1524.78161,0.05524
1523.75135,0.05487
1522.72109,0.05447
1521.69083,0.05399
1520.66058,0.05387
1519.63032,0.05421
1518.60006,0.05451
1517.56980,0.05437
1516.53954,0.05393
1515.50929,0.05383
1514.47903,0.05395
1513.44877,0.05399
1512.41851,0.05382
1511.38826,0.05355
1510.35800,0.05323
1509.32774,0.05295
1508.29748,0.05280
1507.26722,0.05225
1506.23697,0.05137
1505.20671,0.05156
1504.17645,0.05205
1503.14619,0.05211
1502.11593,0.05190
1501.08568,0.05193
1500.05542,0.05219
1499.02516,0.05225
1497.99490,0.05219
1496.96465,0.05235
1495.93439,0.05234
1494.90413,0.05196
1493.87387,0.05156
1492.84361,0.05136
1491.81336,0.05153
1490.78310,0.05186
1489.75284,0.05194
1488.72258,0.05187
1487.69232,0.05213
1486.66207,0.05283
1485.63181,0.05380
1484.60155,0.05519
1483.57129,0.05696
1482.54104,0.05839
1481.51078,0.05879
1480.48052,0.05817
1479.45026,0.05698
1478.42000,0.05572
1477.38975,0.05468
1476.35949,0.05384
1475.32923,0.05331
1474.29897,0.05322
1473.26871,0.05363
1472.23846,0.05422
1471.20820,0.05456
1470.17794,0.05488
1469.14768,0.05533
1468.11743,0.05591
1467.08717,0.05648
1466.05691,0.05686
1465.02665,0.05701
1463.99639,0.05686
1462.96614,0.05637
1461.93588,0.05582
1460.90562,0.05534
1459.87536,0.05469
1458.84511,0.05389
1457.81485,0.05317
1456.78459,0.05262
1455.75433,0.05259
1454.72407,0.05270
1453.69382,0.05247
1452.66356,0.05209
1451.63330,0.05196
1450.60304,0.05195
1449.57278,0.05183
1448.54253,0.05179
1447.51227,0.05177
1446.48201,0.05158
1445.45175,0.05127
1444.42150,0.05094
1443.39124,0.05083
1442.36098,0.05094
1441.33072,0.05093
1440.30046,0.05077
1439.27021,0.05070
1438.23995,0.05079
1437.20969,0.05062
1436.17943,0.05000
1435.14917,0.04969
1434.11892,0.04966
1433.08866,0.04953
1432.05840,0.04935
1431.02814,0.04924
1429.99789,0.04893
1428.96763,0.04844
1427.93737,0.04817
1426.90711,0.04813
1425.87685,0.04821
1424.84660,0.04838
1423.81634,0.04845
1422.78608,0.04839
1421.75582,0.04827
1420.72556,0.04807
1419.69531,0.04768
1418.66505,0.04739
1417.63479,0.04757
1416.60453,0.04779
1415.57428,0.04786
1414.54402,0.04783
1413.51376,0.04781
1412.48350,0.04796
1411.45324,0.04810
1410.42299,0.04805
1409.39273,0.04803
1408.36247,0.04824
1407.33221,0.04863
1406.30196,0.04901
1405.27170,0.04930
1404.24144,0.04937
1403.21118,0.04910
1402.18092,0.04887
1401.15067,0.04895
1400.12041,0.04906
1399.09015,0.04889
1398.05989,0.04850
1397.02963,0.04817
1395.99938,0.04793
1394.96912,0.04760
1393.93886,0.04707
1392.90860,0.04677
1391.87835,0.04684
1390.84809,0.04696
1389.81783,0.04699
1388.78757,0.04706
1387.75731,0.04713
1386.72706,0.04715
1385.69680,0.04706
1384.66654,0.04683
1383.63628,0.04665
1382.60602,0.04665
1381.57577,0.04664
1380.54551,0.04660
1379.51525,0.04672
1378.48499,0.04698
1377.45474,0.04710
1376.42448,0.04700
1375.39422,0.04702
1374.36396,0.04719
1373.33370,0.04712
1372.30345,0.04692
1371.27319,0.04684
1370.24293,0.04679
1369.21267,0.04682
1368.18241,0.04697
1367.15216,0.04699
1366.12190,0.04687
1365.09164,0.04672
1364.06138,0.04655
1363.03113,0.04658
1362.00087,0.04673
1360.97061,0.04685
1359.94035,0.04702
1358.91009,0.04705
1357.87984,0.04691
1356.84958,0.04692
1355.81932,0.04703
1354.78906,0.04700
1353.75881,0.04697
1352.72855,0.04689
1351.69829,0.04678
1350.66803,0.04691
1349.63777,0.04708
1348.60752,0.04700
1347.57726,0.04687
1346.54700,0.04686
1345.51674,0.04687
1344.48648,0.04679
1343.45623,0.04662
1342.42597,0.04642
1341.39571,0.04634
1340.36545,0.04643
1339.33520,0.04656
1338.30494,0.04665
1337.27468,0.04661
1336.24442,0.04656
1335.21416,0.04676
1334.18391,0.04710
1333.15365,0.04724
1332.12339,0.04717
1331.09313,0.04700
1330.06287,0.04663
1329.03262,0.04628
1328.00236,0.04625
1326.97210,0.04635
1325.94184,0.04650
1324.91159,0.04680
1323.88133,0.04703
1322.85107,0.04690
1321.82081,0.04668
1320.79055,0.04668
1319.76030,0.04667
1318.73004,0.04662
1317.69978,0.04674
1316.66952,0.04698
1315.63927,0.04713
1314.60901,0.04702
1313.57875,0.04683
1312.54849,0.04681
1311.51823,0.04678
1310.48798,0.04678
1309.45772,0.04695
1308.42746,0.04704
1307.39720,0.04690
1306.36694,0.04671
1305.33669,0.04663
1304.30643,0.04668
1303.27617,0.04681
1302.24591,0.04675
1301.21566,0.04644
1300.18540,0.04630
1299.15514,0.04643
1298.12488,0.04656
1297.09462,0.04663
1296.06437,0.04665
1295.03411,0.04667
1294.00385,0.04672
1292.97359,0.04674
1291.94333,0.04663
1290.91308,0.04648
1289.88282,0.04645
1288.85256,0.04657
1287.82230,0.04670
1286.79205,0.04671
1285.76179,0.04655
1284.73153,0.04640
1283.70127,0.04658
1282.67101,0.04687
1281.64076,0.04682
1280.61050,0.04658
1279.58024,0.04653
1278.54998,0.04658
1277.51972,0.04651
1276.48947,0.04650
1275.45921,0.04650
1274.42895,0.04651
1273.39869,0.04673
1272.36844,0.04694
1271.33818,0.04693
1270.30792,0.04682
1269.27766,0.04667
1268.24740,0.04646
1267.21715,0.04620
1266.18689,0.04615
1265.15663,0.04644
1264.12637,0.04686
1263.09612,0.04696
1262.06586,0.04662
1261.03560,0.04626
1260.00534,0.04630
1258.97508,0.04646
1257.94483,0.04642
1256.91457,0.04644
1255.88431,0.04669
1254.85405,0.04691
1253.82379,0.04699
1252.79354,0.04710
1251.76328,0.04732
1250.73302,0.04763
1249.70276,0.04803
1248.67251,0.04835
1247.64225,0.04854
1246.61199,0.04884
1245.58173,0.04929
1244.55147,0.04979
1243.52122,0.05023
1242.49096,0.05060
1241.46070,0.05093
1240.43044,0.05127
1239.40018,0.05155
1238.36993,0.05157
1237.33967,0.05132
1236.30941,0.05086
1235.27915,0.05029
1234.24890,0.04973
1233.21864,0.04933
1232.18838,0.04909
1231.15812,0.04874
1230.12786,0.04824
1229.09761,0.04773
1228.06735,0.04746
1227.03709,0.04750
1226.00683,0.04753
1224.97657,0.04744
1223.94632,0.04730
1222.91606,0.04712
1221.88580,0.04695
1220.85554,0.04680
1219.82529,0.04668
1218.79503,0.04675
1217.76477,0.04701
1216.73451,0.04717
1215.70425,0.04725
1214.67400,0.04728
1213.64374,0.04717
1212.61348,0.04708
1211.58322,0.04712
1210.55297,0.04710
1209.52271,0.04720
1208.49245,0.04735
1207.46219,0.04715
1206.43193,0.04676
1205.40168,0.04652
1204.37142,0.04653
1203.34116,0.04652
1202.31090,0.04641
1201.28064,0.04642
1200.25039,0.04647
1199.22013,0.04653
1198.18987,0.04671
1197.15961,0.04675
1196.12936,0.04662
1195.09910,0.04674
1194.06884,0.04708
1193.03858,0.04722
1192.00832,0.04713
1190.97807,0.04683
1189.94781,0.04651
1188.91755,0.04645
1187.88729,0.04649
1186.85703,0.04653
1185.82678,0.04667
1184.79652,0.04684
1183.76626,0.04698
1182.73600,0.04691
1181.70575,0.04677
1180.67549,0.04680
1179.64523,0.04679
1178.61497,0.04671
1177.58471,0.04666
1176.55446,0.04645
1175.52420,0.04622
1174.49394,0.04628
1173.46368,0.04642
1172.43342,0.04638
1171.40317,0.04636
1170.37291,0.04646
1169.34265,0.04657
1168.31239,0.04656
1167.28214,0.04635
1166.25188,0.04630
1165.22162,0.04647
1164.19136,0.04647
1163.16110,0.04631
1162.13085,0.04631
1161.10059,0.04646
1160.07033,0.04654
1159.04007,0.04654
1158.00982,0.04642
1156.97956,0.04621
1155.94930,0.04632
1154.91904,0.04664
1153.88878,0.04676
1152.85853,0.04670
1151.82827,0.04653
1150.79801,0.04630
1149.76775,0.04624
1148.73749,0.04626
1147.70724,0.04637
1146.67698,0.04674
1145.64672,0.04714
1144.61646,0.04717
1143.58621,0.04685
1142.55595,0.04641
1141.52569,0.04602
1140.49543,0.04597
1139.46517,0.04633
1138.43492,0.04657
1137.40466,0.04650
1136.37440,0.04650
1135.34414,0.04663
1134.31388,0.04679
1133.28363,0.04673
1132.25337,0.04635
1131.22311,0.04630
1130.19285,0.04657
1129.16260,0.04652
1128.13234,0.04639
1127.10208,0.04667
1126.07182,0.04712
1125.04156,0.04750
1124.01131,0.04770
1122.98105,0.04757
1121.95079,0.04741
1120.92053,0.04756
1119.89027,0.04769
1118.86002,0.04760
1117.82976,0.04745
1116.79950,0.04736
1115.76924,0.04738
1114.73899,0.04730
1113.70873,0.04721
1112.67847,0.04736
1111.64821,0.04756
1110.61795,0.04767
1109.58770,0.04761
1108.55744,0.04772
1107.52718,0.04814
1106.49692,0.04834
1105.46667,0.04812
1104.43641,0.04792
1103.40615,0.04804
1102.37589,0.04824
1101.34563,0.04838
1100.31538,0.04870
1099.28512,0.04885
1098.25486,0.04854
1097.22460,0.04843
1096.19434,0.04884
1095.16409,0.04921
1094.13383,0.04925
1093.10357,0.04914
1092.07331,0.04902
1091.04306,0.04872
1090.01280,0.04870
1088.98254,0.04922
1087.95228,0.04949
1086.92202,0.04935
1085.89177,0.04930
1084.86151,0.04943
1083.83125,0.04970
1082.80099,0.04994
1081.77073,0.04994
1080.74048,0.04960
1079.71022,0.04932
1078.67996,0.04943
1077.64970,0.04974
1076.61945,0.05020
1075.58919,0.05048
1074.55893,0.05039
1073.52867,0.05039
1072.49841,0.05060
1071.46816,0.05068
1070.43790,0.05041
1069.40764,0.05002
1068.37738,0.04996
1067.34712,0.05014
1066.31687,0.05019
1065.28661,0.05018
1064.25635,0.05015
1063.22609,0.04994
1062.19584,0.04975
1061.16558,0.04960
1060.13532,0.04932
1059.10506,0.04932
1058.07480,0.04977
1057.04455,0.05010
1056.01429,0.05012
1054.98403,0.05013
1053.95377,0.05028
1052.92352,0.05043
1051.89326,0.05036
1050.86300,0.05020
1049.83274,0.05027
1048.80248,0.05043
1047.77223,0.05044
1046.74197,0.05031
1045.71171,0.05022
1044.68145,0.05021
1043.65119,0.05023
1042.62094,0.05040
1041.59068,0.05051
1040.56042,0.05045
1039.53016,0.05040
1038.49991,0.05044
1037.46965,0.05064
1036.43939,0.05074
1035.40913,0.05059
1034.37887,0.05056
1033.34862,0.05083
1032.31836,0.05104
1031.28810,0.05095
1030.25784,0.05079
1029.22758,0.05103
1028.19733,0.05157
1027.16707,0.05186
1026.13681,0.05187
1025.10655,0.05185
1024.07630,0.05185
1023.04604,0.05190
1022.01578,0.05197
1020.98552,0.05200
1019.95526,0.05205
1018.92501,0.05232
1017.89475,0.05277
1016.86449,0.05308
1015.83423,0.05317
1014.80397,0.05337
1013.77372,0.05352
1012.74346,0.05338
1011.71320,0.05310
1010.68294,0.05296
1009.65269,0.05330
1008.62243,0.05392
1007.59217,0.05431
1006.56191,0.05429
1005.53165,0.05413
1004.50140,0.05421
1003.47114,0.05455
1002.44088,0.05513
1001.41062,0.05556
1000.38037,0.05553
999.35011,0.05543
998.31985,0.05556
997.28959,0.05578
996.25933,0.05604
995.22908,0.05645
994.19882,0.05681
993.16856,0.05695
992.13830,0.05705
991.10804,0.05723
990.07779,0.05762
989.04753,0.05835
988.01727,0.05898
986.98701,0.05921
985.95676,0.05932
984.92650,0.05956
983.89624,0.05978
982.86598,0.05968
981.83572,0.05952
980.80547,0.05961
979.77521,0.05959
978.74495,0.05950
977.71469,0.05990
976.68443,0.06062
975.65418,0.06105
974.62392,0.06135
973.59366,0.06190
972.56340,0.06243
971.53315,0.06268
970.50289,0.06295
969.47263,0.06315
968.44237,0.06302
967.41211,0.06309
966.38186,0.06372
965.35160,0.06462
964.32134,0.06535
963.29108,0.06586
962.26082,0.06641
961.23057,0.06729
960.20031,0.06847
959.17005,0.06967
958.13979,0.07091
957.10954,0.07237
956.07928,0.07404
955.04902,0.07575
954.01876,0.07723
952.98850,0.07844
951.95825,0.07938
950.92799,0.07979
949.89773,0.07975
948.86747,0.07985
947.83722,0.08021
946.80696,0.08015
945.77670,0.07932
944.74644,0.07845
943.71618,0.07808
942.68593,0.07796
941.65567,0.07775
940.62541,0.07732
939.59515,0.07709
938.56489,0.07719
937.53464,0.07740
936.50438,0.07777
935.47412,0.07819
934.44386,0.07850
933.41361,0.07877
932.38335,0.07895
931.35309,0.07905
930.32283,0.07931
929.29257,0.07976
928.26232,0.08019
927.23206,0.08076
926.20180,0.08157
925.17154,0.08223
924.14128,0.08268
923.11103,0.08324
922.08077,0.08389
921.05051,0.08421
920.02025,0.08450
918.99000,0.08526
917.95974,0.08600
916.92948,0.08642
915.89922,0.08674
914.86896,0.08715
913.83871,0.08804
912.80845,0.08937
911.77819,0.09049
910.74793,0.09094
909.71768,0.09115
908.68742,0.09163
907.65716,0.09238
906.62690,0.09344
905.59664,0.09484
904.56639,0.09631
903.53613,0.09758
902.50587,0.09830
901.47561,0.09845
900.44535,0.09872
899.41510,0.09940
898.38484,0.10018
897.35458,0.10105
896.32432,0.10212
895.29407,0.10310
894.26381,0.10383
893.23355,0.10449
892.20329,0.10521
891.17303,0.10606
890.14278,0.10718
889.11252,0.10851
888.08226,0.10972
887.05200,0.11067
886.02174,0.11137
884.99149,0.11191
883.96123,0.11258
882.93097,0.11340
881.90071,0.11418
880.87046,0.11501
879.84020,0.11591
878.80994,0.11665
877.77968,0.11762
876.74942,0.11945
875.71917,0.12149
874.68891,0.12263
873.65865,0.12313
872.62839,0.12388
871.59813,0.12467
870.56788,0.12542
869.53762,0.12675
868.50736,0.12845
867.47710,0.12978
866.44685,0.13057
865.41659,0.13100
864.38633,0.13177
863.35607,0.13325
862.32581,0.13452
861.29556,0.13548
860.26530,0.13671
859.23504,0.13780
858.20478,0.13874
857.17453,0.14005
856.14427,0.14160
855.11401,0.14286
854.08375,0.14411
853.05349,0.14538
852.02324,0.14619
850.99298,0.14702
849.96272,0.14826
848.93246,0.14968
847.90220,0.15117
846.87195,0.15217
845.84169,0.15254
844.81143,0.15354
843.78117,0.15526
842.75092,0.15662
841.72066,0.15791
840.69040,0.15933
839.66014,0.16042
838.62988,0.16124
837.59963,0.16217
836.56937,0.16323
835.53911,0.16447
834.50885,0.16616
833.47859,0.16821
832.44834,0.16981
831.41808,0.17032
830.38782,0.17089
829.35756,0.17246
828.32731,0.17407
827.29705,0.17541
826.26679,0.17683
825.23653,0.17800
824.20627,0.17922
823.17602,0.18104
822.14576,0.18273
821.11550,0.18348
820.08524,0.18385
819.05498,0.18497
818.02473,0.18658
816.99447,0.18789
815.96421,0.18940
814.93395,0.19105
813.90370,0.19196
812.87344,0.19239
811.84318,0.19350
810.81292,0.19530
809.78266,0.19700
808.75241,0.19839
807.72215,0.19973
806.69189,0.20159
805.66163,0.20342
804.63138,0.20443
803.60112,0.20541
802.57086,0.20697
801.54060,0.20849
800.51034,0.20964
799.48009,0.21088
798.44983,0.21211
797.41957,0.21307
796.38931,0.21378
795.35905,0.21467
794.32880,0.21657
793.29854,0.21914
792.26828,0.22090
791.23802,0.22148
790.20777,0.22221
789.17751,0.22362
788.14725,0.22484
787.11699,0.22593
786.08673,0.22722
785.05648,0.22895
784.02622,0.23084
782.99596,0.23217
781.96570,0.23300
780.93544,0.23356
779.90519,0.23463
778.87493,0.23681
777.84467,0.23887
776.81441,0.24000
775.78416,0.24158
774.75390,0.24403
773.72364,0.24596
772.69338,0.24703
771.66312,0.24779
770.63287,0.24876
769.60261,0.24987
768.57235,0.25074
767.54209,0.25179
766.51183,0.25363
765.48158,0.25615
764.45132,0.25842
763.42106,0.25982
762.39080,0.26111
761.36055,0.26296
760.33029,0.26501
759.30003,0.26696
758.26977,0.26890
757.23951,0.27054
756.20926,0.27145
755.17900,0.27214
754.14874,0.27329
753.11848,0.27498
752.08823,0.27647
751.05797,0.27783
750.02771,0.27940
748.99745,0.28070
747.96719,0.28220
746.93694,0.28392
745.90668,0.28493
744.87642,0.28548
743.84616,0.28640
742.81590,0.28768
741.78565,0.28905
740.75539,0.29047
739.72513,0.29176
738.69487,0.29303
737.66462,0.29447
736.63436,0.29580
735.60410,0.29677
734.57384,0.29790
733.54358,0.29964
732.51333,0.30116
731.48307,0.30182
730.45281,0.30251
729.42255,0.30403
728.39229,0.30599
727.36204,0.30796
726.33178,0.30980
725.30152,0.31134
724.27126,0.31232
723.24101,0.31272
722.21075,0.31347
721.18049,0.31550
720.15023,0.31762
719.11997,0.31858
718.08972,0.31989
717.05946,0.32214
716.02920,0.32371
714.99894,0.32407
713.96868,0.32446
712.93843,0.32591
711.90817,0.32813
710.87791,0.33044
709.84765,0.33200
708.81740,0.33256
707.78714,0.33312
706.75688,0.33450
705.72662,0.33675
704.69636,0.33919
703.66611,0.34127
702.63585,0.34290
701.60559,0.34433
700.57533,0.34569
699.54508,0.34690
698.51482,0.34795
697.48456,0.34879
696.45430,0.34990
695.42404,0.35139
694.39379,0.35292
693.36353,0.35403
692.33327,0.35480
691.30301,0.35597
690.27275,0.35734
689.24250,0.35871
688.21224,0.36065
687.18198,0.36284
686.15172,0.36402
685.12147,0.36461
684.09121,0.36547
683.06095,0.36604
682.03069,0.36684
681.00043,0.36866
679.97018,0.37039
678.93992,0.37123
677.90966,0.37217
676.87940,0.37429
675.84914,0.37695
674.81889,0.37864
673.78863,0.37940
672.75837,0.38020
671.72811,0.38148
670.69786,0.38392
669.66760,0.38763
668.63734,0.39015
667.60708,0.38882
666.57682,0.38940
665.54657,0.39076
664.51631,0.39089
663.48605,0.39128
662.45579,0.39306
661.42553,0.39527
660.39528,0.39710
659.36502,0.39846
658.33476,0.39989
657.30450,0.40119
656.27425,0.40159
655.24399,0.40188
654.21373,0.40346
653.18347,0.40618
652.15321,0.40860
651.12296,0.40970
650.09270,0.40997
649.06244,0.41069
648.03218,0.41254
647.00193,0.41460
645.97167,0.41518
644.94141,0.41468
643.91115,0.41479
642.88089,0.41631
641.85064,0.41814
640.82038,0.41899
639.79012,0.42011
638.75986,0.42203
637.72960,0.42431
636.69935,0.42633
635.66909,0.42731
634.63883,0.42802
633.60857,0.42839
632.57832,0.42811
631.54806,0.42859
630.51780,0.43123
629.48754,0.43457
628.45728,0.43542
627.42703,0.43431
626.39677,0.43401
625.36651,0.43503
624.33625,0.43708
623.30599,0.43967
622.27574,0.44121
621.24548,0.44118
620.21522,0.44171
619.18496,0.44421
618.15471,0.44637
617.12445,0.44603
616.09419,0.44503
615.06393,0.44620
614.03367,0.44927
613.00342,0.45147
611.97316,0.45199
610.94290,0.45212
609.91264,0.45191
608.88238,0.45143
607.85213,0.45231
606.82187,0.45413
605.79161,0.45544
604.76135,0.45708
603.73110,0.45867
602.70084,0.45901
601.67058,0.45942
600.64032,0.46099
599.61006,0.46245
598.57981,0.46289
597.54955,0.46332
596.51929,0.46502
595.48903,0.46722
594.45878,0.46890
593.42852,0.47083
592.39826,0.47306
591.36800,0.47428
590.33774,0.47294
589.30749,0.47064
588.27723,0.47110
587.24697,0.47398
586.21671,0.47631
585.18645,0.47723
584.15620,0.47800
583.12594,0.48071
582.09568,0.48531
581.06542,0.48780
580.03517,0.48666
579.00491,0.48622
577.97465,0.48789
576.94439,0.48783
575.91413,0.48579
574.88388,0.48449
573.85362,0.48447
572.82336,0.48682
571.79310,0.49047
570.76284,0.49146
569.73259,0.49013
568.70233,0.48955
567.67207,0.49025
566.64181,0.49167
565.61156,0.49393
564.58130,0.49674
563.55104,0.49849
562.52078,0.49973
561.49052,0.50127
560.46027,0.50085
559.43001,0.49982
558.39975,0.50035
557.36949,0.50130
556.33924,0.50200
555.30898,0.50199
554.27872,0.50171
553.24846,0.50345
552.21820,0.50702
551.18795,0.51020
550.15769,0.51203
549.12743,0.51141
548.09717,0.50872
547.06691,0.50779
546.03666,0.50937
545.00640,0.50836
543.97614,0.50534
542.94588,0.50537
541.91563,0.50822
540.88537,0.51156
539.85511,0.51343
538.82485,0.51370
537.79459,0.51395
536.76434,0.51528
535.73408,0.51792
534.70382,0.51958
533.67356,0.51736
532.64330,0.51444
531.61305,0.51536
530.58279,0.51748
529.55253,0.51948
528.52227,0.52215
527.49202,0.52445
526.46176,0.52723
525.43150,0.52848
524.40124,0.52613
523.37098,0.52501
522.34073,0.52637
521.31047,0.52557
520.28021,0.52505
519.24995,0.52981
518.21969,0.53499
517.18944,0.53407
516.15918,0.53012
515.12892,0.52958
514.09866,0.53126
513.06841,0.53216
512.03815,0.53363
511.00789,0.53599
509.97763,0.53636
508.94737,0.53507
507.91712,0.53589
506.88686,0.53888
505.85660,0.54225
504.82634,0.54618
503.79609,0.55020
502.76583,0.55247
501.73557,0.55097
500.70531,0.54768
499.67505,0.54530
498.64480,0.54313
497.61454,0.54353
496.58428,0.54732
495.55402,0.55046
494.52376,0.55210
493.49351,0.55299
492.46325,0.55191
491.43299,0.54968
490.40273,0.54921
489.37248,0.54918
488.34222,0.54756
487.31196,0.54780
486.28170,0.55139
485.25144,0.55219
484.22119,0.54854
483.19093,0.54701
482.16067,0.54896
481.13041,0.55179
480.10015,0.55361
479.06990,0.55109
478.03964,0.54510
477.00938,0.54212
475.97912,0.54598
474.94887,0.55195
473.91861,0.55479
472.88835,0.55523
471.85809,0.55424
470.82783,0.55446
469.79758,0.55716
468.76732,0.56054
467.73706,0.56477
466.70680,0.56991
465.67654,0.57472
464.64629,0.57785
463.61603,0.57700
462.58577,0.57381
461.55551,0.57102
460.52526,0.56726
459.49500,0.56375
458.46474,0.56474
457.43448,0.56605
456.40422,0.56272
455.37397,0.56089
454.34371,0.56048
453.31345,0.56083
452.28319,0.56509
451.25294,0.57123
450.22268,0.57384
449.19242,0.56805
448.16216,0.56115
447.13190,0.56396
446.10165,0.56957
445.07139,0.56615
444.04113,0.55680
443.01087,0.55310
441.98061,0.55892
440.95036,0.56720
439.92010,0.57343
438.88984,0.57598
437.85958,0.57129
436.82933,0.56574
435.79907,0.56982
434.76881,0.57610
433.73855,0.57389
432.70829,0.56906
431.67804,0.56857
430.64778,0.56840
429.61752,0.56656
428.58726,0.56327
427.55700,0.56048
426.52675,0.56331
425.49649,0.57352
424.46623,0.58447
423.43597,0.58886
422.40572,0.58938
421.37546,0.58847
420.34520,0.58286
419.31494,0.57468
418.28468,0.57204
417.25443,0.57709
416.22417,0.58928
415.19391,0.59743
414.16365,0.58860
413.13339,0.57515
412.10314,0.56788
411.07288,0.56462
410.04262,0.56052
409.01236,0.55773
407.98211,0.56156
406.95185,0.57300
405.92159,0.57843
404.89133,0.56761
403.86107,0.55890
402.83082,0.56433
401.80056,0.57713
400.77030,0.58496
399.74004,0.58758
