4998.81105,0.00103
4997.78079,0.00138
4996.75054,0.00204
4995.72028,0.00219
4994.69002,0.00233
4993.65976,0.00271
4992.62951,0.00268
4991.59925,0.00254
4990.56899,0.00278
4989.53873,0.00269
4988.50847,0.00219
4987.47822,0.00177
4986.44796,0.00126
4985.41770,0.00090
4984.38744,0.00099
4983.35718,0.00221
4982.32693,0.00417
4981.29667,0.00470
4980.26641,0.00405
4979.23615,0.00360
4978.20590,0.00308
4977.17564,0.00272
4976.14538,0.00281
4975.11512,0.00296
4974.08486,0.00317
4973.05461,0.00285
4972.02435,0.00220
4970.99409,0.00226
4969.96383,0.00205
4968.93357,0.00131
4967.90332,0.00176
4966.87306,0.00310
4965.84280,0.00396
4964.81254,0.00357
4963.78229,0.00236
4962.75203,0.00216
4961.72177,0.00277
4960.69151,0.00262
4959.66125,0.00243
4958.63100,0.00319
4957.60074,0.00375
4956.57048,0.00357
4955.54022,0.00365
4954.50997,0.00378
4953.47971,0.00336
4952.44945,0.00316
4951.41919,0.00361
4950.38893,0.00383
4949.35868,0.00325
4948.32842,0.00268
4947.29816,0.00277
4946.26790,0.00321
4945.23764,0.00300
4944.20739,0.00220
4943.17713,0.00141
4942.14687,0.00038
4941.11661,0.00025
4940.08636,0.00178
4939.05610,0.00300
4938.02584,0.00315
4936.99558,0.00332
4935.96532,0.00348
4934.93507,0.00283
4933.90481,0.00190
4932.87455,0.00191
4931.84429,0.00203
4930.81403,0.00124
4929.78378,0.00067
4928.75352,0.00126
4927.72326,0.00246
4926.69300,0.00290
4925.66275,0.00250
4924.63249,0.00224
4923.60223,0.00218
4922.57197,0.00201
4921.54171,0.00203
4920.51146,0.00299
4919.48120,0.00411
4918.45094,0.00392
4917.42068,0.00286
4916.39042,0.00223
4915.36017,0.00265
4914.32991,0.00283
4913.29965,0.00179
4912.26939,0.00116
4911.23914,0.00164
4910.20888,0.00222
4909.17862,0.00276
4908.14836,0.00324
4907.11810,0.00313
4906.08785,0.00284
4905.05759,0.00357
4904.02733,0.00438
4902.99707,0.00333
4901.96682,0.00201
4900.93656,0.00215
4899.90630,0.00304
4898.87604,0.00403
4897.84578,0.00430
4896.81553,0.00383
4895.78527,0.00363
4894.75501,0.00415
4893.72475,0.00466
4892.69449,0.00397
4891.66424,0.00273
4890.63398,0.00266
4889.60372,0.00342
4888.57346,0.00374
4887.54321,0.00359
4886.51295,0.00378
4885.48269,0.00426
4884.45243,0.00448
4883.42217,0.00400
4882.39192,0.00321
4881.36166,0.00348
4880.33140,0.00353
4879.30114,0.00227
4878.27088,0.00187
4877.24063,0.00261
4876.21037,0.00264
4875.18011,0.00193
4874.14985,0.00155
4873.11960,0.00154
4872.08934,0.00150
4871.05908,0.00133
4870.02882,0.00147
4868.99856,0.00261
4867.96831,0.00398
4866.93805,0.00401
4865.90779,0.00314
4864.87753,0.00270
4863.84727,0.00293
4862.81702,0.00312
4861.78676,0.00263
4860.75650,0.00207
4859.72624,0.00156
4858.69599,0.00127
4857.66573,0.00178
4856.63547,0.00225
4855.60521,0.00181
4854.57495,0.00082
4853.54470,-0.00002
4852.51444,0.00003
4851.48418,0.00078
4850.45392,0.00122
4849.42367,0.00147
4848.39341,0.00196
4847.36315,0.00205
4846.33289,0.00187
4845.30263,0.00234
4844.27238,0.00295
4843.24212,0.00262
4842.21186,0.00205
4841.18160,0.00210
4840.15134,0.00231
4839.12109,0.00229
4838.09083,0.00182
4837.06057,0.00134
4836.03031,0.00181
4835.00006,0.00265
4833.96980,0.00249
4832.93954,0.00203
4831.90928,0.00217
4830.87902,0.00225
4829.84877,0.00240
4828.81851,0.00208
4827.78825,0.00112
4826.75799,0.00127
4825.72773,0.00182
4824.69748,0.00176
4823.66722,0.00227
4822.63696,0.00298
4821.60670,0.00287
4820.57645,0.00248
4819.54619,0.00222
4818.51593,0.00217
4817.48567,0.00280
4816.45541,0.00362
4815.42516,0.00363
4814.39490,0.00314
4813.36464,0.00290
4812.33438,0.00275
4811.30412,0.00244
4810.27387,0.00239
4809.24361,0.00282
4808.21335,0.00284
4807.18309,0.00209
4806.15284,0.00175
4805.12258,0.00218
4804.09232,0.00257
4803.06206,0.00277
4802.03180,0.00269
4801.00155,0.00283
4799.97129,0.00373
4798.94103,0.00451
4797.91077,0.00436
4796.88052,0.00330
4795.85026,0.00244
4794.82000,0.00239
4793.78974,0.00217
4792.75948,0.00162
4791.72923,0.00187
4790.69897,0.00317
4789.66871,0.00381
4788.63845,0.00296
4787.60819,0.00182
4786.57794,0.00120
4785.54768,0.00091
4784.51742,0.00107
4783.48716,0.00130
4782.45691,0.00110
4781.42665,0.00112
4780.39639,0.00138
4779.36613,0.00164
4778.33587,0.00189
4777.30562,0.00177
4776.27536,0.00174
4775.24510,0.00228
4774.21484,0.00275
4773.18458,0.00274
4772.15433,0.00270
4771.12407,0.00267
4770.09381,0.00235
4769.06355,0.00199
4768.03330,0.00219
4767.00304,0.00213
4765.97278,0.00118
4764.94252,0.00105
4763.91226,0.00206
4762.88201,0.00281
4761.85175,0.00316
4760.82149,0.00296
4759.79123,0.00215
4758.76098,0.00186
4757.73072,0.00271
4756.70046,0.00406
4755.67020,0.00469
4754.63994,0.00440
4753.60969,0.00411
4752.57943,0.00408
4751.54917,0.00436
4750.51891,0.00484
4749.48865,0.00458
4748.45840,0.00347
4747.42814,0.00248
4746.39788,0.00213
4745.36762,0.00212
4744.33737,0.00203
4743.30711,0.00165
4742.27685,0.00110
4741.24659,0.00101
4740.21633,0.00144
4739.18608,0.00185
4738.15582,0.00187
4737.12556,0.00176
4736.09530,0.00210
4735.06504,0.00245
4734.03479,0.00236
4733.00453,0.00230
4731.97427,0.00255
4730.94401,0.00244
4729.91376,0.00193
4728.88350,0.00186
4727.85324,0.00202
4726.82298,0.00191
4725.79272,0.00157
4724.76247,0.00098
4723.73221,0.00061
4722.70195,0.00088
4721.67169,0.00099
4720.64143,0.00125
4719.61118,0.00238
4718.58092,0.00319
4717.55066,0.00301
4716.52040,0.00259
4715.49015,0.00264
4714.45989,0.00318
4713.42963,0.00357
4712.39937,0.00337
4711.36911,0.00280
4710.33886,0.00271
4709.30860,0.00321
4708.27834,0.00316
4707.24808,0.00236
4706.21783,0.00143
4705.18757,0.00084
4704.15731,0.00111
4703.12705,0.00175
4702.09679,0.00182
4701.06654,0.00132
4700.03628,0.00087
4699.00602,0.00107
4697.97576,0.00197
4696.94550,0.00257
4695.91525,0.00239
4694.88499,0.00224
4693.85473,0.00233
4692.82447,0.00259
4691.79422,0.00287
4690.76396,0.00260
4689.73370,0.00206
4688.70344,0.00220
4687.67318,0.00285
4686.64293,0.00299
4685.61267,0.00246
4684.58241,0.00221
4683.55215,0.00237
4682.52189,0.00190
4681.49164,0.00109
4680.46138,0.00078
4679.43112,0.00081
4678.40086,0.00119
4677.37061,0.00229
4676.34035,0.00321
4675.31009,0.00314
4674.27983,0.00248
4673.24957,0.00222
4672.21932,0.00298
4671.18906,0.00356
4670.15880,0.00310
4669.12854,0.00231
4668.09828,0.00201
4667.06803,0.00256
4666.03777,0.00322
4665.00751,0.00317
4663.97725,0.00287
4662.94700,0.00295
4661.91674,0.00284
4660.88648,0.00230
4659.85622,0.00246
4658.82596,0.00293
4657.79571,0.00209
4656.76545,0.00076
4655.73519,0.00098
4654.70493,0.00201
4653.67468,0.00201
4652.64442,0.00181
4651.61416,0.00214
4650.58390,0.00216
4649.55364,0.00222
4648.52339,0.00271
4647.49313,0.00290
4646.46287,0.00252
4645.43261,0.00223
4644.40235,0.00228
4643.37210,0.00217
4642.34184,0.00202
4641.31158,0.00188
4640.28132,0.00124
4639.25107,0.00121
4638.22081,0.00255
4637.19055,0.00353
4636.16029,0.00296
4635.13003,0.00175
4634.09978,0.00140
4633.06952,0.00192
4632.03926,0.00217
4631.00900,0.00149
4629.97874,0.00093
4628.94849,0.00135
4627.91823,0.00189
4626.88797,0.00186
4625.85771,0.00167
4624.82746,0.00184
4623.79720,0.00255
4622.76694,0.00362
4621.73668,0.00362
4620.70642,0.00256
4619.67617,0.00222
4618.64591,0.00269
4617.61565,0.00335
4616.58539,0.00368
4615.55513,0.00307
4614.52488,0.00176
4613.49462,0.00080
4612.46436,0.00080
4611.43410,0.00134
4610.40385,0.00195
4609.37359,0.00216
4608.34333,0.00192
4607.31307,0.00190
4606.28281,0.00210
4605.25256,0.00210
4604.22230,0.00198
4603.19204,0.00209
4602.16178,0.00212
4601.13153,0.00208
4600.10127,0.00246
4599.07101,0.00273
4598.04075,0.00245
4597.01049,0.00222
4595.98024,0.00253
4594.94998,0.00282
4593.91972,0.00263
4592.88946,0.00253
4591.85920,0.00276
4590.82895,0.00282
4589.79869,0.00250
4588.76843,0.00219
4587.73817,0.00206
4586.70792,0.00209
4585.67766,0.00224
4584.64740,0.00193
4583.61714,0.00130
4582.58688,0.00100
4581.55663,0.00096
4580.52637,0.00132
4579.49611,0.00203
4578.46585,0.00250
4577.43559,0.00267
4576.40534,0.00288
4575.37508,0.00293
4574.34482,0.00219
4573.31456,0.00109
4572.28431,0.00049
4571.25405,0.00046
4570.22379,0.00086
4569.19353,0.00130
4568.16327,0.00149
4567.13302,0.00140
4566.10276,0.00124
4565.07250,0.00137
4564.04224,0.00159
4563.01198,0.00181
4561.98173,0.00233
4560.95147,0.00274
4559.92121,0.00218
4558.89095,0.00131
4557.86070,0.00124
4556.83044,0.00164
4555.80018,0.00218
4554.76992,0.00286
4553.73966,0.00292
4552.70941,0.00236
4551.67915,0.00215
4550.64889,0.00227
4549.61863,0.00235
4548.58838,0.00257
4547.55812,0.00284
4546.52786,0.00279
4545.49760,0.00240
4544.46734,0.00254
4543.43709,0.00350
4542.40683,0.00381
4541.37657,0.00303
4540.34631,0.00267
4539.31605,0.00325
4538.28580,0.00378
4537.25554,0.00337
4536.22528,0.00234
4535.19502,0.00189
4534.16477,0.00205
4533.13451,0.00230
4532.10425,0.00284
4531.07399,0.00317
4530.04373,0.00242
4529.01348,0.00127
4527.98322,0.00091
4526.95296,0.00123
4525.92270,0.00170
4524.89244,0.00227
4523.86219,0.00266
4522.83193,0.00261
4521.80167,0.00249
4520.77141,0.00254
4519.74116,0.00253
4518.71090,0.00231
4517.68064,0.00211
4516.65038,0.00227
4515.62012,0.00241
4514.58987,0.00217
4513.55961,0.00206
4512.52935,0.00243
4511.49909,0.00288
4510.46883,0.00278
4509.43858,0.00229
4508.40832,0.00208
4507.37806,0.00266
4506.34780,0.00349
4505.31755,0.00353
4504.28729,0.00274
4503.25703,0.00190
4502.22677,0.00193
4501.19651,0.00252
4500.16626,0.00242
4499.13600,0.00164
4498.10574,0.00115
4497.07548,0.00137
4496.04523,0.00189
4495.01497,0.00216
4493.98471,0.00214
4492.95445,0.00202
4491.92419,0.00213
4490.89394,0.00244
4489.86368,0.00252
4488.83342,0.00228
4487.80316,0.00206
4486.77290,0.00201
4485.74265,0.00187
4484.71239,0.00191
4483.68213,0.00234
4482.65187,0.00287
4481.62162,0.00321
4480.59136,0.00290
4479.56110,0.00226
4478.53084,0.00203
4477.50058,0.00246
4476.47033,0.00317
4475.44007,0.00327
4474.40981,0.00248
4473.37955,0.00139
4472.34929,0.00096
4471.31904,0.00183
4470.28878,0.00314
4469.25852,0.00338
4468.22826,0.00266
4467.19801,0.00241
4466.16775,0.00284
4465.13749,0.00292
4464.10723,0.00279
4463.07697,0.00296
4462.04672,0.00284
4461.01646,0.00238
4459.98620,0.00252
4458.95594,0.00288
4457.92568,0.00237
4456.89543,0.00124
4455.86517,0.00071
4454.83491,0.00158
4453.80465,0.00276
4452.77440,0.00322
4451.74414,0.00337
4450.71388,0.00344
4449.68362,0.00345
4448.65336,0.00326
4447.62311,0.00274
4446.59285,0.00224
4445.56259,0.00221
4444.53233,0.00265
4443.50208,0.00277
4442.47182,0.00200
4441.44156,0.00122
4440.41130,0.00138
4439.38104,0.00220
4438.35079,0.00261
4437.32053,0.00252
4436.29027,0.00249
4435.26001,0.00242
4434.22975,0.00220
4433.19950,0.00184
4432.16924,0.00172
4431.13898,0.00191
4430.10872,0.00187
4429.07847,0.00156
4428.04821,0.00165
4427.01795,0.00219
4425.98769,0.00279
4424.95743,0.00326
4423.92718,0.00318
4422.89692,0.00273
4421.86666,0.00260
4420.83640,0.00267
4419.80614,0.00276
4418.77589,0.00250
4417.74563,0.00212
4416.71537,0.00214
4415.68511,0.00241
4414.65486,0.00270
4413.62460,0.00266
4412.59434,0.00254
4411.56408,0.00296
4410.53382,0.00319
4409.50357,0.00286
4408.47331,0.00262
4407.44305,0.00263
4406.41279,0.00271
4405.38253,0.00278
4404.35228,0.00280
4403.32202,0.00291
4402.29176,0.00318
4401.26150,0.00360
4400.23125,0.00367
4399.20099,0.00298
4398.17073,0.00241
4397.14047,0.00275
4396.11021,0.00358
4395.07996,0.00406
4394.04970,0.00390
4393.01944,0.00339
4391.98918,0.00298
4390.95893,0.00278
4389.92867,0.00278
4388.89841,0.00278
4387.86815,0.00257
4386.83789,0.00236
4385.80764,0.00223
4384.77738,0.00237
4383.74712,0.00283
4382.71686,0.00284
4381.68660,0.00206
4380.65635,0.00149
4379.62609,0.00206
4378.59583,0.00283
4377.56557,0.00285
4376.53532,0.00276
4375.50506,0.00293
4374.47480,0.00324
4373.44454,0.00376
4372.41428,0.00360
4371.38403,0.00272
4370.35377,0.00246
4369.32351,0.00262
4368.29325,0.00267
4367.26299,0.00291
4366.23274,0.00313
4365.20248,0.00313
4364.17222,0.00334
4363.14196,0.00398
4362.11171,0.00419
4361.08145,0.00379
4360.05119,0.00352
4359.02093,0.00344
4357.99067,0.00372
4356.96042,0.00429
4355.93016,0.00450
4354.89990,0.00422
4353.86964,0.00363
4352.83939,0.00297
4351.80913,0.00280
4350.77887,0.00335
4349.74861,0.00398
4348.71835,0.00378
4347.68810,0.00268
4346.65784,0.00216
4345.62758,0.00268
4344.59732,0.00315
4343.56706,0.00357
4342.53681,0.00399
4341.50655,0.00353
4340.47629,0.00252
4339.44603,0.00215
4338.41578,0.00269
4337.38552,0.00341
4336.35526,0.00362
4335.32500,0.00365
4334.29474,0.00374
4333.26449,0.00352
4332.23423,0.00330
4331.20397,0.00326
4330.17371,0.00299
4329.14345,0.00282
4328.11320,0.00324
4327.08294,0.00358
4326.05268,0.00285
4325.02242,0.00169
4323.99217,0.00137
4322.96191,0.00168
4321.93165,0.00191
4320.90139,0.00215
4319.87113,0.00255
4318.84088,0.00265
4317.81062,0.00220
4316.78036,0.00189
4315.75010,0.00193
4314.71984,0.00179
4313.68959,0.00171
4312.65933,0.00196
4311.62907,0.00244
4310.59881,0.00301
4309.56856,0.00306
4308.53830,0.00267
4307.50804,0.00249
4306.47778,0.00264
4305.44752,0.00279
4304.41727,0.00289
4303.38701,0.00327
4302.35675,0.00362
4301.32649,0.00337
4300.29624,0.00288
4299.26598,0.00239
4298.23572,0.00190
4297.20546,0.00196
4296.17520,0.00267
4295.14495,0.00357
4294.11469,0.00400
4293.08443,0.00343
4292.05417,0.00275
4291.02391,0.00257
4289.99366,0.00244
4288.96340,0.00270
4287.93314,0.00332
4286.90288,0.00374
4285.87263,0.00378
4284.84237,0.00330
4283.81211,0.00272
4282.78185,0.00264
4281.75159,0.00291
4280.72134,0.00304
4279.69108,0.00273
4278.66082,0.00240
4277.63056,0.00248
4276.60030,0.00277
4275.57005,0.00290
4274.53979,0.00260
4273.50953,0.00211
4272.47927,0.00217
4271.44902,0.00285
4270.41876,0.00338
4269.38850,0.00328
4268.35824,0.00300
4267.32798,0.00296
4266.29773,0.00279
4265.26747,0.00218
4264.23721,0.00201
4263.20695,0.00274
4262.17669,0.00313
4261.14644,0.00260
4260.11618,0.00199
4259.08592,0.00184
4258.05566,0.00199
4257.02541,0.00240
4255.99515,0.00318
4254.96489,0.00367
4253.93463,0.00349
4252.90437,0.00297
4251.87412,0.00253
4250.84386,0.00263
4249.81360,0.00300
4248.78334,0.00305
4247.75309,0.00283
4246.72283,0.00268
4245.69257,0.00271
4244.66231,0.00283
4243.63205,0.00282
4242.60180,0.00243
4241.57154,0.00182
4240.54128,0.00157
4239.51102,0.00177
4238.48076,0.00204
4237.45051,0.00261
4236.42025,0.00332
4235.38999,0.00339
4234.35973,0.00313
4233.32948,0.00308
4232.29922,0.00308
4231.26896,0.00295
4230.23870,0.00290
4229.20844,0.00312
4228.17819,0.00341
4227.14793,0.00352
4226.11767,0.00326
4225.08741,0.00289
4224.05715,0.00295
4223.02690,0.00331
4221.99664,0.00358
4220.96638,0.00342
4219.93612,0.00297
4218.90587,0.00299
4217.87561,0.00323
4216.84535,0.00301
4215.81509,0.00268
4214.78483,0.00272
4213.75458,0.00299
4212.72432,0.00310
4211.69406,0.00320
4210.66380,0.00333
4209.63354,0.00318
4208.60329,0.00308
4207.57303,0.00308
4206.54277,0.00279
4205.51251,0.00255
4204.48226,0.00250
4203.45200,0.00233
4202.42174,0.00244
4201.39148,0.00309
4200.36122,0.00364
4199.33097,0.00343
4198.30071,0.00261
4197.27045,0.00224
4196.24019,0.00254
4195.20994,0.00258
4194.17968,0.00240
4193.14942,0.00245
4192.11916,0.00236
4191.08890,0.00204
4190.05865,0.00198
4189.02839,0.00242
4187.99813,0.00308
4186.96787,0.00334
4185.93761,0.00316
4184.90736,0.00322
4183.87710,0.00362
4182.84684,0.00385
4181.81658,0.00363
4180.78633,0.00334
4179.75607,0.00345
4178.72581,0.00360
4177.69555,0.00357
4176.66529,0.00363
4175.63504,0.00354
4174.60478,0.00332
4173.57452,0.00336
4172.54426,0.00337
4171.51400,0.00334
4170.48375,0.00339
4169.45349,0.00331
4168.42323,0.00349
4167.39297,0.00384
4166.36272,0.00384
4165.33246,0.00387
4164.30220,0.00421
4163.27194,0.00432
4162.24168,0.00399
4161.21143,0.00362
4160.18117,0.00325
4159.15091,0.00314
4158.12065,0.00334
4157.09039,0.00347
4156.06014,0.00357
4155.02988,0.00350
4153.99962,0.00347
4152.96936,0.00346
4151.93911,0.00303
4150.90885,0.00285
4149.87859,0.00321
4148.84833,0.00352
4147.81807,0.00364
4146.78782,0.00380
4145.75756,0.00408
4144.72730,0.00414
4143.69704,0.00381
4142.66679,0.00355
4141.63653,0.00378
4140.60627,0.00398
4139.57601,0.00391
4138.54575,0.00421
4137.51550,0.00481
4136.48524,0.00491
4135.45498,0.00422
4134.42472,0.00343
4133.39446,0.00318
4132.36421,0.00290
4131.33395,0.00239
4130.30369,0.00268
4129.27343,0.00365
4128.24318,0.00414
4127.21292,0.00394
4126.18266,0.00373
4125.15240,0.00381
4124.12214,0.00377
4123.09189,0.00337
4122.06163,0.00319
4121.03137,0.00352
4120.00111,0.00375
4118.97085,0.00381
4117.94060,0.00385
4116.91034,0.00358
4115.88008,0.00315
4114.84982,0.00294
4113.81957,0.00300
4112.78931,0.00332
4111.75905,0.00377
4110.72879,0.00406
4109.69853,0.00387
4108.66828,0.00369
4107.63802,0.00397
4106.60776,0.00404
4105.57750,0.00365
4104.54724,0.00320
4103.51699,0.00269
4102.48673,0.00245
4101.45647,0.00298
4100.42621,0.00361
4099.39596,0.00368
4098.36570,0.00353
4097.33544,0.00332
4096.30518,0.00315
4095.27492,0.00309
4094.24467,0.00305
4093.21441,0.00330
4092.18415,0.00356
4091.15389,0.00341
4090.12364,0.00324
4089.09338,0.00334
4088.06312,0.00336
4087.03286,0.00325
4086.00260,0.00351
4084.97235,0.00395
4083.94209,0.00402
4082.91183,0.00398
4081.88157,0.00401
4080.85131,0.00380
4079.82106,0.00361
4078.79080,0.00401
4077.76054,0.00449
4076.73028,0.00418
4075.70003,0.00360
4074.66977,0.00376
4073.63951,0.00423
4072.60925,0.00430
4071.57899,0.00435
4070.54874,0.00450
4069.51848,0.00449
4068.48822,0.00449
4067.45796,0.00446
4066.42770,0.00441
4065.39745,0.00448
4064.36719,0.00449
4063.33693,0.00462
4062.30667,0.00473
4061.27642,0.00450
4060.24616,0.00420
4059.21590,0.00403
4058.18564,0.00413
4057.15538,0.00452
4056.12513,0.00481
4055.09487,0.00453
4054.06461,0.00408
4053.03435,0.00410
4052.00409,0.00453
4050.97384,0.00510
4049.94358,0.00512
4048.91332,0.00456
4047.88306,0.00429
4046.85281,0.00428
4045.82255,0.00438
4044.79229,0.00478
4043.76203,0.00486
4042.73177,0.00439
4041.70152,0.00402
4040.67126,0.00407
4039.64100,0.00434
4038.61074,0.00449
4037.58049,0.00435
4036.55023,0.00425
4035.51997,0.00434
4034.48971,0.00423
4033.45945,0.00416
4032.42920,0.00443
4031.39894,0.00473
4030.36868,0.00507
4029.33842,0.00534
4028.30816,0.00515
4027.27791,0.00481
4026.24765,0.00466
4025.21739,0.00470
4024.18713,0.00479
4023.15688,0.00460
4022.12662,0.00417
4021.09636,0.00386
4020.06610,0.00394
4019.03584,0.00416
4018.00559,0.00425
4016.97533,0.00436
4015.94507,0.00475
4014.91481,0.00517
4013.88455,0.00498
4012.85430,0.00451
4011.82404,0.00432
4010.79378,0.00429
4009.76352,0.00440
4008.73327,0.00467
4007.70301,0.00470
4006.67275,0.00456
4005.64249,0.00468
4004.61223,0.00496
4003.58198,0.00482
4002.55172,0.00442
4001.52146,0.00450
4000.49120,0.00470
3999.46095,0.00465
3998.43069,0.00460
3997.40043,0.00450
3996.37017,0.00445
3995.33991,0.00470
3994.30966,0.00490
3993.27940,0.00475
3992.24914,0.00445
3991.21888,0.00432
3990.18862,0.00445
3989.15837,0.00445
3988.12811,0.00416
3987.09785,0.00388
3986.06759,0.00389
3985.03734,0.00420
3984.00708,0.00445
3982.97682,0.00429
3981.94656,0.00407
3980.91630,0.00405
3979.88605,0.00407
3978.85579,0.00426
3977.82553,0.00451
3976.79527,0.00455
3975.76501,0.00461
3974.73476,0.00476
3973.70450,0.00455
3972.67424,0.00392
3971.64398,0.00352
3970.61373,0.00399
3969.58347,0.00477
3968.55321,0.00509
3967.52295,0.00502
3966.49269,0.00481
3965.46244,0.00445
3964.43218,0.00420
3963.40192,0.00422
3962.37166,0.00422
3961.34140,0.00417
3960.31115,0.00399
3959.28089,0.00395
3958.25063,0.00447
3957.22037,0.00488
3956.19012,0.00475
3955.15986,0.00454
3954.12960,0.00468
3953.09934,0.00497
3952.06908,0.00512
3951.03883,0.00509
3950.00857,0.00503
3948.97831,0.00494
3947.94805,0.00459
3946.91780,0.00428
3945.88754,0.00441
3944.85728,0.00461
3943.82702,0.00456
3942.79676,0.00443
3941.76651,0.00434
3940.73625,0.00439
3939.70599,0.00439
3938.67573,0.00389
3937.64547,0.00322
3936.61522,0.00309
3935.58496,0.00340
3934.55470,0.00350
3933.52444,0.00337
3932.49419,0.00352
3931.46393,0.00392
3930.43367,0.00394
3929.40341,0.00357
3928.37315,0.00322
3927.34290,0.00310
3926.31264,0.00345
3925.28238,0.00400
3924.25212,0.00412
3923.22186,0.00402
3922.19161,0.00391
3921.16135,0.00385
3920.13109,0.00420
3919.10083,0.00451
3918.07058,0.00444
3917.04032,0.00426
3916.01006,0.00412
3914.97980,0.00405
3913.94954,0.00385
3912.91929,0.00367
3911.88903,0.00366
3910.85877,0.00372
3909.82851,0.00388
3908.79825,0.00399
3907.76800,0.00386
3906.73774,0.00364
3905.70748,0.00356
3904.67722,0.00341
3903.64697,0.00317
3902.61671,0.00325
3901.58645,0.00347
3900.55619,0.00350
3899.52593,0.00364
3898.49568,0.00375
3897.46542,0.00345
3896.43516,0.00335
3895.40490,0.00367
3894.37465,0.00383
3893.34439,0.00343
3892.31413,0.00266
3891.28387,0.00237
3890.25361,0.00322
3889.22336,0.00400
3888.19310,0.00400
3887.16284,0.00386
3886.13258,0.00389
3885.10232,0.00419
3884.07207,0.00448
3883.04181,0.00433
3882.01155,0.00404
3880.98129,0.00375
3879.95104,0.00349
3878.92078,0.00342
3877.89052,0.00348
3876.86026,0.00372
3875.83000,0.00403
3874.79975,0.00401
3873.76949,0.00397
3872.73923,0.00445
3871.70897,0.00491
3870.67871,0.00478
3869.64846,0.00438
3868.61820,0.00441
3867.58794,0.00449
3866.55768,0.00418
3865.52743,0.00387
3864.49717,0.00419
3863.46691,0.00445
3862.43665,0.00389
3861.40639,0.00310
3860.37614,0.00281
3859.34588,0.00278
3858.31562,0.00290
3857.28536,0.00324
3856.25510,0.00342
3855.22485,0.00375
3854.19459,0.00443
3853.16433,0.00421
3852.13407,0.00369
3851.10382,0.00359
3850.07356,0.00316
3849.04330,0.00291
3848.01304,0.00346
3846.98278,0.00384
3845.95253,0.00344
3844.92227,0.00295
3843.89201,0.00289
3842.86175,0.00306
3841.83150,0.00317
3840.80124,0.00321
3839.77098,0.00324
3838.74072,0.00351
3837.71046,0.00356
3836.68021,0.00306
3835.64995,0.00284
3834.61969,0.00322
3833.58943,0.00361
3832.55917,0.00361
3831.52892,0.00352
3830.49866,0.00344
3829.46840,0.00340
3828.43814,0.00354
3827.40789,0.00373
3826.37763,0.00400
3825.34737,0.00423
3824.31711,0.00400
3823.28685,0.00348
3822.25660,0.00322
3821.22634,0.00391
3820.19608,0.00453
3819.16582,0.00420
3818.13556,0.00404
3817.10531,0.00395
3816.07505,0.00363
3815.04479,0.00358
3814.01453,0.00355
3812.98428,0.00375
3811.95402,0.00431
3810.92376,0.00445
3809.89350,0.00432
3808.86324,0.00454
3807.83299,0.00462
3806.80273,0.00423
3805.77247,0.00398
3804.74221,0.00368
3803.71195,0.00342
3802.68170,0.00379
3801.65144,0.00425
3800.62118,0.00417
3799.59092,0.00418
3798.56067,0.00443
3797.53041,0.00441
3796.50015,0.00401
3795.46989,0.00365
3794.43963,0.00345
3793.40938,0.00347
3792.37912,0.00373
3791.34886,0.00420
3790.31860,0.00476
3789.28835,0.00494
3788.25809,0.00471
3787.22783,0.00466
3786.19757,0.00470
3785.16731,0.00446
3784.13706,0.00417
3783.10680,0.00415
3782.07654,0.00434
3781.04628,0.00456
3780.01602,0.00484
3778.98577,0.00523
3777.95551,0.00544
3776.92525,0.00539
3775.89499,0.00533
3774.86474,0.00537
3773.83448,0.00532
3772.80422,0.00498
3771.77396,0.00435
3770.74370,0.00360
3769.71345,0.00361
3768.68319,0.00443
3767.65293,0.00487
3766.62267,0.00489
3765.59241,0.00483
3764.56216,0.00463
3763.53190,0.00472
3762.50164,0.00531
3761.47138,0.00564
3760.44113,0.00552
3759.41087,0.00557
3758.38061,0.00555
3757.35035,0.00508
3756.32009,0.00453
3755.28984,0.00430
3754.25958,0.00435
3753.22932,0.00465
3752.19906,0.00509
3751.16880,0.00580
3750.13855,0.00654
3749.10829,0.00639
3748.07803,0.00551
3747.04777,0.00480
3746.01752,0.00447
3744.98726,0.00480
3743.95700,0.00515
3742.92674,0.00474
3741.89648,0.00475
3740.86623,0.00537
3739.83597,0.00588
3738.80571,0.00622
3737.77545,0.00657
3736.74520,0.00665
3735.71494,0.00619
3734.68468,0.00533
3733.65442,0.00482
3732.62416,0.00513
3731.59391,0.00568
3730.56365,0.00569
3729.53339,0.00564
3728.50313,0.00575
3727.47287,0.00582
3726.44262,0.00611
3725.41236,0.00666
3724.38210,0.00678
3723.35184,0.00634
3722.32159,0.00603
3721.29133,0.00614
3720.26107,0.00620
3719.23081,0.00655
3718.20055,0.00710
3717.17030,0.00695
3716.14004,0.00654
3715.10978,0.00658
3714.07952,0.00725
3713.04926,0.00807
3712.01901,0.00796
3710.98875,0.00723
3709.95849,0.00723
3708.92823,0.00765
3707.89798,0.00777
3706.86772,0.00786
3705.83746,0.00809
3704.80720,0.00814
3703.77694,0.00818
3702.74669,0.00837
3701.71643,0.00851
3700.68617,0.00854
3699.65591,0.00840
3698.62565,0.00831
3697.59540,0.00863
3696.56514,0.00889
3695.53488,0.00893
3694.50462,0.00909
3693.47437,0.00940
3692.44411,0.00964
3691.41385,0.00980
3690.38359,0.01024
3689.35333,0.01069
3688.32308,0.01088
3687.29282,0.01132
3686.26256,0.01161
3685.23230,0.01169
3684.20205,0.01201
3683.17179,0.01225
3682.14153,0.01231
3681.11127,0.01272
3680.08101,0.01365
3679.05076,0.01457
3678.02050,0.01529
3676.99024,0.01612
3675.95998,0.01674
3674.92972,0.01649
3673.89947,0.01604
3672.86921,0.01589
3671.83895,0.01611
3670.80869,0.01707
3669.77844,0.01843
3668.74818,0.01954
3667.71792,0.02008
3666.68766,0.02036
3665.65740,0.02083
3664.62715,0.02136
3663.59689,0.02196
3662.56663,0.02290
3661.53637,0.02415
3660.50611,0.02515
3659.47586,0.02537
3658.44560,0.02524
3657.41534,0.02593
3656.38508,0.02706
3655.35483,0.02724
3654.32457,0.02741
3653.29431,0.02848
3652.26405,0.02944
3651.23379,0.02973
3650.20354,0.03038
3649.17328,0.03138
3648.14302,0.03178
3647.11276,0.03227
3646.08250,0.03363
3645.05225,0.03484
3644.02199,0.03553
3642.99173,0.03612
3641.96147,0.03646
3640.93122,0.03683
3639.90096,0.03777
3638.87070,0.03890
3637.84044,0.03957
3636.81018,0.03998
3635.77993,0.04062
3634.74967,0.04149
3633.71941,0.04236
3632.68915,0.04332
3631.65890,0.04433
3630.62864,0.04511
3629.59838,0.04529
3628.56812,0.04533
3627.53786,0.04670
3626.50761,0.04828
3625.47735,0.04898
3624.44709,0.04961
3623.41683,0.05048
3622.38657,0.05110
3621.35632,0.05178
3620.32606,0.05272
3619.29580,0.05342
3618.26554,0.05379
3617.23529,0.05436
3616.20503,0.05515
3615.17477,0.05576
3614.14451,0.05617
3613.11425,0.05674
3612.08400,0.05775
3611.05374,0.05891
3610.02348,0.06007
3608.99322,0.06130
3607.96296,0.06266
3606.93271,0.06414
3605.90245,0.06528
3604.87219,0.06585
3603.84193,0.06632
3602.81168,0.06714
3601.78142,0.06781
3600.75116,0.06817
3599.72090,0.06925
3598.69064,0.07092
3597.66039,0.07203
3596.63013,0.07269
3595.59987,0.07376
3594.56961,0.07486
3593.53936,0.07534
3592.50910,0.07617
3591.47884,0.07766
3590.44858,0.07904
3589.41832,0.08054
3588.38807,0.08177
3587.35781,0.08211
3586.32755,0.08287
3585.29729,0.08434
3584.26703,0.08557
3583.23678,0.08654
3582.20652,0.08731
3581.17626,0.08819
3580.14600,0.08942
3579.11575,0.09062
3578.08549,0.09167
3577.05523,0.09262
3576.02497,0.09370
3574.99471,0.09501
3573.96446,0.09606
3572.93420,0.09669
3571.90394,0.09758
3570.87368,0.09911
3569.84342,0.10055
3568.81317,0.10148
3567.78291,0.10202
3566.75265,0.10267
3565.72239,0.10390
3564.69214,0.10524
3563.66188,0.10668
3562.63162,0.10838
3561.60136,0.10986
3560.57110,0.11112
3559.54085,0.11247
3558.51059,0.11379
3557.48033,0.11502
3556.45007,0.11619
3555.41981,0.11748
3554.38956,0.11876
3553.35930,0.11972
3552.32904,0.12053
3551.29878,0.12130
3550.26853,0.12201
3549.23827,0.12305
3548.20801,0.12465
3547.17775,0.12621
3546.14749,0.12741
3545.11724,0.12860
3544.08698,0.12978
3543.05672,0.13092
3542.02646,0.13220
3540.99621,0.13341
3539.96595,0.13469
3538.93569,0.13615
3537.90543,0.13752
3536.87517,0.13869
3535.84492,0.13948
3534.81466,0.14006
3533.78440,0.14091
3532.75414,0.14202
3531.72388,0.14304
3530.69363,0.14394
3529.66337,0.14490
3528.63311,0.14613
3527.60285,0.14724
3526.57260,0.14788
3525.54234,0.14855
3524.51208,0.14942
3523.48182,0.15028
3522.45156,0.15115
3521.42131,0.15224
3520.39105,0.15379
3519.36079,0.15539
3518.33053,0.15666
3517.30027,0.15792
3516.27002,0.15920
3515.23976,0.16017
3514.20950,0.16122
3513.17924,0.16244
3512.14899,0.16314
3511.11873,0.16361
3510.08847,0.16468
3509.05821,0.16577
3508.02795,0.16651
3506.99770,0.16744
3505.96744,0.16814
3504.93718,0.16866
3503.90692,0.16959
3502.87666,0.17063
3501.84641,0.17157
3500.81615,0.17266
3499.78589,0.17397
3498.75563,0.17505
3497.72538,0.17561
3496.69512,0.17617
3495.66486,0.17710
3494.63460,0.17834
3493.60434,0.17935
3492.57409,0.17989
3491.54383,0.18060
3490.51357,0.18166
3489.48331,0.18281
3488.45306,0.18386
3487.42280,0.18470
3486.39254,0.18545
3485.36228,0.18605
3484.33202,0.18684
3483.30177,0.18801
3482.27151,0.18894
3481.24125,0.18957
3480.21099,0.19023
3479.18073,0.19096
3478.15048,0.19189
3477.12022,0.19298
3476.08996,0.19395
3475.05970,0.19485
3474.02945,0.19564
3472.99919,0.19640
3471.96893,0.19736
3470.93867,0.19798
3469.90841,0.19807
3468.87816,0.19838
3467.84790,0.19945
3466.81764,0.20098
3465.78738,0.20237
3464.75712,0.20329
3463.72687,0.20382
3462.69661,0.20441
3461.66635,0.20503
3460.63609,0.20557
3459.60584,0.20647
3458.57558,0.20761
3457.54532,0.20866
3456.51506,0.20986
3455.48480,0.21090
3454.45455,0.21142
3453.42429,0.21185
3452.39403,0.21242
3451.36377,0.21341
3450.33351,0.21483
3449.30326,0.21593
3448.27300,0.21634
3447.24274,0.21643
3446.21248,0.21700
3445.18223,0.21833
3444.15197,0.21966
3443.12171,0.22049
3442.09145,0.22125
3441.06119,0.22207
3440.03094,0.22266
3439.00068,0.22310
3437.97042,0.22361
3436.94016,0.22449
3435.90991,0.22553
3434.87965,0.22584
3433.84939,0.22595
3432.81913,0.22656
3431.78887,0.22719
3430.75862,0.22804
3429.72836,0.22929
3428.69810,0.23037
3427.66784,0.23111
3426.63758,0.23176
3425.60733,0.23271
3424.57707,0.23404
3423.54681,0.23469
3422.51655,0.23445
3421.48630,0.23450
3420.45604,0.23504
3419.42578,0.23584
3418.39552,0.23694
3417.36526,0.23773
3416.33501,0.23784
3415.30475,0.23807
3414.27449,0.23868
3413.24423,0.23958
3412.21397,0.24055
3411.18372,0.24072
3410.15346,0.24054
3409.12320,0.24118
3408.09294,0.24216
3407.06269,0.24279
3406.03243,0.24329
3405.00217,0.24374
3403.97191,0.24399
3402.94165,0.24425
3401.91140,0.24447
3400.88114,0.24449
3399.85088,0.24453
3398.82062,0.24467
3397.79036,0.24498
3396.76011,0.24564
3395.72985,0.24616
3394.69959,0.24611
3393.66933,0.24592
3392.63908,0.24574
3391.60882,0.24552
3390.57856,0.24534
3389.54830,0.24558
3388.51804,0.24629
3387.48779,0.24681
3386.45753,0.24667
3385.42727,0.24614
3384.39701,0.24577
3383.36676,0.24591
3382.33650,0.24635
3381.30624,0.24626
3380.27598,0.24579
3379.24572,0.24576
3378.21547,0.24575
3377.18521,0.24528
3376.15495,0.24502
3375.12469,0.24561
3374.09443,0.24633
3373.06418,0.24624
3372.03392,0.24527
3371.00366,0.24416
3369.97340,0.24371
3368.94315,0.24392
3367.91289,0.24387
3366.88263,0.24346
3365.85237,0.24356
3364.82211,0.24377
3363.79186,0.24341
3362.76160,0.24311
3361.73134,0.24306
3360.70108,0.24252
3359.67082,0.24171
3358.64057,0.24124
3357.61031,0.24091
3356.58005,0.24007
3355.54979,0.23891
3354.51954,0.23837
3353.48928,0.23822
3352.45902,0.23779
3351.42876,0.23735
3350.39850,0.23701
3349.36825,0.23666
3348.33799,0.23634
3347.30773,0.23602
3346.27747,0.23593
3345.24721,0.23566
3344.21696,0.23460
3343.18670,0.23376
3342.15644,0.23362
3341.12618,0.23324
3340.09593,0.23276
3339.06567,0.23259
3338.03541,0.23218
3337.00515,0.23169
3335.97489,0.23138
3334.94464,0.23096
3333.91438,0.23027
3332.88412,0.22937
3331.85386,0.22848
3330.82361,0.22768
3329.79335,0.22674
3328.76309,0.22600
3327.73283,0.22595
3326.70257,0.22609
3325.67232,0.22596
3324.64206,0.22540
3323.61180,0.22465
3322.58154,0.22433
3321.55128,0.22405
3320.52103,0.22372
3319.49077,0.22376
3318.46051,0.22376
3317.43025,0.22334
3316.40000,0.22262
3315.36974,0.22204
3314.33948,0.22179
3313.30922,0.22163
3312.27896,0.22138
3311.24871,0.22090
3310.21845,0.22028
3309.18819,0.21976
3308.15793,0.21961
3307.12767,0.21965
3306.09742,0.21941
3305.06716,0.21912
3304.03690,0.21879
3303.00664,0.21829
3301.97639,0.21795
3300.94613,0.21781
3299.91587,0.21800
3298.88561,0.21839
3297.85535,0.21835
3296.82510,0.21793
3295.79484,0.21734
3294.76458,0.21672
3293.73432,0.21649
3292.70406,0.21626
3291.67381,0.21552
3290.64355,0.21475
3289.61329,0.21454
3288.58303,0.21480
3287.55278,0.21516
3286.52252,0.21505
3285.49226,0.21456
3284.46200,0.21441
3283.43174,0.21430
3282.40149,0.21390
3281.37123,0.21360
3280.34097,0.21328
3279.31071,0.21311
3278.28046,0.21330
3277.25020,0.21345
3276.21994,0.21325
3275.18968,0.21267
3274.15942,0.21181
3273.12917,0.21080
3272.09891,0.21008
3271.06865,0.21000
3270.03839,0.21013
3269.00813,0.20990
3267.97788,0.20939
3266.94762,0.20881
3265.91736,0.20822
3264.88710,0.20807
3263.85685,0.20839
3262.82659,0.20871
3261.79633,0.20848
3260.76607,0.20757
3259.73581,0.20651
3258.70556,0.20560
3257.67530,0.20508
3256.64504,0.20526
3255.61478,0.20555
3254.58452,0.20511
3253.55427,0.20423
3252.52401,0.20335
3251.49375,0.20252
3250.46349,0.20212
3249.43324,0.20208
3248.40298,0.20151
3247.37272,0.20014
3246.34246,0.19889
3245.31220,0.19846
3244.28195,0.19842
3243.25169,0.19822
3242.22143,0.19790
3241.19117,0.19742
3240.16092,0.19687
3239.13066,0.19638
3238.10040,0.19581
3237.07014,0.19509
3236.03988,0.19407
3235.00963,0.19286
3233.97937,0.19190
3232.94911,0.19120
3231.91885,0.19057
3230.88859,0.19010
3229.85834,0.18960
3228.82808,0.18898
3227.79782,0.18864
3226.76756,0.18828
3225.73731,0.18752
3224.70705,0.18647
3223.67679,0.18534
3222.64653,0.18414
3221.61627,0.18291
3220.58602,0.18187
3219.55576,0.18106
3218.52550,0.18036
3217.49524,0.17952
3216.46498,0.17854
3215.43473,0.17766
3214.40447,0.17667
3213.37421,0.17556
3212.34395,0.17471
3211.31370,0.17411
3210.28344,0.17315
3209.25318,0.17181
3208.22292,0.17070
3207.19266,0.16994
3206.16241,0.16927
3205.13215,0.16838
3204.10189,0.16716
3203.07163,0.16577
3202.04137,0.16423
3201.01112,0.16306
3199.98086,0.16261
3198.95060,0.16217
3197.92034,0.16102
3196.89009,0.15953
3195.85983,0.15849
3194.82957,0.15792
3193.79931,0.15711
3192.76905,0.15575
3191.73880,0.15436
3190.70854,0.15351
3189.67828,0.15288
3188.64802,0.15197
3187.61777,0.15087
3186.58751,0.14963
3185.55725,0.14811
3184.52699,0.14663
3183.49673,0.14543
3182.46648,0.14425
3181.43622,0.14320
3180.40596,0.14216
3179.37570,0.14079
3178.34544,0.13958
3177.31519,0.13886
3176.28493,0.13802
3175.25467,0.13711
3174.22441,0.13680
3173.19416,0.13639
3172.16390,0.13516
3171.13364,0.13356
3170.10338,0.13197
3169.07312,0.13062
3168.04287,0.12957
3167.01261,0.12899
3165.98235,0.12869
3164.95209,0.12779
3163.92183,0.12613
3162.89158,0.12469
3161.86132,0.12384
3160.83106,0.12275
3159.80080,0.12153
3158.77055,0.12080
3157.74029,0.11988
3156.71003,0.11854
3155.67977,0.11728
3154.64951,0.11621
3153.61926,0.11538
3152.58900,0.11481
3151.55874,0.11438
3150.52848,0.11393
3149.49822,0.11316
3148.46797,0.11190
3147.43771,0.11043
3146.40745,0.10927
3145.37719,0.10827
3144.34694,0.10717
3143.31668,0.10627
3142.28642,0.10535
3141.25616,0.10412
3140.22590,0.10311
3139.19565,0.10245
3138.16539,0.10192
3137.13513,0.10137
3136.10487,0.10046
3135.07462,0.09912
3134.04436,0.09780
3133.01410,0.09680
3131.98384,0.09595
3130.95358,0.09514
3129.92333,0.09428
3128.89307,0.09328
3127.86281,0.09226
3126.83255,0.09141
3125.80229,0.09078
3124.77204,0.09025
3123.74178,0.08956
3122.71152,0.08854
3121.68126,0.08731
3120.65101,0.08616
3119.62075,0.08543
3118.59049,0.08513
3117.56023,0.08474
3116.52997,0.08397
3115.49972,0.08317
3114.46946,0.08242
3113.43920,0.08147
3112.40894,0.08047
3111.37868,0.07955
3110.34843,0.07877
3109.31817,0.07788
3108.28791,0.07692
3107.25765,0.07640
3106.22740,0.07618
3105.19714,0.07568
3104.16688,0.07474
3103.13662,0.07404
3102.10636,0.07390
3101.07611,0.07363
3100.04585,0.07280
3099.01559,0.07163
3097.98533,0.07057
3096.95507,0.06987
3095.92482,0.06954
3094.89456,0.06932
3093.86430,0.06895
3092.83404,0.06843
3091.80379,0.06772
3090.77353,0.06684
3089.74327,0.06607
3088.71301,0.06532
3087.68275,0.06458
3086.65250,0.06422
3085.62224,0.06391
3084.59198,0.06311
3083.56172,0.06221
3082.53147,0.06183
3081.50121,0.06158
3080.47095,0.06083
3079.44069,0.06000
3078.41043,0.05956
3077.38018,0.05893
3076.34992,0.05800
3075.31966,0.05739
3074.28940,0.05713
3073.25914,0.05676
3072.22889,0.05620
3071.19863,0.05548
3070.16837,0.05470
3069.13811,0.05427
3068.10786,0.05421
3067.07760,0.05377
3066.04734,0.05285
3065.01708,0.05222
3063.98682,0.05201
3062.95657,0.05146
3061.92631,0.05056
3060.89605,0.05022
3059.86579,0.05040
3058.83553,0.05015
3057.80528,0.04925
3056.77502,0.04849
3055.74476,0.04835
3054.71450,0.04821
3053.68425,0.04768
3052.65399,0.04723
3051.62373,0.04706
3050.59347,0.04673
3049.56321,0.04618
3048.53296,0.04551
3047.50270,0.04477
3046.47244,0.04430
3045.44218,0.04433
3044.41192,0.04442
3043.38167,0.04408
3042.35141,0.04341
3041.32115,0.04276
3040.29089,0.04233
3039.26064,0.04214
3038.23038,0.04205
3037.20012,0.04162
3036.16986,0.04092
3035.13960,0.04038
3034.10935,0.03998
3033.07909,0.03980
3032.04883,0.03983
3031.01857,0.03946
3029.98832,0.03870
3028.95806,0.03822
3027.92780,0.03802
3026.89754,0.03793
3025.86728,0.03785
3024.83703,0.03764
3023.80677,0.03719
3022.77651,0.03650
3021.74625,0.03599
3020.71599,0.03570
3019.68574,0.03540
3018.65548,0.03513
3017.62522,0.03490
3016.59496,0.03455
3015.56471,0.03408
3014.53445,0.03380
3013.50419,0.03380
3012.47393,0.03364
3011.44367,0.03313
3010.41342,0.03271
3009.38316,0.03268
3008.35290,0.03292
3007.32264,0.03322
3006.29238,0.03313
3005.26213,0.03266
3004.23187,0.03209
3003.20161,0.03151
3002.17135,0.03126
3001.14110,0.03141
3000.11084,0.03162
2999.08058,0.03172
2998.05032,0.03153
2997.02006,0.03112
2995.98981,0.03087
2994.95955,0.03093
2993.92929,0.03108
2992.89903,0.03131
2991.86877,0.03166
2990.83852,0.03182
2989.80826,0.03169
2988.77800,0.03173
2987.74774,0.03216
2986.71749,0.03262
2985.68723,0.03298
2984.65697,0.03332
2983.62671,0.03374
2982.59645,0.03437
2981.56620,0.03505
2980.53594,0.03577
2979.50568,0.03673
2978.47542,0.03766
2977.44517,0.03834
2976.41491,0.03909
2975.38465,0.04012
2974.35439,0.04122
2973.32413,0.04208
2972.29388,0.04277
2971.26362,0.04382
2970.23336,0.04514
2969.20310,0.04609
2968.17284,0.04670
2967.14259,0.04745
2966.11233,0.04841
2965.08207,0.04956
2964.05181,0.05093
2963.02156,0.05211
2961.99130,0.05281
2960.96104,0.05342
2959.93078,0.05436
2958.90052,0.05538
2957.87027,0.05625
2956.84001,0.05709
2955.80975,0.05793
2954.77949,0.05862
2953.74923,0.05909
2952.71898,0.05968
2951.68872,0.06045
2950.65846,0.06112
2949.62820,0.06190
2948.59795,0.06278
2947.56769,0.06345
2946.53743,0.06382
2945.50717,0.06390
2944.47691,0.06411
2943.44666,0.06498
2942.41640,0.06612
2941.38614,0.06689
2940.35588,0.06733
2939.32562,0.06791
2938.29537,0.06862
2937.26511,0.06918
2936.23485,0.06973
2935.20459,0.07054
2934.17434,0.07143
2933.14408,0.07213
2932.11382,0.07273
2931.08356,0.07352
2930.05330,0.07460
2929.02305,0.07579
2927.99279,0.07689
2926.96253,0.07772
2925.93227,0.07838
2924.90202,0.07899
2923.87176,0.07961
2922.84150,0.08031
2921.81124,0.08079
2920.78098,0.08114
2919.75073,0.08170
2918.72047,0.08223
2917.69021,0.08267
2916.65995,0.08299
2915.62969,0.08291
2914.59944,0.08259
2913.56918,0.08232
2912.53892,0.08212
2911.50866,0.08189
2910.47841,0.08162
2909.44815,0.08132
2908.41789,0.08111
2907.38763,0.08089
2906.35737,0.08066
2905.32712,0.08042
2904.29686,0.07996
2903.26660,0.07949
2902.23634,0.07901
2901.20608,0.07834
2900.17583,0.07797
2899.14557,0.07798
2898.11531,0.07804
2897.08505,0.07795
2896.05480,0.07769
2895.02454,0.07756
2893.99428,0.07774
2892.96402,0.07806
2891.93376,0.07857
2890.90351,0.07924
2889.87325,0.07981
2888.84299,0.08035
2887.81273,0.08099
2886.78247,0.08158
2885.75222,0.08199
2884.72196,0.08249
2883.69170,0.08319
2882.66144,0.08386
2881.63119,0.08444
2880.60093,0.08485
2879.57067,0.08501
2878.54041,0.08496
2877.51015,0.08468
2876.47990,0.08411
2875.44964,0.08332
2874.41938,0.08235
2873.38912,0.08132
2872.35887,0.08046
2871.32861,0.07923
2870.29835,0.07720
2869.26809,0.07508
2868.23783,0.07331
2867.20758,0.07156
2866.17732,0.06974
2865.14706,0.06791
2864.11680,0.06613
2863.08654,0.06433
2862.05629,0.06242
2861.02603,0.06031
2859.99577,0.05819
2858.96551,0.05659
2857.93526,0.05533
2856.90500,0.05383
2855.87474,0.05198
2854.84448,0.04998
2853.81422,0.04815
2852.78397,0.04654
2851.75371,0.04509
2850.72345,0.04392
2849.69319,0.04282
2848.66293,0.04155
2847.63268,0.04053
2846.60242,0.03986
2845.57216,0.03901
2844.54190,0.03805
2843.51165,0.03721
2842.48139,0.03636
2841.45113,0.03560
2840.42087,0.03497
2839.39061,0.03426
2838.36036,0.03376
2837.33010,0.03353
2836.29984,0.03320
2835.26958,0.03266
2834.23933,0.03191
2833.20907,0.03111
2832.17881,0.03041
2831.14855,0.02976
2830.11829,0.02931
2829.08804,0.02905
2828.05778,0.02887
2827.02752,0.02878
2825.99726,0.02872
2824.96700,0.02848
2823.93675,0.02810
2822.90649,0.02759
2821.87623,0.02705
2820.84597,0.02671
2819.81572,0.02639
2818.78546,0.02595
2817.75520,0.02551
2816.72494,0.02496
2815.69468,0.02448
2814.66443,0.02426
2813.63417,0.02404
2812.60391,0.02373
2811.57365,0.02348
2810.54339,0.02323
2809.51314,0.02285
2808.48288,0.02238
2807.45262,0.02191
2806.42236,0.02142
2805.39211,0.02096
2804.36185,0.02063
2803.33159,0.02045
2802.30133,0.02029
2801.27107,0.01999
2800.24082,0.01954
2799.21056,0.01908
2798.18030,0.01873
2797.15004,0.01860
2796.11978,0.01825
2795.08953,0.01759
2794.05927,0.01740
2793.02901,0.01762
2791.99875,0.01767
2790.96850,0.01770
2789.93824,0.01778
2788.90798,0.01757
2787.87772,0.01718
2786.84746,0.01674
2785.81721,0.01625
2784.78695,0.01606
2783.75669,0.01612
2782.72643,0.01603
2781.69618,0.01587
2780.66592,0.01566
2779.63566,0.01535
2778.60540,0.01523
2777.57514,0.01522
2776.54489,0.01491
2775.51463,0.01449
2774.48437,0.01435
2773.45411,0.01440
2772.42385,0.01419
2771.39360,0.01376
2770.36334,0.01351
2769.33308,0.01353
2768.30282,0.01365
2767.27257,0.01376
2766.24231,0.01385
2765.21205,0.01393
2764.18179,0.01380
2763.15153,0.01352
2762.12128,0.01345
2761.09102,0.01361
2760.06076,0.01370
2759.03050,0.01360
2758.00024,0.01354
2756.96999,0.01354
2755.93973,0.01340
2754.90947,0.01321
2753.87921,0.01319
2752.84896,0.01333
2751.81870,0.01337
2750.78844,0.01329
2749.75818,0.01327
2748.72792,0.01331
2747.69767,0.01330
2746.66741,0.01311
2745.63715,0.01276
2744.60689,0.01263
2743.57663,0.01278
2742.54638,0.01271
2741.51612,0.01242
2740.48586,0.01238
2739.45560,0.01254
2738.42535,0.01240
2737.39509,0.01216
2736.36483,0.01216
2735.33457,0.01220
2734.30431,0.01201
2733.27406,0.01165
2732.24380,0.01148
2731.21354,0.01158
2730.18328,0.01161
2729.15303,0.01143
2728.12277,0.01125
2727.09251,0.01107
2726.06225,0.01082
2725.03199,0.01068
2724.00174,0.01075
2722.97148,0.01094
2721.94122,0.01079
2720.91096,0.01025
2719.88070,0.00981
2718.85045,0.00972
2717.82019,0.00985
2716.78993,0.01009
2715.75967,0.01047
2714.72942,0.01061
2713.69916,0.01017
2712.66890,0.00959
2711.63864,0.00948
2710.60838,0.00968
2709.57813,0.00974
2708.54787,0.00974
2707.51761,0.00982
2706.48735,0.00977
2705.45709,0.00971
2704.42684,0.00983
2703.39658,0.00991
2702.36632,0.00974
2701.33606,0.00949
2700.30581,0.00932
2699.27555,0.00917
2698.24529,0.00905
2697.21503,0.00889
2696.18477,0.00875
2695.15452,0.00866
2694.12426,0.00864
2693.09400,0.00875
2692.06374,0.00877
2691.03348,0.00868
2690.00323,0.00857
2688.97297,0.00826
2687.94271,0.00782
2686.91245,0.00765
2685.88220,0.00766
2684.85194,0.00749
2683.82168,0.00746
2682.79142,0.00780
2681.76116,0.00789
2680.73091,0.00765
2679.70065,0.00751
2678.67039,0.00740
2677.64013,0.00717
2676.60988,0.00710
2675.57962,0.00718
2674.54936,0.00720
2673.51910,0.00716
2672.48884,0.00704
2671.45859,0.00687
2670.42833,0.00675
2669.39807,0.00690
2668.36781,0.00735
2667.33755,0.00759
2666.30730,0.00745
2665.27704,0.00729
2664.24678,0.00722
2663.21652,0.00720
2662.18627,0.00716
2661.15601,0.00708
2660.12575,0.00717
2659.09549,0.00746
2658.06523,0.00772
2657.03498,0.00772
2656.00472,0.00738
2654.97446,0.00699
2653.94420,0.00670
2652.91394,0.00652
2651.88369,0.00656
2650.85343,0.00677
2649.82317,0.00689
2648.79291,0.00675
2647.76266,0.00642
2646.73240,0.00614
2645.70214,0.00620
2644.67188,0.00645
2643.64162,0.00665
2642.61137,0.00683
2641.58111,0.00701
2640.55085,0.00706
2639.52059,0.00695
2638.49033,0.00684
2637.46008,0.00677
2636.42982,0.00663
2635.39956,0.00656
2634.36930,0.00662
2633.33905,0.00652
2632.30879,0.00646
2631.27853,0.00666
2630.24827,0.00684
2629.21801,0.00672
2628.18776,0.00643
2627.15750,0.00622
2626.12724,0.00604
2625.09698,0.00600
2624.06673,0.00628
2623.03647,0.00659
2622.00621,0.00650
2620.97595,0.00604
2619.94569,0.00587
2618.91544,0.00611
2617.88518,0.00618
2616.85492,0.00603
2615.82466,0.00593
2614.79440,0.00589
2613.76415,0.00589
2612.73389,0.00595
2611.70363,0.00597
2610.67337,0.00589
2609.64312,0.00584
2608.61286,0.00586
2607.58260,0.00574
2606.55234,0.00544
2605.52208,0.00539
2604.49183,0.00578
2603.46157,0.00593
2602.43131,0.00573
2601.40105,0.00569
2600.37079,0.00579
2599.34054,0.00584
2598.31028,0.00593
2597.28002,0.00603
2596.24976,0.00605
2595.21951,0.00608
2594.18925,0.00590
2593.15899,0.00540
2592.12873,0.00537
2591.09847,0.00600
2590.06822,0.00628
2589.03796,0.00598
2588.00770,0.00583
2586.97744,0.00600
2585.94718,0.00613
2584.91693,0.00608
2583.88667,0.00593
2582.85641,0.00577
2581.82615,0.00566
2580.79590,0.00549
2579.76564,0.00530
2578.73538,0.00538
2577.70512,0.00566
2576.67486,0.00571
2575.64461,0.00545
2574.61435,0.00499
2573.58409,0.00478
2572.55383,0.00480
2571.52358,0.00449
2570.49332,0.00430
2569.46306,0.00451
2568.43280,0.00492
2567.40254,0.00568
2566.37229,0.00598
2565.34203,0.00543
2564.31177,0.00501
2563.28151,0.00491
2562.25125,0.00485
2561.22100,0.00506
2560.19074,0.00547
2559.16048,0.00568
2558.13022,0.00565
2557.09997,0.00549
2556.06971,0.00532
2555.03945,0.00530
2554.00919,0.00538
2552.97893,0.00549
2551.94868,0.00542
2550.91842,0.00515
2549.88816,0.00504
2548.85790,0.00534
2547.82764,0.00583
2546.79739,0.00629
2545.76713,0.00651
2544.73687,0.00632
2543.70661,0.00581
2542.67636,0.00558
2541.64610,0.00623
2540.61584,0.00711
2539.58558,0.00709
2538.55532,0.00622
2537.52507,0.00549
2536.49481,0.00542
2535.46455,0.00571
2534.43429,0.00576
2533.40403,0.00548
2532.37378,0.00514
2531.34352,0.00498
2530.31326,0.00537
2529.28300,0.00596
2528.25275,0.00600
2527.22249,0.00595
2526.19223,0.00642
2525.16197,0.00672
2524.13171,0.00596
2523.10146,0.00495
2522.07120,0.00529
2521.04094,0.00613
2520.01068,0.00587
2518.98043,0.00531
2517.95017,0.00544
2516.91991,0.00564
2515.88965,0.00535
2514.85939,0.00484
2513.82914,0.00446
2512.79888,0.00441
2511.76862,0.00490
2510.73836,0.00555
2509.70810,0.00571
2508.67785,0.00544
2507.64759,0.00538
2506.61733,0.00571
2505.58707,0.00606
2504.55682,0.00624
2503.52656,0.00591
2502.49630,0.00540
2501.46604,0.00517
2500.43578,0.00485
2499.40553,0.00470
2498.37527,0.00491
2497.34501,0.00499
2496.31475,0.00491
2495.28449,0.00494
2494.25424,0.00534
2493.22398,0.00567
2492.19372,0.00531
2491.16346,0.00513
2490.13321,0.00560
2489.10295,0.00542
2488.07269,0.00481
2487.04243,0.00523
2486.01217,0.00585
2484.98192,0.00566
2483.95166,0.00553
2482.92140,0.00573
2481.89114,0.00588
2480.86088,0.00606
2479.83063,0.00617
2478.80037,0.00599
2477.77011,0.00589
2476.73985,0.00619
2475.70960,0.00638
2474.67934,0.00624
2473.64908,0.00623
2472.61882,0.00632
2471.58856,0.00603
2470.55831,0.00565
2469.52805,0.00558
2468.49779,0.00566
2467.46753,0.00580
2466.43728,0.00605
2465.40702,0.00634
2464.37676,0.00632
2463.34650,0.00624
2462.31624,0.00636
2461.28599,0.00644
2460.25573,0.00646
2459.22547,0.00643
2458.19521,0.00654
2457.16495,0.00678
2456.13470,0.00680
2455.10444,0.00658
2454.07418,0.00633
2453.04392,0.00606
2452.01367,0.00579
2450.98341,0.00572
2449.95315,0.00605
2448.92289,0.00660
2447.89263,0.00678
2446.86238,0.00634
2445.83212,0.00591
2444.80186,0.00626
2443.77160,0.00674
2442.74134,0.00631
2441.71109,0.00569
2440.68083,0.00569
2439.65057,0.00568
2438.62031,0.00552
2437.59006,0.00572
2436.55980,0.00602
2435.52954,0.00598
2434.49928,0.00590
2433.46902,0.00603
2432.43877,0.00620
2431.40851,0.00657
2430.37825,0.00677
2429.34799,0.00638
2428.31774,0.00587
2427.28748,0.00579
2426.25722,0.00608
2425.22696,0.00634
2424.19670,0.00646
2423.16645,0.00662
2422.13619,0.00680
2421.10593,0.00678
2420.07567,0.00656
2419.04541,0.00631
2418.01516,0.00603
2416.98490,0.00588
2415.95464,0.00634
2414.92438,0.00696
2413.89413,0.00677
2412.86387,0.00622
2411.83361,0.00625
2410.80335,0.00668
2409.77309,0.00709
2408.74284,0.00739
2407.71258,0.00736
2406.68232,0.00716
2405.65206,0.00695
2404.62180,0.00685
2403.59155,0.00710
2402.56129,0.00738
2401.53103,0.00718
2400.50077,0.00686
2399.47052,0.00703
2398.44026,0.00739
2397.41000,0.00762
2396.37974,0.00765
2395.34948,0.00746
2394.31923,0.00737
2393.28897,0.00740
2392.25871,0.00733
2391.22845,0.00727
2390.19819,0.00745
2389.16794,0.00760
2388.13768,0.00757
2387.10742,0.00746
2386.07716,0.00717
2385.04691,0.00689
2384.01665,0.00696
2382.98639,0.00734
2381.95613,0.00779
2380.92587,0.00801
2379.89562,0.00799
2378.86536,0.00803
2377.83510,0.00828
2376.80484,0.00843
2375.77459,0.00824
2374.74433,0.00830
2373.71407,0.00887
2372.68381,0.00953
2371.65355,0.01024
2370.62330,0.01076
2369.59304,0.01040
2368.56278,0.00955
2367.53252,0.00887
2366.50226,0.00821
2365.47201,0.00820
2364.44175,0.00952
2363.41149,0.01107
2362.38123,0.01155
2361.35098,0.01163
2360.32072,0.01186
2359.29046,0.01157
2358.26020,0.01055
2357.22994,0.00930
2356.19969,0.00901
2355.16943,0.00969
2354.13917,0.01001
2353.10891,0.01008
2352.07865,0.01031
2351.04840,0.01029
2350.01814,0.01018
2348.98788,0.01004
2347.95762,0.00975
2346.92737,0.00958
2345.89711,0.00991
2344.86685,0.01060
2343.83659,0.01116
2342.80633,0.01131
2341.77608,0.01119
2340.74582,0.01147
2339.71556,0.01171
2338.68530,0.01129
2337.65504,0.01094
2336.62479,0.01067
2335.59453,0.01030
2334.56427,0.01013
2333.53401,0.01010
2332.50376,0.01040
2331.47350,0.01101
2330.44324,0.01109
2329.41298,0.01070
2328.38272,0.01054
2327.35247,0.01037
2326.32221,0.01000
2325.29195,0.00991
2324.26169,0.01006
2323.23144,0.00996
2322.20118,0.00997
2321.17092,0.01007
2320.14066,0.00959
2319.11040,0.00892
2318.08015,0.00900
2317.04989,0.00983
2316.01963,0.01048
2314.98937,0.01064
2313.95911,0.01059
2312.92886,0.01043
2311.89860,0.01016
2310.86834,0.00990
2309.83808,0.00997
2308.80783,0.01029
2307.77757,0.01054
2306.74731,0.01031
2305.71705,0.01000
2304.68679,0.01026
2303.65654,0.01061
2302.62628,0.01029
2301.59602,0.00956
2300.56576,0.00939
2299.53550,0.00980
2298.50525,0.01011
2297.47499,0.01007
2296.44473,0.00972
2295.41447,0.00939
2294.38422,0.00941
2293.35396,0.00961
2292.32370,0.00977
2291.29344,0.00982
2290.26318,0.00959
2289.23293,0.00929
2288.20267,0.00963
2287.17241,0.01038
2286.14215,0.01063
2285.11189,0.01037
2284.08164,0.00991
2283.05138,0.00980
2282.02112,0.01020
2280.99086,0.00998
2279.96061,0.00924
2278.93035,0.00934
2277.90009,0.01008
2276.86983,0.01006
2275.83957,0.00948
2274.80932,0.00980
2273.77906,0.01069
2272.74880,0.01097
2271.71854,0.01091
2270.68829,0.01076
2269.65803,0.01028
2268.62777,0.00975
2267.59751,0.00982
2266.56725,0.01013
2265.53700,0.00947
2264.50674,0.00864
2263.47648,0.00883
2262.44622,0.00930
2261.41596,0.00960
2260.38571,0.00986
2259.35545,0.00998
2258.32519,0.01010
2257.29493,0.01021
2256.26468,0.01025
2255.23442,0.01029
2254.20416,0.00991
2253.17390,0.00943
2252.14364,0.00926
2251.11339,0.00901
2250.08313,0.00930
2249.05287,0.01050
2248.02261,0.01163
2246.99235,0.01189
2245.96210,0.01148
2244.93184,0.01143
2243.90158,0.01159
2242.87132,0.01057
2241.84107,0.00894
2240.81081,0.00858
2239.78055,0.00952
2238.75029,0.01051
2237.72003,0.01140
2236.68978,0.01219
2235.65952,0.01221
2234.62926,0.01205
2233.59900,0.01149
2232.56874,0.01020
2231.53849,0.01005
2230.50823,0.01080
2229.47797,0.01075
2228.44771,0.01017
2227.41746,0.00930
2226.38720,0.00825
2225.35694,0.00788
2224.32668,0.00842
2223.29642,0.00933
2222.26617,0.01024
2221.23591,0.01070
2220.20565,0.01044
2219.17539,0.00959
2218.14514,0.00895
2217.11488,0.00926
2216.08462,0.00944
2215.05436,0.00938
2214.02410,0.01009
2212.99385,0.01046
2211.96359,0.00964
2210.93333,0.00890
2209.90307,0.00892
2208.87281,0.00921
2207.84256,0.00942
2206.81230,0.00952
2205.78204,0.01037
2204.75178,0.01147
2203.72153,0.01138
2202.69127,0.01115
2201.66101,0.01157
2200.63075,0.01132
2199.60049,0.01050
2198.57024,0.01021
2197.53998,0.01085
2196.50972,0.01175
2195.47946,0.01107
2194.44920,0.00951
2193.41895,0.00895
2192.38869,0.00959
2191.35843,0.01010
2190.32817,0.00915
2189.29792,0.00901
2188.26766,0.01062
2187.23740,0.01087
2186.20714,0.01008
2185.17688,0.01028
2184.14663,0.01016
2183.11637,0.00905
2182.08611,0.00887
2181.05585,0.01032
2180.02559,0.01084
2178.99534,0.01080
2177.96508,0.01207
2176.93482,0.01322
2175.90456,0.01379
2174.87431,0.01379
2173.84405,0.01270
2172.81379,0.01123
2171.78353,0.01106
2170.75327,0.01220
2169.72302,0.01293
2168.69276,0.01268
2167.66250,0.01258
2166.63224,0.01274
2165.60199,0.01265
2164.57173,0.01365
2163.54147,0.01357
2162.51121,0.01087
2161.48095,0.00884
2160.45070,0.00852
2159.42044,0.01008
2158.39018,0.01238
2157.35992,0.01154
2156.32966,0.00980
2155.29941,0.01092
2154.26915,0.01213
2153.23889,0.01128
2152.20863,0.00994
2151.17838,0.01048
2150.14812,0.01320
2149.11786,0.01554
2148.08760,0.01557
2147.05734,0.01364
2146.02709,0.01209
2144.99683,0.01321
2143.96657,0.01588
2142.93631,0.01691
2141.90605,0.01601
2140.87580,0.01524
2139.84554,0.01500
2138.81528,0.01448
2137.78502,0.01354
2136.75477,0.01250
2135.72451,0.01184
2134.69425,0.01224
2133.66399,0.01344
2132.63373,0.01401
2131.60348,0.01354
2130.57322,0.01328
2129.54296,0.01391
2128.51270,0.01509
2127.48244,0.01624
2126.45219,0.01682
2125.42193,0.01646
2124.39167,0.01520
2123.36141,0.01395
2122.33116,0.01384
2121.30090,0.01486
2120.27064,0.01580
2119.24038,0.01579
2118.21012,0.01543
2117.17987,0.01523
2116.14961,0.01481
2115.11935,0.01491
2114.08909,0.01585
2113.05884,0.01605
2112.02858,0.01541
2110.99832,0.01517
2109.96806,0.01504
2108.93780,0.01452
2107.90755,0.01389
2106.87729,0.01393
2105.84703,0.01478
2104.81677,0.01516
2103.78651,0.01495
2102.75626,0.01557
2101.72600,0.01655
2100.69574,0.01682
2099.66548,0.01682
2098.63523,0.01592
2097.60497,0.01366
2096.57471,0.01241
2095.54445,0.01358
2094.51419,0.01510
2093.48394,0.01519
2092.45368,0.01491
2091.42342,0.01510
2090.39316,0.01510
2089.36290,0.01481
2088.33265,0.01467
2087.30239,0.01454
2086.27213,0.01412
2085.24187,0.01367
2084.21162,0.01377
2083.18136,0.01397
2082.15110,0.01352
2081.12084,0.01312
2080.09058,0.01290
2079.06033,0.01261
2078.03007,0.01282
2076.99981,0.01401
2075.96955,0.01579
2074.93930,0.01621
2073.90904,0.01477
2072.87878,0.01338
2071.84852,0.01246
2070.81826,0.01179
2069.78801,0.01207
2068.75775,0.01244
2067.72749,0.01154
2066.69723,0.01032
2065.66697,0.01021
2064.63672,0.01061
2063.60646,0.01018
2062.57620,0.01018
2061.54594,0.01206
2060.51569,0.01365
2059.48543,0.01308
2058.45517,0.01176
2057.42491,0.01094
2056.39465,0.01075
2055.36440,0.01117
2054.33414,0.01210
2053.30388,0.01280
2052.27362,0.01230
2051.24336,0.01149
2050.21311,0.01132
2049.18285,0.01146
2048.15259,0.01215
2047.12233,0.01307
2046.09208,0.01307
2045.06182,0.01259
2044.03156,0.01255
2043.00130,0.01269
2041.97104,0.01273
2040.94079,0.01234
2039.91053,0.01155
2038.88027,0.01078
2037.85001,0.01040
2036.81975,0.01097
2035.78950,0.01218
2034.75924,0.01223
2033.72898,0.01093
2032.69872,0.01047
2031.66847,0.01105
2030.63821,0.01188
2029.60795,0.01210
2028.57769,0.01109
2027.54743,0.01098
2026.51718,0.01191
2025.48692,0.01116
2024.45666,0.00983
2023.42640,0.01046
2022.39615,0.01203
2021.36589,0.01306
2020.33563,0.01226
2019.30537,0.01002
2018.27511,0.01023
2017.24486,0.01194
2016.21460,0.01084
2015.18434,0.00923
2014.15408,0.00912
2013.12382,0.00818
2012.09357,0.00641
2011.06331,0.00591
2010.03305,0.00764
2009.00279,0.01020
2007.97254,0.01211
2006.94228,0.01273
2005.91202,0.01181
2004.88176,0.01116
2003.85150,0.01176
2002.82125,0.01263
2001.79099,0.01283
2000.76073,0.01225
1999.73047,0.01168
1998.70021,0.01103
1997.66996,0.00956
1996.63970,0.00874
1995.60944,0.00952
1994.57918,0.01066
1993.54893,0.01181
1992.51867,0.01254
1991.48841,0.01337
1990.45815,0.01527
1989.42789,0.01569
1988.39764,0.01415
1987.36738,0.01314
1986.33712,0.01257
1985.30686,0.01167
1984.27660,0.01032
1983.24635,0.00863
1982.21609,0.00757
1981.18583,0.00807
1980.15557,0.00936
1979.12532,0.00898
1978.09506,0.00756
1977.06480,0.00769
1976.03454,0.00953
1975.00428,0.01264
1973.97403,0.01417
1972.94377,0.01256
1971.91351,0.01044
1970.88325,0.00932
1969.85300,0.01001
1968.82274,0.01178
1967.79248,0.01266
1966.76222,0.01241
1965.73196,0.01157
1964.70171,0.01111
1963.67145,0.01166
1962.64119,0.01161
1961.61093,0.01033
1960.58067,0.01015
1959.55042,0.01082
1958.52016,0.01072
1957.48990,0.01123
1956.45964,0.01238
1955.42939,0.01228
1954.39913,0.01149
1953.36887,0.01094
1952.33861,0.01034
1951.30835,0.00976
1950.27810,0.00969
1949.24784,0.01005
1948.21758,0.00979
1947.18732,0.00890
1946.15706,0.00920
1945.12681,0.01133
1944.09655,0.01280
1943.06629,0.01262
1942.03603,0.01174
1941.00578,0.01040
1939.97552,0.00957
1938.94526,0.00987
1937.91500,0.01086
1936.88474,0.01138
1935.85449,0.01079
1934.82423,0.01034
1933.79397,0.01036
1932.76371,0.01039
1931.73345,0.01068
1930.70320,0.01099
1929.67294,0.01136
1928.64268,0.01166
1927.61242,0.01153
1926.58217,0.01135
1925.55191,0.01090
1924.52165,0.01018
1923.49139,0.01002
1922.46113,0.01002
1921.43088,0.00929
1920.40062,0.00889
1919.37036,0.00913
1918.34010,0.00916
1917.30985,0.00913
1916.27959,0.00918
1915.24933,0.00973
1914.21907,0.01070
1913.18881,0.01058
1912.15856,0.00941
1911.12830,0.00877
1910.09804,0.00881
1909.06778,0.00890
1908.03752,0.00871
1907.00727,0.00852
1905.97701,0.00860
1904.94675,0.00857
1903.91649,0.00869
1902.88624,0.00918
1901.85598,0.00941
1900.82572,0.00928
1899.79546,0.00910
1898.76520,0.00909
1897.73495,0.00929
1896.70469,0.00901
1895.67443,0.00839
1894.64417,0.00834
1893.61391,0.00858
1892.58366,0.00876
1891.55340,0.00890
1890.52314,0.00865
1889.49288,0.00822
1888.46263,0.00846
1887.43237,0.00906
1886.40211,0.00938
1885.37185,0.00921
1884.34159,0.00867
1883.31134,0.00864
1882.28108,0.00898
1881.25082,0.00901
1880.22056,0.00880
1879.19030,0.00867
1878.16005,0.00888
1877.12979,0.00949
1876.09953,0.01007
1875.06927,0.01033
1874.03902,0.01025
1873.00876,0.00992
1871.97850,0.00974
1870.94824,0.00991
1869.91798,0.01013
1868.88773,0.01003
1867.85747,0.00950
1866.82721,0.00851
1865.79695,0.00746
1864.76670,0.00724
1863.73644,0.00782
1862.70618,0.00841
1861.67592,0.00856
1860.64566,0.00871
1859.61541,0.00902
1858.58515,0.00903
1857.55489,0.00873
1856.52463,0.00843
1855.49437,0.00835
1854.46412,0.00840
1853.43386,0.00840
1852.40360,0.00855
1851.37334,0.00873
1850.34309,0.00862
1849.31283,0.00864
1848.28257,0.00923
1847.25231,0.00962
1846.22205,0.00938
1845.19180,0.00915
1844.16154,0.00907
1843.13128,0.00871
1842.10102,0.00841
1841.07076,0.00884
1840.04051,0.00958
1839.01025,0.00969
1837.97999,0.00936
1836.94973,0.00940
1835.91948,0.00958
1834.88922,0.00929
1833.85896,0.00895
1832.82870,0.00884
1831.79844,0.00881
1830.76819,0.00883
1829.73793,0.00886
1828.70767,0.00874
1827.67741,0.00850
1826.64715,0.00854
1825.61690,0.00902
1824.58664,0.00961
1823.55638,0.00977
1822.52612,0.00966
1821.49587,0.00956
1820.46561,0.00950
1819.43535,0.00955
1818.40509,0.00982
1817.37483,0.00995
1816.34458,0.00964
1815.31432,0.00958
1814.28406,0.01002
1813.25380,0.01032
1812.22355,0.01056
1811.19329,0.01082
1810.16303,0.01054
1809.13277,0.01009
1808.10251,0.01002
1807.07226,0.01004
1806.04200,0.01003
1805.01174,0.01015
1803.98148,0.01027
1802.95122,0.01036
1801.92097,0.01049
1800.89071,0.01058
1799.86045,0.01070
1798.83019,0.01091
1797.79994,0.01099
1796.76968,0.01104
1795.73942,0.01125
1794.70916,0.01151
1793.67890,0.01175
1792.64865,0.01184
1791.61839,0.01169
1790.58813,0.01170
1789.55787,0.01187
1788.52761,0.01172
1787.49736,0.01139
1786.46710,0.01123
1785.43684,0.01128
1784.40658,0.01144
1783.37633,0.01149
1782.34607,0.01160
1781.31581,0.01204
1780.28555,0.01235
1779.25529,0.01227
1778.22504,0.01225
1777.19478,0.01237
1776.16452,0.01239
1775.13426,0.01249
1774.10400,0.01269
1773.07375,0.01271
1772.04349,0.01263
1771.01323,0.01285
1769.98297,0.01322
1768.95272,0.01355
1767.92246,0.01374
1766.89220,0.01367
1765.86194,0.01365
1764.83168,0.01372
1763.80143,0.01374
1762.77117,0.01379
1761.74091,0.01399
1760.71065,0.01432
1759.68040,0.01469
1758.65014,0.01511
1757.61988,0.01549
1756.58962,0.01563
1755.55936,0.01569
1754.52911,0.01573
1753.49885,0.01575
1752.46859,0.01575
1751.43833,0.01591
1750.40807,0.01648
1749.37782,0.01698
1748.34756,0.01720
1747.31730,0.01739
1746.28704,0.01756
1745.25679,0.01787
1744.22653,0.01824
1743.19627,0.01833
1742.16601,0.01832
1741.13575,0.01856
1740.10550,0.01905
1739.07524,0.01958
1738.04498,0.01999
1737.01472,0.02031
1735.98446,0.02038
1734.95421,0.02020
1733.92395,0.02057
1732.89369,0.02144
1731.86343,0.02177
1730.83318,0.02200
1729.80292,0.02251
1728.77266,0.02304
1727.74240,0.02344
1726.71214,0.02390
1725.68189,0.02446
1724.65163,0.02496
1723.62137,0.02547
1722.59111,0.02610
1721.56085,0.02663
1720.53060,0.02695
1719.50034,0.02727
1718.47008,0.02793
1717.43982,0.02872
1716.40957,0.02905
1715.37931,0.02932
1714.34905,0.02992
1713.31879,0.03076
1712.28853,0.03169
1711.25828,0.03262
1710.22802,0.03352
1709.19776,0.03425
1708.16750,0.03480
1707.13725,0.03551
1706.10699,0.03663
1705.07673,0.03790
1704.04647,0.03893
1703.01621,0.03962
1701.98596,0.04009
1700.95570,0.04065
1699.92544,0.04257
1698.89518,0.04454
1697.86492,0.04560
1696.83467,0.04671
1695.80441,0.04852
1694.77415,0.05035
1693.74389,0.05178
1692.71364,0.05315
1691.68338,0.05452
1690.65312,0.05602
1689.62286,0.05738
1688.59260,0.05867
1687.56235,0.06024
1686.53209,0.06187
1685.50183,0.06345
1684.47157,0.06551
1683.44131,0.06792
1682.41106,0.06971
1681.38080,0.07122
1680.35054,0.07297
1679.32028,0.07508
1678.29003,0.07727
1677.25977,0.07939
1676.22951,0.08124
1675.19925,0.08318
1674.16899,0.08524
1673.13874,0.08698
1672.10848,0.08879
1671.07822,0.09081
1670.04796,0.09288
1669.01771,0.09515
1667.98745,0.09725
1666.95719,0.09890
1665.92693,0.10062
1664.89667,0.10251
1663.86642,0.10442
1662.83616,0.10646
1661.80590,0.10858
1660.77564,0.11045
1659.74538,0.11217
1658.71513,0.11376
1657.68487,0.11521
1656.65461,0.11662
1655.62435,0.11795
1654.59410,0.11901
1653.56384,0.11969
1652.53358,0.12090
1651.50332,0.12279
1650.47306,0.12442
1649.44281,0.12567
1648.41255,0.12655
1647.38229,0.12726
1646.35203,0.12773
1645.32177,0.12785
1644.29152,0.12807
1643.26126,0.12805
1642.23100,0.12782
1641.20074,0.12791
1640.17049,0.12820
1639.14023,0.12824
1638.10997,0.12774
1637.07971,0.12684
1636.04945,0.12547
1635.01920,0.12383
1633.98894,0.12304
1632.95868,0.12221
1631.92842,0.12060
1630.89816,0.11871
1629.86791,0.11711
1628.83765,0.11568
1627.80739,0.11373
1626.77713,0.11153
1625.74688,0.10993
1624.71662,0.10838
1623.68636,0.10583
1622.65610,0.10273
1621.62584,0.10035
1620.59559,0.09816
1619.56533,0.09592
1618.53507,0.09404
1617.50481,0.09212
1616.47456,0.08886
1615.44430,0.08586
1614.41404,0.08400
1613.38378,0.08217
1612.35352,0.08016
1611.32327,0.07812
1610.29301,0.07604
1609.26275,0.07393
1608.23249,0.07215
1607.20223,0.07047
1606.17198,0.06854
1605.14172,0.06660
1604.11146,0.06497
1603.08120,0.06355
1602.05095,0.06221
1601.02069,0.06075
1599.99043,0.05912
1598.96017,0.05769
1597.92991,0.05662
1596.89966,0.05564
1595.86940,0.05450
1594.83914,0.05333
1593.80888,0.05236
1592.77862,0.05165
1591.74837,0.05090
1590.71811,0.05016
1589.68785,0.04953
1588.65759,0.04873
1587.62734,0.04782
1586.59708,0.04699
1585.56682,0.04614
1584.53656,0.04528
1583.50630,0.04456
1582.47605,0.04403
1581.44579,0.04374
1580.41553,0.04341
1579.38527,0.04277
1578.35501,0.04197
1577.32476,0.04114
1576.29450,0.03998
1575.26424,0.03912
1574.23398,0.03900
1573.20373,0.03894
1572.17347,0.03865
1571.14321,0.03823
1570.11295,0.03772
1569.08269,0.03718
1568.05244,0.03704
1567.02218,0.03710
1565.99192,0.03690
1564.96166,0.03641
1563.93141,0.03596
1562.90115,0.03555
1561.87089,0.03527
1560.84063,0.03524
1559.81037,0.03515
1558.78012,0.03472
1557.74986,0.03416
1556.71960,0.03382
1555.68934,0.03380
1554.65908,0.03389
1553.62883,0.03373
1552.59857,0.03327
1551.56831,0.03272
1550.53805,0.03245
1549.50780,0.03258
1548.47754,0.03264
1547.44728,0.03242
1546.41702,0.03216
1545.38676,0.03201
1544.35651,0.03165
1543.32625,0.03114
1542.29599,0.03092
1541.26573,0.03078
1540.23547,0.03021
1539.20522,0.02987
1538.17496,0.03028
1537.14470,0.03063
1536.11444,0.03078
1535.08419,0.03082
1534.05393,0.03073
1533.02367,0.03053
1531.99341,0.03052
1530.96315,0.03055
1529.93290,0.03051
1528.90264,0.03032
1527.87238,0.03003
1526.84212,0.03005
1525.81186,0.03020
1524.78161,0.03003
1523.75135,0.02979
1522.72109,0.02966
1521.69083,0.02965
1520.66058,0.02980
1519.63032,0.02996
1518.60006,0.02997
1517.56980,0.02973
1516.53954,0.02958
1515.50929,0.02984
1514.47903,0.03008
1513.44877,0.03005
1512.41851,0.02977
1511.38826,0.02963
1510.35800,0.02976
1509.32774,0.02990
1508.29748,0.02987
1507.26722,0.02967
1506.23697,0.02973
1505.20671,0.02989
1504.17645,0.02987
1503.14619,0.02998
1502.11593,0.03028
1501.08568,0.03071
1500.05542,0.03104
1499.02516,0.03107
1497.99490,0.03116
1496.96465,0.03164
1495.93439,0.03234
1494.90413,0.03296
1493.87387,0.03361
1492.84361,0.03441
1491.81336,0.03537
1490.78310,0.03644
1489.75284,0.03734
1488.72258,0.03787
1487.69232,0.03830
1486.66207,0.03885
1485.63181,0.03967
1484.60155,0.04082
1483.57129,0.04211
1482.54104,0.04334
1481.51078,0.04482
1480.48052,0.04704
1479.45026,0.04983
1478.42000,0.05279
1477.38975,0.05582
1476.35949,0.05934
1475.32923,0.06279
1474.29897,0.06507
1473.26871,0.06660
1472.23846,0.06766
1471.20820,0.06796
1470.17794,0.06781
1469.14768,0.06757
1468.11743,0.06736
1467.08717,0.06749
1466.05691,0.06789
1465.02665,0.06834
1463.99639,0.06881
1462.96614,0.06923
1461.93588,0.06960
1460.90562,0.07010
1459.87536,0.07084
1458.84511,0.07167
1457.81485,0.07266
1456.78459,0.07388
1455.75433,0.07443
1454.72407,0.07387
1453.69382,0.07267
1452.66356,0.07084
1451.63330,0.06859
1450.60304,0.06653
1449.57278,0.06476
1448.54253,0.06324
1447.51227,0.06203
1446.48201,0.06100
1445.45175,0.05984
1444.42150,0.05864
1443.39124,0.05750
1442.36098,0.05617
1441.33072,0.05456
1440.30046,0.05273
1439.27021,0.05093
1438.23995,0.04955
1437.20969,0.04814
1436.17943,0.04639
1435.14917,0.04535
1434.11892,0.04485
1433.08866,0.04421
1432.05840,0.04351
1431.02814,0.04310
1429.99789,0.04281
1428.96763,0.04253
1427.93737,0.04236
1426.90711,0.04214
1425.87685,0.04196
1424.84660,0.04186
1423.81634,0.04171
1422.78608,0.04147
1421.75582,0.04127
1420.72556,0.04114
1419.69531,0.04090
1418.66505,0.04074
1417.63479,0.04085
1416.60453,0.04088
1415.57428,0.04089
1414.54402,0.04083
1413.51376,0.04064
1412.48350,0.04061
1411.45324,0.04073
1410.42299,0.04071
1409.39273,0.04063
1408.36247,0.04064
1407.33221,0.04072
1406.30196,0.04089
1405.27170,0.04107
1404.24144,0.04101
1403.21118,0.04084
1402.18092,0.04088
1401.15067,0.04109
1400.12041,0.04126
1399.09015,0.04132
1398.05989,0.04126
1397.02963,0.04121
1395.99938,0.04130
1394.96912,0.04154
1393.93886,0.04165
1392.90860,0.04150
1391.87835,0.04137
1390.84809,0.04142
1389.81783,0.04162
1388.78757,0.04184
1387.75731,0.04209
1386.72706,0.04232
1385.69680,0.04245
1384.66654,0.04264
1383.63628,0.04289
1382.60602,0.04311
1381.57577,0.04326
1380.54551,0.04340
1379.51525,0.04366
1378.48499,0.04413
1377.45474,0.04469
1376.42448,0.04531
1375.39422,0.04625
1374.36396,0.04739
1373.33370,0.04819
1372.30345,0.04874
1371.27319,0.04936
1370.24293,0.05011
1369.21267,0.05117
1368.18241,0.05264
1367.15216,0.05431
1366.12190,0.05597
1365.09164,0.05752
1364.06138,0.05918
1363.03113,0.06141
1362.00087,0.06403
1360.97061,0.06690
1359.94035,0.07005
1358.91009,0.07325
1357.87984,0.07648
1356.84958,0.07994
1355.81932,0.08382
1354.78906,0.08796
1353.75881,0.09207
1352.72855,0.09582
1351.69829,0.09906
1350.66803,0.10199
1349.63777,0.10412
1348.60752,0.10408
1347.57726,0.10118
1346.54700,0.09545
1345.51674,0.08725
1344.48648,0.07807
1343.45623,0.06966
1342.42597,0.06300
1341.39571,0.05842
1340.36545,0.05568
1339.33520,0.05412
1338.30494,0.05300
1337.27468,0.05221
1336.24442,0.05198
1335.21416,0.05223
1334.18391,0.05266
1333.15365,0.05312
1332.12339,0.05340
1331.09313,0.05320
1330.06287,0.05270
1329.03262,0.05214
1328.00236,0.05139
1326.97210,0.05041
1325.94184,0.04956
1324.91159,0.04898
1323.88133,0.04844
1322.85107,0.04782
1321.82081,0.04738
1320.79055,0.04748
1319.76030,0.04785
1318.73004,0.04825
1317.69978,0.04897
1316.66952,0.05005
1315.63927,0.05117
1314.60901,0.05234
1313.57875,0.05379
1312.54849,0.05552
1311.51823,0.05723
1310.48798,0.05894
1309.45772,0.06088
1308.42746,0.06302
1307.39720,0.06500
1306.36694,0.06663
1305.33669,0.06807
1304.30643,0.06931
1303.27617,0.07025
1302.24591,0.07089
1301.21566,0.07128
1300.18540,0.07152
1299.15514,0.07173
1298.12488,0.07194
1297.09462,0.07206
1296.06437,0.07210
1295.03411,0.07222
1294.00385,0.07230
1292.97359,0.07217
1291.94333,0.07194
1290.91308,0.07179
1289.88282,0.07184
1288.85256,0.07195
1287.82230,0.07187
1286.79205,0.07154
1285.76179,0.07099
1284.73153,0.07023
1283.70127,0.06932
1282.67101,0.06849
1281.64076,0.06761
1280.61050,0.06638
1279.58024,0.06511
1278.54998,0.06400
1277.51972,0.06280
1276.48947,0.06168
1275.45921,0.06076
1274.42895,0.06002
1273.39869,0.05947
1272.36844,0.05884
1271.33818,0.05827
1270.30792,0.05809
1269.27766,0.05824
1268.24740,0.05860
1267.21715,0.05913
1266.18689,0.05998
1265.15663,0.06140
1264.12637,0.06326
1263.09612,0.06502
1262.06586,0.06662
1261.03560,0.06845
1260.00534,0.07062
1258.97508,0.07271
1257.94483,0.07453
1256.91457,0.07641
1255.88431,0.07824
1254.85405,0.07979
1253.82379,0.08120
1252.79354,0.08241
1251.76328,0.08322
1250.73302,0.08360
1249.70276,0.08340
1248.67251,0.08250
1247.64225,0.08108
1246.61199,0.07947
1245.58173,0.07790
1244.55147,0.07617
1243.52122,0.07411
1242.49096,0.07200
1241.46070,0.07001
1240.43044,0.06809
1239.40018,0.06634
1238.36993,0.06464
1237.33967,0.06290
1236.30941,0.06124
1235.27915,0.05964
1234.24890,0.05799
1233.21864,0.05636
1232.18838,0.05486
1231.15812,0.05343
1230.12786,0.05203
1229.09761,0.05078
1228.06735,0.04981
1227.03709,0.04889
1226.00683,0.04800
1224.97657,0.04731
1223.94632,0.04669
1222.91606,0.04604
1221.88580,0.04553
1220.85554,0.04516
1219.82529,0.04458
1218.79503,0.04395
1217.76477,0.04364
1216.73451,0.04337
1215.70425,0.04291
1214.67400,0.04248
1213.64374,0.04226
1212.61348,0.04202
1211.58322,0.04143
1210.55297,0.04083
1209.52271,0.04069
1208.49245,0.04071
1207.46219,0.04051
1206.43193,0.04024
1205.40168,0.04010
1204.37142,0.03997
1203.34116,0.03978
1202.31090,0.03966
1201.28064,0.03967
1200.25039,0.03976
1199.22013,0.03993
1198.18987,0.04001
1197.15961,0.03988
1196.12936,0.03980
1195.09910,0.03998
1194.06884,0.04025
1193.03858,0.04034
1192.00832,0.04030
1190.97807,0.04016
1189.94781,0.03996
1188.91755,0.03993
1187.88729,0.04013
1186.85703,0.04043
1185.82678,0.04074
1184.79652,0.04105
1183.76626,0.04125
1182.73600,0.04144
1181.70575,0.04186
1180.67549,0.04227
1179.64523,0.04249
1178.61497,0.04275
1177.58471,0.04313
1176.55446,0.04339
1175.52420,0.04368
1174.49394,0.04422
1173.46368,0.04475
1172.43342,0.04518
1171.40317,0.04586
1170.37291,0.04674
1169.34265,0.04776
1168.31239,0.04886
1167.28214,0.04985
1166.25188,0.05092
1165.22162,0.05222
1164.19136,0.05373
1163.16110,0.05558
1162.13085,0.05789
1161.10059,0.06032
1160.07033,0.06279
1159.04007,0.06565
1158.00982,0.06875
1156.97956,0.07200
1155.94930,0.07589
1154.91904,0.08045
1153.88878,0.08531
1152.85853,0.09033
1151.82827,0.09532
1150.79801,0.10029
1149.76775,0.10554
1148.73749,0.11087
1147.70724,0.11611
1146.67698,0.12145
1145.64672,0.12667
1144.61646,0.13168
1143.58621,0.13648
1142.55595,0.14087
1141.52569,0.14492
1140.49543,0.14909
1139.46517,0.15327
1138.43492,0.15698
1137.40466,0.16035
1136.37440,0.16352
1135.34414,0.16628
1134.31388,0.16888
1133.28363,0.17136
1132.25337,0.17341
1131.22311,0.17553
1130.19285,0.17811
1129.16260,0.18080
1128.13234,0.18366
1127.10208,0.18689
1126.07182,0.19005
1125.04156,0.19299
1124.01131,0.19629
1122.98105,0.20040
1121.95079,0.20514
1120.92053,0.21003
1119.89027,0.21465
1118.86002,0.21895
1117.82976,0.22318
1116.79950,0.22759
1115.76924,0.23241
1114.73899,0.23725
1113.70873,0.24163
1112.67847,0.24602
1111.64821,0.25080
1110.61795,0.25585
1109.58770,0.26087
1108.55744,0.26587
1107.52718,0.27111
1106.49692,0.27681
1105.46667,0.28277
1104.43641,0.28820
1103.40615,0.29309
1102.37589,0.29814
1101.34563,0.30353
1100.31538,0.30906
1099.28512,0.31444
1098.25486,0.31970
1097.22460,0.32490
1096.19434,0.32951
1095.16409,0.33334
1094.13383,0.33703
1093.10357,0.34099
1092.07331,0.34456
1091.04306,0.34730
1090.01280,0.34971
1088.98254,0.35234
1087.95228,0.35510
1086.92202,0.35727
1085.89177,0.35864
1084.86151,0.35946
1083.83125,0.35995
1082.80099,0.36041
1081.77073,0.36074
1080.74048,0.35999
1079.71022,0.35797
1078.67996,0.35574
1077.64970,0.35385
1076.61945,0.35191
1075.58919,0.34956
1074.55893,0.34686
1073.52867,0.34408
1072.49841,0.34147
1071.46816,0.33852
1070.43790,0.33451
1069.40764,0.33001
1068.37738,0.32573
1067.34712,0.32123
1066.31687,0.31621
1065.28661,0.31044
1064.25635,0.30373
1063.22609,0.29658
1062.19584,0.28927
1061.16558,0.28130
1060.13532,0.27214
1059.10506,0.26236
1058.07480,0.25295
1057.04455,0.24366
1056.01429,0.23368
1054.98403,0.22335
1053.95377,0.21366
1052.92352,0.20478
1051.89326,0.19630
1050.86300,0.18836
1049.83274,0.18120
1048.80248,0.17477
1047.77223,0.16936
1046.74197,0.16494
1045.71171,0.16138
1044.68145,0.15871
1043.65119,0.15654
1042.62094,0.15484
1041.59068,0.15344
1040.56042,0.15182
1039.53016,0.15035
1038.49991,0.14947
1037.46965,0.14891
1036.43939,0.14815
1035.40913,0.14706
1034.37887,0.14591
1033.34862,0.14463
1032.31836,0.14310
1031.28810,0.14114
1030.25784,0.13862
1029.22758,0.13600
1028.19733,0.13353
1027.16707,0.13061
1026.13681,0.12728
1025.10655,0.12408
1024.07630,0.12085
1023.04604,0.11743
1022.01578,0.11396
1020.98552,0.11034
1019.95526,0.10651
1018.92501,0.10279
1017.89475,0.09959
1016.86449,0.09691
1015.83423,0.09440
1014.80397,0.09187
1013.77372,0.08948
1012.74346,0.08741
1011.71320,0.08555
1010.68294,0.08380
1009.65269,0.08238
1008.62243,0.08114
1007.59217,0.07983
1006.56191,0.07865
1005.53165,0.07776
1004.50140,0.07713
1003.47114,0.07669
1002.44088,0.07640
1001.41062,0.07604
1000.38037,0.07535
999.35011,0.07476
998.31985,0.07459
997.28959,0.07440
996.25933,0.07374
995.22908,0.07321
994.19882,0.07323
993.16856,0.07342
992.13830,0.07327
991.10804,0.07256
990.07779,0.07178
989.04753,0.07149
988.01727,0.07159
986.98701,0.07139
985.95676,0.07072
984.92650,0.07013
983.89624,0.06990
982.86598,0.06977
981.83572,0.06942
980.80547,0.06890
979.77521,0.06822
978.74495,0.06742
977.71469,0.06718
976.68443,0.06759
975.65418,0.06774
974.62392,0.06758
973.59366,0.06780
972.56340,0.06851
971.53315,0.06948
970.50289,0.07064
969.47263,0.07177
968.44237,0.07284
967.41211,0.07432
966.38186,0.07641
965.35160,0.07904
964.32134,0.08208
963.29108,0.08556
962.26082,0.08980
961.23057,0.09459
960.20031,0.09940
959.17005,0.10442
958.13979,0.11003
957.10954,0.11621
956.07928,0.12254
955.04902,0.12850
954.01876,0.13414
952.98850,0.13953
951.95825,0.14425
950.92799,0.14806
949.89773,0.15094
948.86747,0.15333
947.83722,0.15540
946.80696,0.15639
945.77670,0.15607
944.74644,0.15526
943.71618,0.15425
942.68593,0.15264
941.65567,0.15055
940.62541,0.14815
939.59515,0.14585
938.56489,0.14403
937.53464,0.14214
936.50438,0.13985
935.47412,0.13754
934.44386,0.13547
933.41361,0.13345
932.38335,0.13112
931.35309,0.12860
930.32283,0.12629
929.29257,0.12418
928.26232,0.12222
927.23206,0.12047
926.20180,0.11887
925.17154,0.11738
924.14128,0.11612
923.11103,0.11510
922.08077,0.11410
921.05051,0.11281
920.02025,0.11145
918.99000,0.11042
917.95974,0.10969
916.92948,0.10883
915.89922,0.10779
914.86896,0.10679
913.83871,0.10572
912.80845,0.10469
911.77819,0.10374
910.74793,0.10241
909.71768,0.10092
908.68742,0.09978
907.65716,0.09870
906.62690,0.09753
905.59664,0.09676
904.56639,0.09648
903.53613,0.09630
902.50587,0.09578
901.47561,0.09509
900.44535,0.09477
899.41510,0.09482
898.38484,0.09513
897.35458,0.09583
896.32432,0.09692
895.29407,0.09840
894.26381,0.09979
893.23355,0.10089
892.20329,0.10244
891.17303,0.10436
890.14278,0.10598
889.11252,0.10738
888.08226,0.10910
887.05200,0.11099
886.02174,0.11213
884.99149,0.11228
883.96123,0.11212
882.93097,0.11201
881.90071,0.11168
880.87046,0.11123
879.84020,0.11099
878.80994,0.11063
877.77968,0.11013
876.74942,0.11039
875.71917,0.11141
874.68891,0.11222
873.65865,0.11223
872.62839,0.11212
871.59813,0.11286
870.56788,0.11389
869.53762,0.11473
868.50736,0.11576
867.47710,0.11667
866.44685,0.11699
865.41659,0.11748
864.38633,0.11867
863.35607,0.11998
862.32581,0.12101
861.29556,0.12218
860.26530,0.12358
859.23504,0.12491
858.20478,0.12624
857.17453,0.12781
856.14427,0.12995
855.11401,0.13244
854.08375,0.13456
853.05349,0.13620
852.02324,0.13789
850.99298,0.14020
849.96272,0.14279
848.93246,0.14504
847.90220,0.14690
846.87195,0.14855
845.84169,0.15011
844.81143,0.15180
843.78117,0.15366
842.75092,0.15541
841.72066,0.15712
840.69040,0.15886
839.66014,0.16012
838.62988,0.16092
837.59963,0.16206
836.56937,0.16367
835.53911,0.16502
834.50885,0.16587
833.47859,0.16676
832.44834,0.16730
831.41808,0.16690
830.38782,0.16648
829.35756,0.16658
828.32731,0.16659
827.29705,0.16675
826.26679,0.16734
825.23653,0.16760
824.20627,0.16736
823.17602,0.16754
822.14576,0.16828
821.11550,0.16851
820.08524,0.16796
819.05498,0.16749
818.02473,0.16769
816.99447,0.16869
815.96421,0.17021
814.93395,0.17148
813.90370,0.17205
812.87344,0.17214
811.84318,0.17229
810.81292,0.17277
809.78266,0.17309
808.75241,0.17323
807.72215,0.17433
806.69189,0.17634
805.66163,0.17761
804.63138,0.17783
803.60112,0.17819
802.57086,0.17888
801.54060,0.17938
800.51034,0.17992
799.48009,0.18067
798.44983,0.18159
797.41957,0.18247
796.38931,0.18291
795.35905,0.18332
794.32880,0.18419
793.29854,0.18529
792.26828,0.18635
791.23802,0.18733
790.20777,0.18801
789.17751,0.18851
788.14725,0.18945
787.11699,0.19064
786.08673,0.19155
785.05648,0.19252
784.02622,0.19407
782.99596,0.19567
781.96570,0.19654
780.93544,0.19713
779.90519,0.19828
778.87493,0.19973
777.84467,0.20083
776.81441,0.20166
775.78416,0.20297
774.75390,0.20457
773.72364,0.20544
772.69338,0.20591
771.66312,0.20640
770.63287,0.20701
769.60261,0.20833
768.57235,0.20987
767.54209,0.21079
766.51183,0.21187
765.48158,0.21379
764.45132,0.21588
763.42106,0.21753
762.39080,0.21900
761.36055,0.22041
760.33029,0.22156
759.30003,0.22259
758.26977,0.22371
757.23951,0.22510
756.20926,0.22640
755.17900,0.22724
754.14874,0.22805
753.11848,0.22909
752.08823,0.23007
751.05797,0.23158
750.02771,0.23424
748.99745,0.23700
747.96719,0.23893
746.93694,0.23986
745.90668,0.23996
744.87642,0.24051
743.84616,0.24185
742.81590,0.24319
741.78565,0.24469
740.75539,0.24602
739.72513,0.24690
738.69487,0.24848
737.66462,0.25047
736.63436,0.25187
735.60410,0.25311
734.57384,0.25461
733.54358,0.25647
732.51333,0.25836
731.48307,0.25952
730.45281,0.25997
729.42255,0.26026
728.39229,0.26128
727.36204,0.26346
726.33178,0.26543
725.30152,0.26595
724.27126,0.26615
723.24101,0.26772
722.21075,0.27033
721.18049,0.27264
720.15023,0.27422
719.11997,0.27541
718.08972,0.27650
717.05946,0.27771
716.02920,0.27910
714.99894,0.28033
713.96868,0.28133
712.93843,0.28240
711.90817,0.28368
710.87791,0.28525
709.84765,0.28680
708.81740,0.28781
707.78714,0.28857
706.75688,0.28994
705.72662,0.29212
704.69636,0.29459
703.66611,0.29626
702.63585,0.29686
701.60559,0.29773
700.57533,0.29918
699.54508,0.30042
698.51482,0.30155
697.48456,0.30292
696.45430,0.30363
695.42404,0.30390
694.39379,0.30497
693.36353,0.30616
692.33327,0.30737
691.30301,0.30929
690.27275,0.31161
689.24250,0.31380
688.21224,0.31531
687.18198,0.31622
686.15172,0.31695
685.12147,0.31745
684.09121,0.31783
683.06095,0.31872
682.03069,0.31993
681.00043,0.32064
679.97018,0.32127
678.93992,0.32296
677.90966,0.32545
676.87940,0.32776
675.84914,0.32883
674.81889,0.32861
673.78863,0.32850
672.75837,0.32909
671.72811,0.33010
670.69786,0.33163
669.66760,0.33419
668.63734,0.33682
667.60708,0.33753
666.57682,0.33872
665.54657,0.33997
664.51631,0.34066
663.48605,0.34221
662.45579,0.34429
661.42553,0.34535
660.39528,0.34586
659.36502,0.34633
658.33476,0.34669
657.30450,0.34666
656.27425,0.34659
655.24399,0.34770
654.21373,0.34961
653.18347,0.35082
652.15321,0.35153
651.12296,0.35281
650.09270,0.35431
649.06244,0.35529
648.03218,0.35634
647.00193,0.35785
645.97167,0.35923
644.94141,0.36032
643.91115,0.36081
642.88089,0.36091
641.85064,0.36144
640.82038,0.36183
639.79012,0.36209
638.75986,0.36321
637.72960,0.36488
636.69935,0.36611
635.66909,0.36660
634.63883,0.36713
633.60857,0.36807
632.57832,0.36873
631.54806,0.36977
630.51780,0.37247
629.48754,0.37488
628.45728,0.37445
627.42703,0.37333
626.39677,0.37391
625.36651,0.37570
624.33625,0.37742
623.30599,0.37807
622.27574,0.37832
621.24548,0.37898
620.21522,0.37981
619.18496,0.38038
618.15471,0.38088
617.12445,0.38169
616.09419,0.38291
615.06393,0.38355
614.03367,0.38353
613.00342,0.38445
611.97316,0.38554
610.94290,0.38576
609.91264,0.38641
608.88238,0.38758
607.85213,0.38845
606.82187,0.38893
605.79161,0.38945
604.76135,0.39122
603.73110,0.39339
602.70084,0.39360
601.67058,0.39329
600.64032,0.39473
599.61006,0.39545
598.57981,0.39417
597.54955,0.39421
596.51929,0.39570
595.48903,0.39679
594.45878,0.39840
593.42852,0.40047
592.39826,0.40141
591.36800,0.40186
590.33774,0.40266
589.30749,0.40401
588.27723,0.40565
587.24697,0.40621
586.21671,0.40656
585.18645,0.40755
584.15620,0.40926
583.12594,0.41187
582.09568,0.41357
581.06542,0.41273
580.03517,0.41116
579.00491,0.41179
577.97465,0.41275
576.94439,0.41196
575.91413,0.41140
574.88388,0.41266
573.85362,0.41549
572.82336,0.41808
571.79310,0.41826
570.76284,0.41627
569.73259,0.41459
568.70233,0.41564
567.67207,0.41837
566.64181,0.42044
565.61156,0.42136
564.58130,0.42089
563.55104,0.41987
562.52078,0.42023
561.49052,0.42201
560.46027,0.42397
559.43001,0.42586
558.39975,0.42780
557.36949,0.42913
556.33924,0.42993
555.30898,0.43125
554.27872,0.43195
553.24846,0.43096
552.21820,0.43129
551.18795,0.43420
550.15769,0.43512
549.12743,0.43214
548.09717,0.42924
547.06691,0.42904
546.03666,0.43066
545.00640,0.43164
543.97614,0.43095
542.94588,0.43107
541.91563,0.43296
540.88537,0.43428
539.85511,0.43557
538.82485,0.43829
537.79459,0.44082
536.76434,0.44148
535.73408,0.44243
534.70382,0.44585
533.67356,0.44574
532.64330,0.43995
531.61305,0.43622
530.58279,0.43644
529.55253,0.43957
528.52227,0.44492
527.49202,0.44654
526.46176,0.44444
525.43150,0.44397
524.40124,0.44459
523.37098,0.44558
522.34073,0.44696
521.31047,0.44734
520.28021,0.44733
519.24995,0.44821
518.21969,0.44826
517.18944,0.44738
516.15918,0.44760
515.12892,0.44812
514.09866,0.44829
513.06841,0.44866
512.03815,0.44927
511.00789,0.44865
509.97763,0.44696
508.94737,0.44580
507.91712,0.44450
506.88686,0.44366
505.85660,0.44580
504.82634,0.44957
503.79609,0.45081
502.76583,0.45132
501.73557,0.45536
500.70531,0.45733
499.67505,0.45247
498.64480,0.44711
497.61454,0.44646
496.58428,0.44792
495.55402,0.44930
494.52376,0.45074
493.49351,0.45089
492.46325,0.45033
491.43299,0.45147
490.40273,0.45313
489.37248,0.45115
488.34222,0.44595
487.31196,0.44319
486.28170,0.44541
485.25144,0.45076
484.22119,0.45413
483.19093,0.45165
482.16067,0.44711
481.13041,0.44541
480.10015,0.44645
479.06990,0.44844
478.03964,0.44894
477.00938,0.44833
475.97912,0.45059
474.94887,0.45132
473.91861,0.44481
472.88835,0.43757
471.85809,0.43937
470.82783,0.44524
469.79758,0.44475
468.76732,0.44113
467.73706,0.44085
466.70680,0.44234
465.67654,0.44363
464.64629,0.44334
463.61603,0.44188
462.58577,0.44243
461.55551,0.44674
460.52526,0.45160
459.49500,0.45043
458.46474,0.44414
457.43448,0.44012
456.40422,0.44328
455.37397,0.45058
454.34371,0.45395
453.31345,0.45021
452.28319,0.44669
451.25294,0.44340
450.22268,0.43707
449.19242,0.43392
448.16216,0.43752
447.13190,0.44398
446.10165,0.44649
445.07139,0.44363
444.04113,0.44153
443.01087,0.44384
441.98061,0.44737
440.95036,0.44822
439.92010,0.44673
438.88984,0.44303
437.85958,0.43950
436.82933,0.44010
435.79907,0.44481
434.76881,0.44862
433.73855,0.44581
432.70829,0.43886
431.67804,0.43427
430.64778,0.43534
429.61752,0.44010
428.58726,0.44049
427.55700,0.43583
426.52675,0.43501
425.49649,0.44004
424.46623,0.44624
423.43597,0.44825
422.40572,0.44443
421.37546,0.44183
420.34520,0.44293
419.31494,0.44867
418.28468,0.45713
417.25443,0.45614
416.22417,0.44770
415.19391,0.43667
414.16365,0.43006
413.13339,0.43252
412.10314,0.43640
411.07288,0.43660
410.04262,0.43714
409.01236,0.43937
407.98211,0.43843
406.95185,0.43571
405.92159,0.43570
404.89133,0.43882
403.86107,0.44147
402.83082,0.43548
401.80056,0.42922
400.77030,0.43125
399.74004,0.43136
