4998.81105,0.00151
4997.78079,0.00170
4996.75054,0.00169
4995.72028,0.00203
4994.69002,0.00216
4993.65976,0.00207
4992.62951,0.00212
4991.59925,0.00284
4990.56899,0.00365
4989.53873,0.00336
4988.50847,0.00246
4987.47822,0.00144
4986.44796,0.00047
4985.41770,0.00035
4984.38744,0.00131
4983.35718,0.00287
4982.32693,0.00423
4981.29667,0.00427
4980.26641,0.00363
4979.23615,0.00323
4978.20590,0.00298
4977.17564,0.00272
4976.14538,0.00201
4975.11512,0.00168
4974.08486,0.00224
4973.05461,0.00242
4972.02435,0.00202
4970.99409,0.00188
4969.96383,0.00168
4968.93357,0.00158
4967.90332,0.00221
4966.87306,0.00239
4965.84280,0.00197
4964.81254,0.00202
4963.78229,0.00226
4962.75203,0.00218
4961.72177,0.00178
4960.69151,0.00178
4959.66125,0.00260
4958.63100,0.00354
4957.60074,0.00385
4956.57048,0.00348
4955.54022,0.00316
4954.50997,0.00313
4953.47971,0.00284
4952.44945,0.00241
4951.41919,0.00240
4950.38893,0.00277
4949.35868,0.00330
4948.32842,0.00376
4947.29816,0.00354
4946.26790,0.00267
4945.23764,0.00188
4944.20739,0.00169
4943.17713,0.00220
4942.14687,0.00301
4941.11661,0.00386
4940.08636,0.00420
4939.05610,0.00361
4938.02584,0.00282
4936.99558,0.00206
4935.96532,0.00151
4934.93507,0.00149
4933.90481,0.00172
4932.87455,0.00217
4931.84429,0.00225
4930.81403,0.00134
4929.78378,0.00041
4928.75352,0.00072
4927.72326,0.00215
4926.69300,0.00298
4925.66275,0.00260
4924.63249,0.00256
4923.60223,0.00272
4922.57197,0.00221
4921.54171,0.00232
4920.51146,0.00296
4919.48120,0.00246
4918.45094,0.00158
4917.42068,0.00146
4916.39042,0.00191
4915.36017,0.00270
4914.32991,0.00286
4913.29965,0.00211
4912.26939,0.00136
4911.23914,0.00142
4910.20888,0.00218
4909.17862,0.00275
4908.14836,0.00322
4907.11810,0.00371
4906.08785,0.00364
4905.05759,0.00372
4904.02733,0.00387
4902.99707,0.00241
4901.96682,0.00101
4900.93656,0.00169
4899.90630,0.00309
4898.87604,0.00398
4897.84578,0.00365
4896.81553,0.00223
4895.78527,0.00125
4894.75501,0.00182
4893.72475,0.00314
4892.69449,0.00364
4891.66424,0.00348
4890.63398,0.00351
4889.60372,0.00344
4888.57346,0.00282
4887.54321,0.00205
4886.51295,0.00210
4885.48269,0.00268
4884.45243,0.00306
4883.42217,0.00296
4882.39192,0.00226
4881.36166,0.00224
4880.33140,0.00270
4879.30114,0.00221
4878.27088,0.00192
4877.24063,0.00256
4876.21037,0.00284
4875.18011,0.00258
4874.14985,0.00279
4873.11960,0.00322
4872.08934,0.00299
4871.05908,0.00255
4870.02882,0.00260
4868.99856,0.00317
4867.96831,0.00370
4866.93805,0.00370
4865.90779,0.00377
4864.87753,0.00395
4863.84727,0.00324
4862.81702,0.00202
4861.78676,0.00165
4860.75650,0.00201
4859.72624,0.00196
4858.69599,0.00136
4857.66573,0.00099
4856.63547,0.00118
4855.60521,0.00136
4854.57495,0.00103
4853.54470,0.00043
4852.51444,0.00029
4851.48418,0.00119
4850.45392,0.00245
4849.42367,0.00290
4848.39341,0.00238
4847.36315,0.00142
4846.33289,0.00102
4845.30263,0.00175
4844.27238,0.00286
4843.24212,0.00329
4842.21186,0.00302
4841.18160,0.00304
4840.15134,0.00367
4839.12109,0.00389
4838.09083,0.00310
4837.06057,0.00231
4836.03031,0.00233
4835.00006,0.00237
4833.96980,0.00186
4832.93954,0.00177
4831.90928,0.00212
4830.87902,0.00162
4829.84877,0.00098
4828.81851,0.00107
4827.78825,0.00137
4826.75799,0.00153
4825.72773,0.00139
4824.69748,0.00136
4823.66722,0.00176
4822.63696,0.00209
4821.60670,0.00227
4820.57645,0.00263
4819.54619,0.00310
4818.51593,0.00349
4817.48567,0.00347
4816.45541,0.00264
4815.42516,0.00165
4814.39490,0.00165
4813.36464,0.00222
4812.33438,0.00230
4811.30412,0.00225
4810.27387,0.00235
4809.24361,0.00264
4808.21335,0.00286
4807.18309,0.00220
4806.15284,0.00152
4805.12258,0.00190
4804.09232,0.00245
4803.06206,0.00233
4802.03180,0.00179
4801.00155,0.00196
4799.97129,0.00286
4798.94103,0.00340
4797.91077,0.00367
4796.88052,0.00343
4795.85026,0.00279
4794.82000,0.00255
4793.78974,0.00241
4792.75948,0.00192
4791.72923,0.00167
4790.69897,0.00219
4789.66871,0.00266
4788.63845,0.00250
4787.60819,0.00217
4786.57794,0.00183
4785.54768,0.00173
4784.51742,0.00213
4783.48716,0.00215
4782.45691,0.00166
4781.42665,0.00183
4780.39639,0.00239
4779.36613,0.00269
4778.33587,0.00288
4777.30562,0.00267
4776.27536,0.00205
4775.24510,0.00148
4774.21484,0.00121
4773.18458,0.00149
4772.15433,0.00205
4771.12407,0.00231
4770.09381,0.00222
4769.06355,0.00214
4768.03330,0.00225
4767.00304,0.00225
4765.97278,0.00206
4764.94252,0.00208
4763.91226,0.00205
4762.88201,0.00179
4761.85175,0.00172
4760.82149,0.00147
4759.79123,0.00112
4758.76098,0.00159
4757.73072,0.00263
4756.70046,0.00357
4755.67020,0.00374
4754.63994,0.00338
4753.60969,0.00320
4752.57943,0.00297
4751.54917,0.00291
4750.51891,0.00334
4749.48865,0.00373
4748.45840,0.00363
4747.42814,0.00358
4746.39788,0.00402
4745.36762,0.00404
4744.33737,0.00269
4743.30711,0.00086
4742.27685,0.00019
4741.24659,0.00080
4740.21633,0.00128
4739.18608,0.00140
4738.15582,0.00192
4737.12556,0.00228
4736.09530,0.00203
4735.06504,0.00155
4734.03479,0.00118
4733.00453,0.00158
4731.97427,0.00241
4730.94401,0.00243
4729.91376,0.00202
4728.88350,0.00215
4727.85324,0.00242
4726.82298,0.00227
4725.79272,0.00210
4724.76247,0.00205
4723.73221,0.00158
4722.70195,0.00098
4721.67169,0.00080
4720.64143,0.00132
4719.61118,0.00250
4718.58092,0.00294
4717.55066,0.00207
4716.52040,0.00121
4715.49015,0.00135
4714.45989,0.00203
4713.42963,0.00251
4712.39937,0.00283
4711.36911,0.00279
4710.33886,0.00247
4709.30860,0.00274
4708.27834,0.00291
4707.24808,0.00185
4706.21783,0.00089
4705.18757,0.00128
4704.15731,0.00224
4703.12705,0.00248
4702.09679,0.00183
4701.06654,0.00117
4700.03628,0.00097
4699.00602,0.00143
4697.97576,0.00242
4696.94550,0.00267
4695.91525,0.00172
4694.88499,0.00124
4693.85473,0.00205
4692.82447,0.00278
4691.79422,0.00242
4690.76396,0.00165
4689.73370,0.00157
4688.70344,0.00246
4687.67318,0.00336
4686.64293,0.00341
4685.61267,0.00296
4684.58241,0.00275
4683.55215,0.00275
4682.52189,0.00216
4681.49164,0.00119
4680.46138,0.00094
4679.43112,0.00140
4678.40086,0.00162
4677.37061,0.00179
4676.34035,0.00247
4675.31009,0.00281
4674.27983,0.00248
4673.24957,0.00250
4672.21932,0.00316
4671.18906,0.00343
4670.15880,0.00307
4669.12854,0.00263
4668.09828,0.00238
4667.06803,0.00261
4666.03777,0.00320
4665.00751,0.00334
4663.97725,0.00321
4662.94700,0.00368
4661.91674,0.00412
4660.88648,0.00386
4659.85622,0.00349
4658.82596,0.00311
4657.79571,0.00213
4656.76545,0.00127
4655.73519,0.00148
4654.70493,0.00231
4653.67468,0.00286
4652.64442,0.00288
4651.61416,0.00273
4650.58390,0.00272
4649.55364,0.00303
4648.52339,0.00302
4647.49313,0.00234
4646.46287,0.00191
4645.43261,0.00167
4644.40235,0.00087
4643.37210,0.00006
4642.34184,0.00008
4641.31158,0.00064
4640.28132,0.00124
4639.25107,0.00234
4638.22081,0.00380
4637.19055,0.00408
4636.16029,0.00270
4635.13003,0.00121
4634.09978,0.00103
4633.06952,0.00150
4632.03926,0.00169
4631.00900,0.00195
4629.97874,0.00252
4628.94849,0.00310
4627.91823,0.00344
4626.88797,0.00355
4625.85771,0.00327
4624.82746,0.00304
4623.79720,0.00357
4622.76694,0.00439
4621.73668,0.00440
4620.70642,0.00395
4619.67617,0.00375
4618.64591,0.00342
4617.61565,0.00298
4616.58539,0.00285
4615.55513,0.00267
4614.52488,0.00188
4613.49462,0.00124
4612.46436,0.00177
4611.43410,0.00262
4610.40385,0.00285
4609.37359,0.00274
4608.34333,0.00276
4607.31307,0.00307
4606.28281,0.00322
4605.25256,0.00259
4604.22230,0.00168
4603.19204,0.00160
4602.16178,0.00210
4601.13153,0.00224
4600.10127,0.00218
4599.07101,0.00212
4598.04075,0.00188
4597.01049,0.00207
4595.98024,0.00245
4594.94998,0.00235
4593.91972,0.00227
4592.88946,0.00209
4591.85920,0.00153
4590.82895,0.00148
4589.79869,0.00214
4588.76843,0.00269
4587.73817,0.00283
4586.70792,0.00282
4585.67766,0.00247
4584.64740,0.00181
4583.61714,0.00154
4582.58688,0.00133
4581.55663,0.00063
4580.52637,0.00033
4579.49611,0.00095
4578.46585,0.00179
4577.43559,0.00236
4576.40534,0.00261
4575.37508,0.00291
4574.34482,0.00316
4573.31456,0.00263
4572.28431,0.00174
4571.25405,0.00148
4570.22379,0.00187
4569.19353,0.00227
4568.16327,0.00219
4567.13302,0.00210
4566.10276,0.00258
4565.07250,0.00323
4564.04224,0.00358
4563.01198,0.00355
4561.98173,0.00297
4560.95147,0.00222
4559.92121,0.00200
4558.89095,0.00207
4557.86070,0.00180
4556.83044,0.00151
4555.80018,0.00161
4554.76992,0.00184
4553.73966,0.00229
4552.70941,0.00252
4551.67915,0.00232
4550.64889,0.00220
4549.61863,0.00220
4548.58838,0.00204
4547.55812,0.00166
4546.52786,0.00177
4545.49760,0.00260
4544.46734,0.00327
4543.43709,0.00333
4542.40683,0.00274
4541.37657,0.00194
4540.34631,0.00202
4539.31605,0.00283
4538.28580,0.00341
4537.25554,0.00335
4536.22528,0.00281
4535.19502,0.00275
4534.16477,0.00313
4533.13451,0.00302
4532.10425,0.00289
4531.07399,0.00316
4530.04373,0.00281
4529.01348,0.00200
4527.98322,0.00183
4526.95296,0.00219
4525.92270,0.00265
4524.89244,0.00301
4523.86219,0.00317
4522.83193,0.00317
4521.80167,0.00313
4520.77141,0.00286
4519.74116,0.00232
4518.71090,0.00204
4517.68064,0.00229
4516.65038,0.00232
4515.62012,0.00194
4514.58987,0.00208
4513.55961,0.00255
4512.52935,0.00294
4511.49909,0.00348
4510.46883,0.00365
4509.43858,0.00322
4508.40832,0.00276
4507.37806,0.00282
4506.34780,0.00321
4505.31755,0.00300
4504.28729,0.00231
4503.25703,0.00178
4502.22677,0.00157
4501.19651,0.00151
4500.16626,0.00126
4499.13600,0.00105
4498.10574,0.00113
4497.07548,0.00131
4496.04523,0.00157
4495.01497,0.00154
4493.98471,0.00130
4492.95445,0.00148
4491.92419,0.00194
4490.89394,0.00223
4489.86368,0.00211
4488.83342,0.00188
4487.80316,0.00193
4486.77290,0.00174
4485.74265,0.00136
4484.71239,0.00177
4483.68213,0.00282
4482.65187,0.00371
4481.62162,0.00375
4480.59136,0.00269
4479.56110,0.00164
4478.53084,0.00156
4477.50058,0.00193
4476.47033,0.00210
4475.44007,0.00199
4474.40981,0.00163
4473.37955,0.00147
4472.34929,0.00173
4471.31904,0.00194
4470.28878,0.00197
4469.25852,0.00172
4468.22826,0.00147
4467.19801,0.00191
4466.16775,0.00261
4465.13749,0.00249
4464.10723,0.00213
4463.07697,0.00258
4462.04672,0.00308
4461.01646,0.00308
4459.98620,0.00321
4458.95594,0.00290
4457.92568,0.00178
4456.89543,0.00104
4455.86517,0.00134
4454.83491,0.00212
4453.80465,0.00251
4452.77440,0.00252
4451.74414,0.00238
4450.71388,0.00212
4449.68362,0.00210
4448.65336,0.00232
4447.62311,0.00235
4446.59285,0.00222
4445.56259,0.00239
4444.53233,0.00265
4443.50208,0.00241
4442.47182,0.00162
4441.44156,0.00117
4440.41130,0.00139
4439.38104,0.00161
4438.35079,0.00185
4437.32053,0.00224
4436.29027,0.00245
4435.26001,0.00270
4434.22975,0.00300
4433.19950,0.00268
4432.16924,0.00192
4431.13898,0.00173
4430.10872,0.00218
4429.07847,0.00217
4428.04821,0.00197
4427.01795,0.00234
4425.98769,0.00251
4424.95743,0.00253
4423.92718,0.00263
4422.89692,0.00263
4421.86666,0.00291
4420.83640,0.00343
4419.80614,0.00378
4418.77589,0.00359
4417.74563,0.00327
4416.71537,0.00317
4415.68511,0.00328
4414.65486,0.00365
4413.62460,0.00339
4412.59434,0.00237
4411.56408,0.00192
4410.53382,0.00227
4409.50357,0.00285
4408.47331,0.00367
4407.44305,0.00394
4406.41279,0.00299
4405.38253,0.00220
4404.35228,0.00225
4403.32202,0.00244
4402.29176,0.00296
4401.26150,0.00372
4400.23125,0.00382
4399.20099,0.00307
4398.17073,0.00227
4397.14047,0.00241
4396.11021,0.00300
4395.07996,0.00315
4394.04970,0.00313
4393.01944,0.00321
4391.98918,0.00331
4390.95893,0.00315
4389.92867,0.00286
4388.89841,0.00287
4387.86815,0.00330
4386.83789,0.00342
4385.80764,0.00273
4384.77738,0.00226
4383.74712,0.00265
4382.71686,0.00309
4381.68660,0.00306
4380.65635,0.00314
4379.62609,0.00349
4378.59583,0.00363
4377.56557,0.00352
4376.53532,0.00320
4375.50506,0.00289
4374.47480,0.00306
4373.44454,0.00357
4372.41428,0.00367
4371.38403,0.00336
4370.35377,0.00323
4369.32351,0.00321
4368.29325,0.00332
4367.26299,0.00360
4366.23274,0.00392
4365.20248,0.00375
4364.17222,0.00331
4363.14196,0.00355
4362.11171,0.00390
4361.08145,0.00397
4360.05119,0.00388
4359.02093,0.00387
4357.99067,0.00413
4356.96042,0.00433
4355.93016,0.00440
4354.89990,0.00433
4353.86964,0.00398
4352.83939,0.00322
4351.80913,0.00277
4350.77887,0.00342
4349.74861,0.00428
4348.71835,0.00422
4347.68810,0.00331
4346.65784,0.00244
4345.62758,0.00224
4344.59732,0.00234
4343.56706,0.00267
4342.53681,0.00351
4341.50655,0.00403
4340.47629,0.00364
4339.44603,0.00316
4338.41578,0.00332
4337.38552,0.00357
4336.35526,0.00332
4335.32500,0.00316
4334.29474,0.00334
4333.26449,0.00345
4332.23423,0.00344
4331.20397,0.00324
4330.17371,0.00293
4329.14345,0.00290
4328.11320,0.00310
4327.08294,0.00309
4326.05268,0.00245
4325.02242,0.00169
4323.99217,0.00172
4322.96191,0.00214
4321.93165,0.00270
4320.90139,0.00360
4319.87113,0.00407
4318.84088,0.00358
4317.81062,0.00284
4316.78036,0.00252
4315.75010,0.00238
4314.71984,0.00216
4313.68959,0.00223
4312.65933,0.00254
4311.62907,0.00246
4310.59881,0.00206
4309.56856,0.00190
4308.53830,0.00199
4307.50804,0.00203
4306.47778,0.00214
4305.44752,0.00231
4304.41727,0.00257
4303.38701,0.00312
4302.35675,0.00353
4301.32649,0.00363
4300.29624,0.00349
4299.26598,0.00292
4298.23572,0.00229
4297.20546,0.00221
4296.17520,0.00247
4295.14495,0.00296
4294.11469,0.00377
4293.08443,0.00385
4292.05417,0.00325
4291.02391,0.00283
4289.99366,0.00224
4288.96340,0.00201
4287.93314,0.00267
4286.90288,0.00314
4285.87263,0.00300
4284.84237,0.00272
4283.81211,0.00265
4282.78185,0.00288
4281.75159,0.00312
4280.72134,0.00293
4279.69108,0.00230
4278.66082,0.00177
4277.63056,0.00176
4276.60030,0.00219
4275.57005,0.00263
4274.53979,0.00247
4273.50953,0.00184
4272.47927,0.00166
4271.44902,0.00244
4270.41876,0.00356
4269.38850,0.00388
4268.35824,0.00330
4267.32798,0.00262
4266.29773,0.00237
4265.26747,0.00257
4264.23721,0.00295
4263.20695,0.00323
4262.17669,0.00298
4261.14644,0.00241
4260.11618,0.00240
4259.08592,0.00283
4258.05566,0.00288
4257.02541,0.00290
4255.99515,0.00343
4254.96489,0.00367
4253.93463,0.00325
4252.90437,0.00283
4251.87412,0.00264
4250.84386,0.00258
4249.81360,0.00228
4248.78334,0.00212
4247.75309,0.00251
4246.72283,0.00256
4245.69257,0.00231
4244.66231,0.00281
4243.63205,0.00368
4242.60180,0.00386
4241.57154,0.00323
4240.54128,0.00253
4239.51102,0.00232
4238.48076,0.00235
4237.45051,0.00248
4236.42025,0.00265
4235.38999,0.00241
4234.35973,0.00212
4233.32948,0.00248
4232.29922,0.00316
4231.26896,0.00330
4230.23870,0.00284
4229.20844,0.00259
4228.17819,0.00297
4227.14793,0.00345
4226.11767,0.00341
4225.08741,0.00293
4224.05715,0.00282
4223.02690,0.00325
4221.99664,0.00323
4220.96638,0.00256
4219.93612,0.00219
4218.90587,0.00264
4217.87561,0.00287
4216.84535,0.00239
4215.81509,0.00251
4214.78483,0.00324
4213.75458,0.00348
4212.72432,0.00327
4211.69406,0.00322
4210.66380,0.00307
4209.63354,0.00242
4208.60329,0.00206
4207.57303,0.00253
4206.54277,0.00309
4205.51251,0.00298
4204.48226,0.00247
4203.45200,0.00214
4202.42174,0.00230
4201.39148,0.00288
4200.36122,0.00355
4199.33097,0.00374
4198.30071,0.00336
4197.27045,0.00297
4196.24019,0.00270
4195.20994,0.00232
4194.17968,0.00212
4193.14942,0.00240
4192.11916,0.00284
4191.08890,0.00315
4190.05865,0.00317
4189.02839,0.00330
4187.99813,0.00402
4186.96787,0.00432
4185.93761,0.00364
4184.90736,0.00307
4183.87710,0.00338
4182.84684,0.00403
4181.81658,0.00436
4180.78633,0.00421
4179.75607,0.00336
4178.72581,0.00249
4177.69555,0.00263
4176.66529,0.00328
4175.63504,0.00358
4174.60478,0.00347
4173.57452,0.00353
4172.54426,0.00386
4171.51400,0.00411
4170.48375,0.00396
4169.45349,0.00354
4168.42323,0.00357
4167.39297,0.00357
4166.36272,0.00305
4165.33246,0.00281
4164.30220,0.00301
4163.27194,0.00327
4162.24168,0.00334
4161.21143,0.00299
4160.18117,0.00252
4159.15091,0.00242
4158.12065,0.00247
4157.09039,0.00297
4156.06014,0.00403
4155.02988,0.00427
4153.99962,0.00378
4152.96936,0.00365
4151.93911,0.00374
4150.90885,0.00374
4149.87859,0.00363
4148.84833,0.00322
4147.81807,0.00274
4146.78782,0.00284
4145.75756,0.00334
4144.72730,0.00338
4143.69704,0.00284
4142.66679,0.00251
4141.63653,0.00276
4140.60627,0.00311
4139.57601,0.00322
4138.54575,0.00337
4137.51550,0.00386
4136.48524,0.00419
4135.45498,0.00371
4134.42472,0.00303
4133.39446,0.00300
4132.36421,0.00315
4131.33395,0.00313
4130.30369,0.00337
4129.27343,0.00363
4128.24318,0.00327
4127.21292,0.00276
4126.18266,0.00311
4125.15240,0.00390
4124.12214,0.00393
4123.09189,0.00320
4122.06163,0.00272
4121.03137,0.00295
4120.00111,0.00328
4118.97085,0.00336
4117.94060,0.00324
4116.91034,0.00286
4115.88008,0.00246
4114.84982,0.00237
4113.81957,0.00275
4112.78931,0.00347
4111.75905,0.00404
4110.72879,0.00417
4109.69853,0.00409
4108.66828,0.00415
4107.63802,0.00438
4106.60776,0.00458
4105.57750,0.00438
4104.54724,0.00373
4103.51699,0.00318
4102.48673,0.00312
4101.45647,0.00342
4100.42621,0.00359
4099.39596,0.00349
4098.36570,0.00359
4097.33544,0.00383
4096.30518,0.00379
4095.27492,0.00345
4094.24467,0.00344
4093.21441,0.00388
4092.18415,0.00410
4091.15389,0.00374
4090.12364,0.00315
4089.09338,0.00306
4088.06312,0.00319
4087.03286,0.00310
4086.00260,0.00328
4084.97235,0.00387
4083.94209,0.00428
4082.91183,0.00414
4081.88157,0.00376
4080.85131,0.00348
4079.82106,0.00344
4078.79080,0.00374
4077.76054,0.00410
4076.73028,0.00442
4075.70003,0.00461
4074.66977,0.00425
4073.63951,0.00370
4072.60925,0.00376
4071.57899,0.00424
4070.54874,0.00438
4069.51848,0.00401
4068.48822,0.00384
4067.45796,0.00425
4066.42770,0.00452
4065.39745,0.00445
4064.36719,0.00447
4063.33693,0.00454
4062.30667,0.00429
4061.27642,0.00401
4060.24616,0.00413
4059.21590,0.00419
4058.18564,0.00405
4057.15538,0.00417
4056.12513,0.00457
4055.09487,0.00466
4054.06461,0.00449
4053.03435,0.00467
4052.00409,0.00487
4050.97384,0.00484
4049.94358,0.00468
4048.91332,0.00448
4047.88306,0.00453
4046.85281,0.00450
4045.82255,0.00428
4044.79229,0.00439
4043.76203,0.00459
4042.73177,0.00459
4041.70152,0.00460
4040.67126,0.00461
4039.64100,0.00432
4038.61074,0.00406
4037.58049,0.00432
4036.55023,0.00468
4035.51997,0.00471
4034.48971,0.00461
4033.45945,0.00496
4032.42920,0.00551
4031.39894,0.00533
4030.36868,0.00458
4029.33842,0.00413
4028.30816,0.00411
4027.27791,0.00423
4026.24765,0.00458
4025.21739,0.00502
4024.18713,0.00505
4023.15688,0.00458
4022.12662,0.00410
4021.09636,0.00390
4020.06610,0.00406
4019.03584,0.00449
4018.00559,0.00478
4016.97533,0.00486
4015.94507,0.00507
4014.91481,0.00540
4013.88455,0.00554
4012.85430,0.00543
4011.82404,0.00506
4010.79378,0.00467
4009.76352,0.00458
4008.73327,0.00461
4007.70301,0.00454
4006.67275,0.00463
4005.64249,0.00500
4004.61223,0.00523
4003.58198,0.00486
4002.55172,0.00438
4001.52146,0.00462
4000.49120,0.00508
3999.46095,0.00508
3998.43069,0.00489
3997.40043,0.00484
3996.37017,0.00510
3995.33991,0.00531
3994.30966,0.00497
3993.27940,0.00452
3992.24914,0.00470
3991.21888,0.00514
3990.18862,0.00491
3989.15837,0.00419
3988.12811,0.00349
3987.09785,0.00298
3986.06759,0.00315
3985.03734,0.00390
3984.00708,0.00443
3982.97682,0.00444
3981.94656,0.00420
3980.91630,0.00402
3979.88605,0.00391
3978.85579,0.00402
3977.82553,0.00437
3976.79527,0.00462
3975.76501,0.00455
3974.73476,0.00426
3973.70450,0.00409
3972.67424,0.00393
3971.64398,0.00369
3970.61373,0.00381
3969.58347,0.00414
3968.55321,0.00434
3967.52295,0.00471
3966.49269,0.00508
3965.46244,0.00495
3964.43218,0.00458
3963.40192,0.00439
3962.37166,0.00416
3961.34140,0.00391
3960.31115,0.00378
3959.28089,0.00381
3958.25063,0.00416
3957.22037,0.00441
3956.19012,0.00422
3955.15986,0.00406
3954.12960,0.00430
3953.09934,0.00457
3952.06908,0.00469
3951.03883,0.00483
3950.00857,0.00492
3948.97831,0.00444
3947.94805,0.00344
3946.91780,0.00312
3945.88754,0.00380
3944.85728,0.00442
3943.82702,0.00439
3942.79676,0.00420
3941.76651,0.00421
3940.73625,0.00427
3939.70599,0.00425
3938.67573,0.00399
3937.64547,0.00349
3936.61522,0.00303
3935.58496,0.00322
3934.55470,0.00383
3933.52444,0.00355
3932.49419,0.00299
3931.46393,0.00348
3930.43367,0.00411
3929.40341,0.00419
3928.37315,0.00401
3927.34290,0.00372
3926.31264,0.00373
3925.28238,0.00389
3924.25212,0.00375
3923.22186,0.00354
3922.19161,0.00353
3921.16135,0.00375
3920.13109,0.00414
3919.10083,0.00420
3918.07058,0.00393
3917.04032,0.00395
3916.01006,0.00430
3914.97980,0.00444
3913.94954,0.00423
3912.91929,0.00401
3911.88903,0.00398
3910.85877,0.00408
3909.82851,0.00412
3908.79825,0.00402
3907.76800,0.00378
3906.73774,0.00368
3905.70748,0.00392
3904.67722,0.00387
3903.64697,0.00353
3902.61671,0.00373
3901.58645,0.00409
3900.55619,0.00410
3899.52593,0.00408
3898.49568,0.00408
3897.46542,0.00380
3896.43516,0.00374
3895.40490,0.00396
3894.37465,0.00390
3893.34439,0.00364
3892.31413,0.00340
3891.28387,0.00333
3890.25361,0.00378
3889.22336,0.00414
3888.19310,0.00397
3887.16284,0.00387
3886.13258,0.00394
3885.10232,0.00411
3884.07207,0.00442
3883.04181,0.00440
3882.01155,0.00407
3880.98129,0.00362
3879.95104,0.00346
3878.92078,0.00359
3877.89052,0.00361
3876.86026,0.00383
3875.83000,0.00428
3874.79975,0.00437
3873.76949,0.00403
3872.73923,0.00374
3871.70897,0.00362
3870.67871,0.00354
3869.64846,0.00338
3868.61820,0.00360
3867.58794,0.00410
3866.55768,0.00393
3865.52743,0.00316
3864.49717,0.00317
3863.46691,0.00395
3862.43665,0.00416
3861.40639,0.00372
3860.37614,0.00332
3859.34588,0.00329
3858.31562,0.00337
3857.28536,0.00336
3856.25510,0.00332
3855.22485,0.00362
3854.19459,0.00433
3853.16433,0.00458
3852.13407,0.00433
3851.10382,0.00411
3850.07356,0.00405
3849.04330,0.00404
3848.01304,0.00399
3846.98278,0.00385
3845.95253,0.00345
3844.92227,0.00312
3843.89201,0.00321
3842.86175,0.00359
3841.83150,0.00396
3840.80124,0.00401
3839.77098,0.00388
3838.74072,0.00418
3837.71046,0.00449
3836.68021,0.00418
3835.64995,0.00375
3834.61969,0.00351
3833.58943,0.00305
3832.55917,0.00231
3831.52892,0.00210
3830.49866,0.00273
3829.46840,0.00348
3828.43814,0.00394
3827.40789,0.00400
3826.37763,0.00385
3825.34737,0.00397
3824.31711,0.00408
3823.28685,0.00380
3822.25660,0.00355
3821.22634,0.00394
3820.19608,0.00404
3819.16582,0.00359
3818.13556,0.00359
3817.10531,0.00388
3816.07505,0.00408
3815.04479,0.00425
3814.01453,0.00417
3812.98428,0.00398
3811.95402,0.00393
3810.92376,0.00367
3809.89350,0.00355
3808.86324,0.00409
3807.83299,0.00464
3806.80273,0.00457
3805.77247,0.00413
3804.74221,0.00379
3803.71195,0.00377
3802.68170,0.00411
3801.65144,0.00439
3800.62118,0.00434
3799.59092,0.00438
3798.56067,0.00458
3797.53041,0.00471
3796.50015,0.00466
3795.46989,0.00441
3794.43963,0.00411
3793.40938,0.00398
3792.37912,0.00409
3791.34886,0.00446
3790.31860,0.00466
3789.28835,0.00424
3788.25809,0.00356
3787.22783,0.00339
3786.19757,0.00371
3785.16731,0.00385
3784.13706,0.00376
3783.10680,0.00388
3782.07654,0.00411
3781.04628,0.00428
3780.01602,0.00446
3778.98577,0.00457
3777.95551,0.00474
3776.92525,0.00486
3775.89499,0.00462
3774.86474,0.00439
3773.83448,0.00433
3772.80422,0.00428
3771.77396,0.00418
3770.74370,0.00397
3769.71345,0.00410
3768.68319,0.00447
3767.65293,0.00441
3766.62267,0.00424
3765.59241,0.00408
3764.56216,0.00403
3763.53190,0.00458
3762.50164,0.00555
3761.47138,0.00628
3760.44113,0.00629
3759.41087,0.00579
3758.38061,0.00547
3757.35035,0.00516
3756.32009,0.00469
3755.28984,0.00448
3754.25958,0.00461
3753.22932,0.00466
3752.19906,0.00440
3751.16880,0.00437
3750.13855,0.00485
3749.10829,0.00556
3748.07803,0.00584
3747.04777,0.00542
3746.01752,0.00494
3744.98726,0.00510
3743.95700,0.00532
3742.92674,0.00493
3741.89648,0.00514
3740.86623,0.00601
3739.83597,0.00652
3738.80571,0.00648
3737.77545,0.00650
3736.74520,0.00652
3735.71494,0.00594
3734.68468,0.00496
3733.65442,0.00471
3732.62416,0.00520
3731.59391,0.00547
3730.56365,0.00537
3729.53339,0.00553
3728.50313,0.00605
3727.47287,0.00648
3726.44262,0.00659
3725.41236,0.00668
3724.38210,0.00683
3723.35184,0.00672
3722.32159,0.00643
3721.29133,0.00641
3720.26107,0.00660
3719.23081,0.00669
3718.20055,0.00661
3717.17030,0.00670
3716.14004,0.00707
3715.10978,0.00730
3714.07952,0.00737
3713.04926,0.00756
3712.01901,0.00759
3710.98875,0.00739
3709.95849,0.00756
3708.92823,0.00790
3707.89798,0.00791
3706.86772,0.00786
3705.83746,0.00769
3704.80720,0.00732
3703.77694,0.00746
3702.74669,0.00814
3701.71643,0.00857
3700.68617,0.00861
3699.65591,0.00840
3698.62565,0.00813
3697.59540,0.00838
3696.56514,0.00867
3695.53488,0.00842
3694.50462,0.00827
3693.47437,0.00860
3692.44411,0.00913
3691.41385,0.00973
3690.38359,0.01050
3689.35333,0.01112
3688.32308,0.01150
3687.29282,0.01190
3686.26256,0.01201
3685.23230,0.01206
3684.20205,0.01245
3683.17179,0.01261
3682.14153,0.01231
3681.11127,0.01237
3680.08101,0.01308
3679.05076,0.01380
3678.02050,0.01448
3676.99024,0.01542
3675.95998,0.01599
3674.92972,0.01567
3673.89947,0.01598
3672.86921,0.01656
3671.83895,0.01655
3670.80869,0.01681
3669.77844,0.01774
3668.74818,0.01834
3667.71792,0.01871
3666.68766,0.01926
3665.65740,0.01998
3664.62715,0.02059
3663.59689,0.02093
3662.56663,0.02139
3661.53637,0.02247
3660.50611,0.02372
3659.47586,0.02419
3658.44560,0.02421
3657.41534,0.02474
3656.38508,0.02561
3655.35483,0.02622
3654.32457,0.02706
3653.29431,0.02822
3652.26405,0.02889
3651.23379,0.02894
3650.20354,0.02915
3649.17328,0.02959
3648.14302,0.02966
3647.11276,0.02977
3646.08250,0.03088
3645.05225,0.03222
3644.02199,0.03290
3642.99173,0.03338
3641.96147,0.03426
3640.93122,0.03540
3639.90096,0.03647
3638.87070,0.03724
3637.84044,0.03761
3636.81018,0.03805
3635.77993,0.03892
3634.74967,0.04000
3633.71941,0.04092
3632.68915,0.04135
3631.65890,0.04187
3630.62864,0.04298
3629.59838,0.04405
3628.56812,0.04421
3627.53786,0.04467
3626.50761,0.04581
3625.47735,0.04661
3624.44709,0.04719
3623.41683,0.04804
3622.38657,0.04892
3621.35632,0.04981
3620.32606,0.05071
3619.29580,0.05120
3618.26554,0.05168
3617.23529,0.05267
3616.20503,0.05352
3615.17477,0.05406
3614.14451,0.05449
3613.11425,0.05489
3612.08400,0.05602
3611.05374,0.05744
3610.02348,0.05813
3608.99322,0.05874
3607.96296,0.06002
3606.93271,0.06160
3605.90245,0.06290
3604.87219,0.06368
3603.84193,0.06441
3602.81168,0.06536
3601.78142,0.06629
3600.75116,0.06692
3599.72090,0.06778
3598.69064,0.06909
3597.66039,0.06998
3596.63013,0.07041
3595.59987,0.07118
3594.56961,0.07200
3593.53936,0.07258
3592.50910,0.07358
3591.47884,0.07496
3590.44858,0.07634
3589.41832,0.07772
3588.38807,0.07892
3587.35781,0.07956
3586.32755,0.08038
3585.29729,0.08181
3584.26703,0.08286
3583.23678,0.08364
3582.20652,0.08483
3581.17626,0.08620
3580.14600,0.08748
3579.11575,0.08859
3578.08549,0.08953
3577.05523,0.09060
3576.02497,0.09209
3574.99471,0.09321
3573.96446,0.09338
3572.93420,0.09385
3571.90394,0.09547
3570.87368,0.09736
3569.84342,0.09870
3568.81317,0.09968
3567.78291,0.10059
3566.75265,0.10175
3565.72239,0.10305
3564.69214,0.10403
3563.66188,0.10506
3562.63162,0.10654
3561.60136,0.10805
3560.57110,0.10935
3559.54085,0.11058
3558.51059,0.11144
3557.48033,0.11197
3556.45007,0.11275
3555.41981,0.11422
3554.38956,0.11619
3553.35930,0.11769
3552.32904,0.11848
3551.29878,0.11914
3550.26853,0.12011
3549.23827,0.12140
3548.20801,0.12278
3547.17775,0.12394
3546.14749,0.12501
3545.11724,0.12642
3544.08698,0.12799
3543.05672,0.12926
3542.02646,0.13030
3540.99621,0.13124
3539.96595,0.13213
3538.93569,0.13337
3537.90543,0.13469
3536.87517,0.13560
3535.84492,0.13648
3534.81466,0.13759
3533.78440,0.13865
3532.75414,0.13957
3531.72388,0.14028
3530.69363,0.14078
3529.66337,0.14162
3528.63311,0.14319
3527.60285,0.14498
3526.57260,0.14612
3525.54234,0.14685
3524.51208,0.14789
3523.48182,0.14918
3522.45156,0.15029
3521.42131,0.15135
3520.39105,0.15237
3519.36079,0.15314
3518.33053,0.15391
3517.30027,0.15467
3516.27002,0.15517
3515.23976,0.15570
3514.20950,0.15679
3513.17924,0.15844
3512.14899,0.16006
3511.11873,0.16111
3510.08847,0.16182
3509.05821,0.16251
3508.02795,0.16318
3506.99770,0.16411
3505.96744,0.16491
3504.93718,0.16531
3503.90692,0.16606
3502.87666,0.16699
3501.84641,0.16777
3500.81615,0.16871
3499.78589,0.16950
3498.75563,0.16993
3497.72538,0.17028
3496.69512,0.17092
3495.66486,0.17206
3494.63460,0.17325
3493.60434,0.17411
3492.57409,0.17499
3491.54383,0.17617
3490.51357,0.17714
3489.48331,0.17785
3488.45306,0.17886
3487.42280,0.17985
3486.39254,0.18047
3485.36228,0.18097
3484.33202,0.18151
3483.30177,0.18229
3482.27151,0.18322
3481.24125,0.18399
3480.21099,0.18468
3479.18073,0.18558
3478.15048,0.18667
3477.12022,0.18752
3476.08996,0.18810
3475.05970,0.18865
3474.02945,0.18917
3472.99919,0.19015
3471.96893,0.19161
3470.93867,0.19269
3469.90841,0.19291
3468.87816,0.19279
3467.84790,0.19346
3466.81764,0.19498
3465.78738,0.19651
3464.75712,0.19748
3463.72687,0.19785
3462.69661,0.19817
3461.66635,0.19870
3460.63609,0.19930
3459.60584,0.20004
3458.57558,0.20106
3457.54532,0.20208
3456.51506,0.20266
3455.48480,0.20302
3454.45455,0.20377
3453.42429,0.20509
3452.39403,0.20630
3451.36377,0.20698
3450.33351,0.20746
3449.30326,0.20797
3448.27300,0.20856
3447.24274,0.20946
3446.21248,0.21064
3445.18223,0.21145
3444.15197,0.21200
3443.12171,0.21290
3442.09145,0.21392
3441.06119,0.21462
3440.03094,0.21484
3439.00068,0.21480
3437.97042,0.21521
3436.94016,0.21596
3435.90991,0.21654
3434.87965,0.21708
3433.84939,0.21754
3432.81913,0.21805
3431.78887,0.21884
3430.75862,0.21978
3429.72836,0.22080
3428.69810,0.22156
3427.66784,0.22198
3426.63758,0.22253
3425.60733,0.22345
3424.57707,0.22462
3423.54681,0.22547
3422.51655,0.22537
3421.48630,0.22488
3420.45604,0.22541
3419.42578,0.22687
3418.39552,0.22798
3417.36526,0.22819
3416.33501,0.22814
3415.30475,0.22874
3414.27449,0.22947
3413.24423,0.22962
3412.21397,0.23003
3411.18372,0.23076
3410.15346,0.23116
3409.12320,0.23123
3408.09294,0.23140
3407.06269,0.23174
3406.03243,0.23176
3405.00217,0.23182
3403.97191,0.23229
3402.94165,0.23272
3401.91140,0.23278
3400.88114,0.23270
3399.85088,0.23317
3398.82062,0.23408
3397.79036,0.23474
3396.76011,0.23509
3395.72985,0.23497
3394.69959,0.23453
3393.66933,0.23420
3392.63908,0.23371
3391.60882,0.23334
3390.57856,0.23356
3389.54830,0.23390
3388.51804,0.23388
3387.48779,0.23397
3386.45753,0.23456
3385.42727,0.23488
3384.39701,0.23459
3383.36676,0.23451
3382.33650,0.23465
3381.30624,0.23431
3380.27598,0.23358
3379.24572,0.23315
3378.21547,0.23334
3377.18521,0.23351
3376.15495,0.23343
3375.12469,0.23325
3374.09443,0.23299
3373.06418,0.23278
3372.03392,0.23244
3371.00366,0.23179
3369.97340,0.23092
3368.94315,0.23003
3367.91289,0.22933
3366.88263,0.22917
3365.85237,0.22964
3364.82211,0.22993
3363.79186,0.22958
3362.76160,0.22907
3361.73134,0.22889
3360.70108,0.22895
3359.67082,0.22846
3358.64057,0.22739
3357.61031,0.22672
3356.58005,0.22637
3355.54979,0.22581
3354.51954,0.22583
3353.48928,0.22620
3352.45902,0.22558
3351.42876,0.22429
3350.39850,0.22346
3349.36825,0.22329
3348.33799,0.22322
3347.30773,0.22269
3346.27747,0.22180
3345.24721,0.22078
3344.21696,0.22000
3343.18670,0.21966
3342.15644,0.21923
3341.12618,0.21858
3340.09593,0.21820
3339.06567,0.21804
3338.03541,0.21791
3337.00515,0.21777
3335.97489,0.21727
3334.94464,0.21627
3333.91438,0.21527
3332.88412,0.21471
3331.85386,0.21435
3330.82361,0.21375
3329.79335,0.21320
3328.76309,0.21293
3327.73283,0.21244
3326.70257,0.21146
3325.67232,0.21062
3324.64206,0.21048
3323.61180,0.21071
3322.58154,0.21075
3321.55128,0.21047
3320.52103,0.21008
3319.49077,0.20964
3318.46051,0.20909
3317.43025,0.20822
3316.40000,0.20700
3315.36974,0.20628
3314.33948,0.20649
3313.30922,0.20685
3312.27896,0.20680
3311.24871,0.20655
3310.21845,0.20608
3309.18819,0.20562
3308.15793,0.20517
3307.12767,0.20450
3306.09742,0.20422
3305.06716,0.20443
3304.03690,0.20446
3303.00664,0.20390
3301.97639,0.20279
3300.94613,0.20190
3299.91587,0.20188
3298.88561,0.20236
3297.85535,0.20287
3296.82510,0.20305
3295.79484,0.20283
3294.76458,0.20231
3293.73432,0.20152
3292.70406,0.20097
3291.67381,0.20052
3290.64355,0.20001
3289.61329,0.20001
3288.58303,0.20021
3287.55278,0.20012
3286.52252,0.20006
3285.49226,0.20004
3284.46200,0.20001
3283.43174,0.19967
3282.40149,0.19874
3281.37123,0.19804
3280.34097,0.19781
3279.31071,0.19777
3278.28046,0.19815
3277.25020,0.19835
3276.21994,0.19800
3275.18968,0.19770
3274.15942,0.19723
3273.12917,0.19631
3272.09891,0.19563
3271.06865,0.19535
3270.03839,0.19509
3269.00813,0.19498
3267.97788,0.19504
3266.94762,0.19485
3265.91736,0.19417
3264.88710,0.19347
3263.85685,0.19321
3262.82659,0.19294
3261.79633,0.19244
3260.76607,0.19201
3259.73581,0.19160
3258.70556,0.19122
3257.67530,0.19113
3256.64504,0.19121
3255.61478,0.19092
3254.58452,0.18976
3253.55427,0.18821
3252.52401,0.18740
3251.49375,0.18746
3250.46349,0.18779
3249.43324,0.18765
3248.40298,0.18633
3247.37272,0.18471
3246.34246,0.18397
3245.31220,0.18352
3244.28195,0.18293
3243.25169,0.18253
3242.22143,0.18224
3241.19117,0.18191
3240.16092,0.18161
3239.13066,0.18122
3238.10040,0.18045
3237.07014,0.17943
3236.03988,0.17872
3235.00963,0.17825
3233.97937,0.17765
3232.94911,0.17673
3231.91885,0.17573
3230.88859,0.17528
3229.85834,0.17507
3228.82808,0.17426
3227.79782,0.17323
3226.76756,0.17231
3225.73731,0.17113
3224.70705,0.16987
3223.67679,0.16914
3222.64653,0.16867
3221.61627,0.16801
3220.58602,0.16702
3219.55576,0.16577
3218.52550,0.16483
3217.49524,0.16412
3216.46498,0.16311
3215.43473,0.16206
3214.40447,0.16107
3213.37421,0.16006
3212.34395,0.15926
3211.31370,0.15863
3210.28344,0.15775
3209.25318,0.15682
3208.22292,0.15641
3207.19266,0.15592
3206.16241,0.15469
3205.13215,0.15338
3204.10189,0.15263
3203.07163,0.15194
3202.04137,0.15080
3201.01112,0.14953
3199.98086,0.14840
3198.95060,0.14733
3197.92034,0.14624
3196.89009,0.14491
3195.85983,0.14374
3194.82957,0.14318
3193.79931,0.14252
3192.76905,0.14139
3191.73880,0.14024
3190.70854,0.13940
3189.67828,0.13865
3188.64802,0.13775
3187.61777,0.13701
3186.58751,0.13604
3185.55725,0.13442
3184.52699,0.13304
3183.49673,0.13206
3182.46648,0.13105
3181.43622,0.13003
3180.40596,0.12887
3179.37570,0.12766
3178.34544,0.12668
3177.31519,0.12603
3176.28493,0.12536
3175.25467,0.12442
3174.22441,0.12344
3173.19416,0.12254
3172.16390,0.12174
3171.13364,0.12080
3170.10338,0.11961
3169.07312,0.11843
3168.04287,0.11715
3167.01261,0.11592
3165.98235,0.11537
3164.95209,0.11514
3163.92183,0.11410
3162.89158,0.11263
3161.86132,0.11168
3160.83106,0.11091
3159.80080,0.10994
3158.77055,0.10898
3157.74029,0.10803
3156.71003,0.10699
3155.67977,0.10598
3154.64951,0.10503
3153.61926,0.10385
3152.58900,0.10272
3151.55874,0.10208
3150.52848,0.10160
3149.49822,0.10104
3148.46797,0.10028
3147.43771,0.09940
3146.40745,0.09862
3145.37719,0.09753
3144.34694,0.09613
3143.31668,0.09499
3142.28642,0.09399
3141.25616,0.09292
3140.22590,0.09224
3139.19565,0.09200
3138.16539,0.09161
3137.13513,0.09081
3136.10487,0.08996
3135.07462,0.08920
3134.04436,0.08812
3133.01410,0.08685
3131.98384,0.08604
3130.95358,0.08545
3129.92333,0.08453
3128.89307,0.08369
3127.86281,0.08326
3126.83255,0.08261
3125.80229,0.08161
3124.77204,0.08068
3123.74178,0.08011
3122.71152,0.07958
3121.68126,0.07857
3120.65101,0.07752
3119.62075,0.07695
3118.59049,0.07655
3117.56023,0.07602
3116.52997,0.07524
3115.49972,0.07422
3114.46946,0.07322
3113.43920,0.07270
3112.40894,0.07244
3111.37868,0.07165
3110.34843,0.07049
3109.31817,0.06965
3108.28791,0.06904
3107.25765,0.06855
3106.22740,0.06832
3105.19714,0.06802
3104.16688,0.06747
3103.13662,0.06689
3102.10636,0.06630
3101.07611,0.06549
3100.04585,0.06458
3099.01559,0.06397
3097.98533,0.06333
3096.95507,0.06253
3095.92482,0.06224
3094.89456,0.06241
3093.86430,0.06217
3092.83404,0.06147
3091.80379,0.06073
3090.77353,0.06011
3089.74327,0.05951
3088.71301,0.05839
3087.68275,0.05718
3086.65250,0.05696
3085.62224,0.05731
3084.59198,0.05715
3083.56172,0.05652
3082.53147,0.05590
3081.50121,0.05534
3080.47095,0.05458
3079.44069,0.05372
3078.41043,0.05313
3077.38018,0.05272
3076.34992,0.05228
3075.31966,0.05176
3074.28940,0.05118
3073.25914,0.05068
3072.22889,0.05033
3071.19863,0.04991
3070.16837,0.04926
3069.13811,0.04873
3068.10786,0.04847
3067.07760,0.04800
3066.04734,0.04736
3065.01708,0.04695
3063.98682,0.04672
3062.95657,0.04625
3061.92631,0.04546
3060.89605,0.04502
3059.86579,0.04513
3058.83553,0.04511
3057.80528,0.04464
3056.77502,0.04409
3055.74476,0.04364
3054.71450,0.04309
3053.68425,0.04261
3052.65399,0.04262
3051.62373,0.04291
3050.59347,0.04279
3049.56321,0.04192
3048.53296,0.04073
3047.50270,0.03999
3046.47244,0.03982
3045.44218,0.03990
3044.41192,0.03983
3043.38167,0.03952
3042.35141,0.03911
3041.32115,0.03857
3040.29089,0.03797
3039.26064,0.03755
3038.23038,0.03734
3037.20012,0.03716
3036.16986,0.03700
3035.13960,0.03675
3034.10935,0.03622
3033.07909,0.03587
3032.04883,0.03583
3031.01857,0.03549
3029.98832,0.03481
3028.95806,0.03439
3027.92780,0.03430
3026.89754,0.03416
3025.86728,0.03404
3024.83703,0.03417
3023.80677,0.03411
3022.77651,0.03346
3021.74625,0.03259
3020.71599,0.03207
3019.68574,0.03211
3018.65548,0.03237
3017.62522,0.03248
3016.59496,0.03215
3015.56471,0.03140
3014.53445,0.03084
3013.50419,0.03086
3012.47393,0.03095
3011.44367,0.03068
3010.41342,0.03045
3009.38316,0.03054
3008.35290,0.03077
3007.32264,0.03094
3006.29238,0.03068
3005.26213,0.02994
3004.23187,0.02932
3003.20161,0.02915
3002.17135,0.02924
3001.14110,0.02945
3000.11084,0.02967
2999.08058,0.02966
2998.05032,0.02925
2997.02006,0.02893
2995.98981,0.02904
2994.95955,0.02914
2993.92929,0.02916
2992.89903,0.02935
2991.86877,0.02951
2990.83852,0.02957
2989.80826,0.02960
2988.77800,0.02986
2987.74774,0.03036
2986.71749,0.03074
2985.68723,0.03120
2984.65697,0.03178
2983.62671,0.03220
2982.59645,0.03266
2981.56620,0.03318
2980.53594,0.03374
2979.50568,0.03464
2978.47542,0.03575
2977.44517,0.03683
2976.41491,0.03790
2975.38465,0.03898
2974.35439,0.03996
2973.32413,0.04071
2972.29388,0.04146
2971.26362,0.04252
2970.23336,0.04383
2969.20310,0.04497
2968.17284,0.04589
2967.14259,0.04702
2966.11233,0.04833
2965.08207,0.04953
2964.05181,0.05059
2963.02156,0.05154
2961.99130,0.05257
2960.96104,0.05389
2959.93078,0.05522
2958.90052,0.05610
2957.87027,0.05681
2956.84001,0.05775
2955.80975,0.05864
2954.77949,0.05918
2953.74923,0.05961
2952.71898,0.06043
2951.68872,0.06156
2950.65846,0.06243
2949.62820,0.06301
2948.59795,0.06379
2947.56769,0.06478
2946.53743,0.06552
2945.50717,0.06589
2944.47691,0.06622
2943.44666,0.06667
2942.41640,0.06730
2941.38614,0.06797
2940.35588,0.06862
2939.32562,0.06956
2938.29537,0.07063
2937.26511,0.07134
2936.23485,0.07176
2935.20459,0.07241
2934.17434,0.07334
2933.14408,0.07410
2932.11382,0.07454
2931.08356,0.07506
2930.05330,0.07577
2929.02305,0.07672
2927.99279,0.07827
2926.96253,0.07999
2925.93227,0.08124
2924.90202,0.08189
2923.87176,0.08231
2922.84150,0.08302
2921.81124,0.08378
2920.78098,0.08431
2919.75073,0.08479
2918.72047,0.08531
2917.69021,0.08597
2916.65995,0.08653
2915.62969,0.08666
2914.59944,0.08643
2913.56918,0.08610
2912.53892,0.08579
2911.50866,0.08563
2910.47841,0.08564
2909.44815,0.08568
2908.41789,0.08560
2907.38763,0.08531
2906.35737,0.08501
2905.32712,0.08469
2904.29686,0.08414
2903.26660,0.08366
2902.23634,0.08343
2901.20608,0.08330
2900.17583,0.08325
2899.14557,0.08326
2898.11531,0.08327
2897.08505,0.08318
2896.05480,0.08305
2895.02454,0.08308
2893.99428,0.08337
2892.96402,0.08362
2891.93376,0.08386
2890.90351,0.08432
2889.87325,0.08474
2888.84299,0.08506
2887.81273,0.08574
2886.78247,0.08687
2885.75222,0.08783
2884.72196,0.08853
2883.69170,0.08945
2882.66144,0.09050
2881.63119,0.09122
2880.60093,0.09149
2879.57067,0.09156
2878.54041,0.09149
2877.51015,0.09114
2876.47990,0.09075
2875.44964,0.09046
2874.41938,0.08977
2873.38912,0.08861
2872.35887,0.08759
2871.32861,0.08647
2870.29835,0.08466
2869.26809,0.08258
2868.23783,0.08082
2867.20758,0.07924
2866.17732,0.07743
2865.14706,0.07529
2864.11680,0.07303
2863.08654,0.07081
2862.05629,0.06880
2861.02603,0.06682
2859.99577,0.06464
2858.96551,0.06256
2857.93526,0.06074
2856.90500,0.05871
2855.87474,0.05659
2854.84448,0.05478
2853.81422,0.05321
2852.78397,0.05162
2851.75371,0.04989
2850.72345,0.04821
2849.69319,0.04665
2848.66293,0.04497
2847.63268,0.04351
2846.60242,0.04258
2845.57216,0.04180
2844.54190,0.04082
2843.51165,0.03968
2842.48139,0.03859
2841.45113,0.03799
2840.42087,0.03769
2839.39061,0.03694
2838.36036,0.03602
2837.33010,0.03558
2836.29984,0.03528
2835.26958,0.03473
2834.23933,0.03393
2833.20907,0.03322
2832.17881,0.03281
2831.14855,0.03232
2830.11829,0.03172
2829.08804,0.03126
2828.05778,0.03081
2827.02752,0.03036
2825.99726,0.03009
2824.96700,0.02990
2823.93675,0.02967
2822.90649,0.02933
2821.87623,0.02873
2820.84597,0.02815
2819.81572,0.02783
2818.78546,0.02743
2817.75520,0.02680
2816.72494,0.02619
2815.69468,0.02597
2814.66443,0.02601
2813.63417,0.02583
2812.60391,0.02527
2811.57365,0.02459
2810.54339,0.02411
2809.51314,0.02385
2808.48288,0.02358
2807.45262,0.02324
2806.42236,0.02286
2805.39211,0.02236
2804.36185,0.02174
2803.33159,0.02120
2802.30133,0.02098
2801.27107,0.02092
2800.24082,0.02066
2799.21056,0.02014
2798.18030,0.01969
2797.15004,0.01963
2796.11978,0.01958
2795.08953,0.01913
2794.05927,0.01876
2793.02901,0.01873
2791.99875,0.01879
2790.96850,0.01877
2789.93824,0.01858
2788.90798,0.01831
2787.87772,0.01805
2786.84746,0.01765
2785.81721,0.01721
2784.78695,0.01703
2783.75669,0.01698
2782.72643,0.01667
2781.69618,0.01626
2780.66592,0.01593
2779.63566,0.01555
2778.60540,0.01538
2777.57514,0.01543
2776.54489,0.01540
2775.51463,0.01528
2774.48437,0.01523
2773.45411,0.01523
2772.42385,0.01500
2771.39360,0.01461
2770.36334,0.01456
2769.33308,0.01467
2768.30282,0.01449
2767.27257,0.01434
2766.24231,0.01446
2765.21205,0.01447
2764.18179,0.01424
2763.15153,0.01398
2762.12128,0.01374
2761.09102,0.01363
2760.06076,0.01369
2759.03050,0.01381
2758.00024,0.01384
2756.96999,0.01370
2755.93973,0.01344
2754.90947,0.01327
2753.87921,0.01332
2752.84896,0.01360
2751.81870,0.01405
2750.78844,0.01429
2749.75818,0.01402
2748.72792,0.01364
2747.69767,0.01355
2746.66741,0.01358
2745.63715,0.01348
2744.60689,0.01321
2743.57663,0.01299
2742.54638,0.01282
2741.51612,0.01271
2740.48586,0.01281
2739.45560,0.01285
2738.42535,0.01258
2737.39509,0.01247
2736.36483,0.01264
2735.33457,0.01249
2734.30431,0.01205
2733.27406,0.01186
2732.24380,0.01201
2731.21354,0.01214
2730.18328,0.01198
2729.15303,0.01171
2728.12277,0.01155
2727.09251,0.01146
2726.06225,0.01134
2725.03199,0.01122
2724.00174,0.01119
2722.97148,0.01118
2721.94122,0.01097
2720.91096,0.01056
2719.88070,0.01021
2718.85045,0.00999
2717.82019,0.00994
2716.78993,0.01010
2715.75967,0.01040
2714.72942,0.01065
2713.69916,0.01048
2712.66890,0.01003
2711.63864,0.01000
2710.60838,0.01035
2709.57813,0.01031
2708.54787,0.00985
2707.51761,0.00954
2706.48735,0.00950
2705.45709,0.00958
2704.42684,0.00974
2703.39658,0.00987
2702.36632,0.00986
2701.33606,0.00971
2700.30581,0.00947
2699.27555,0.00927
2698.24529,0.00904
2697.21503,0.00876
2696.18477,0.00875
2695.15452,0.00895
2694.12426,0.00910
2693.09400,0.00915
2692.06374,0.00890
2691.03348,0.00859
2690.00323,0.00859
2688.97297,0.00871
2687.94271,0.00864
2686.91245,0.00833
2685.88220,0.00777
2684.85194,0.00728
2683.82168,0.00726
2682.79142,0.00762
2681.76116,0.00786
2680.73091,0.00782
2679.70065,0.00773
2678.67039,0.00759
2677.64013,0.00737
2676.60988,0.00744
2675.57962,0.00760
2674.54936,0.00732
2673.51910,0.00687
2672.48884,0.00672
2671.45859,0.00695
2670.42833,0.00714
2669.39807,0.00718
2668.36781,0.00730
2667.33755,0.00745
2666.30730,0.00763
2665.27704,0.00767
2664.24678,0.00745
2663.21652,0.00722
2662.18627,0.00711
2661.15601,0.00705
2660.12575,0.00706
2659.09549,0.00713
2658.06523,0.00719
2657.03498,0.00729
2656.00472,0.00729
2654.97446,0.00714
2653.94420,0.00691
2652.91394,0.00686
2651.88369,0.00697
2650.85343,0.00701
2649.82317,0.00696
2648.79291,0.00670
2647.76266,0.00637
2646.73240,0.00629
2645.70214,0.00639
2644.67188,0.00643
2643.64162,0.00641
2642.61137,0.00640
2641.58111,0.00634
2640.55085,0.00630
2639.52059,0.00651
2638.49033,0.00676
2637.46008,0.00654
2636.42982,0.00614
2635.39956,0.00605
2634.36930,0.00613
2633.33905,0.00618
2632.30879,0.00639
2631.27853,0.00665
2630.24827,0.00664
2629.21801,0.00651
2628.18776,0.00636
2627.15750,0.00604
2626.12724,0.00564
2625.09698,0.00573
2624.06673,0.00611
2623.03647,0.00624
2622.00621,0.00628
2620.97595,0.00627
2619.94569,0.00640
2618.91544,0.00675
2617.88518,0.00665
2616.85492,0.00598
2615.82466,0.00550
2614.79440,0.00560
2613.76415,0.00594
2612.73389,0.00608
2611.70363,0.00614
2610.67337,0.00636
2609.64312,0.00668
2608.61286,0.00676
2607.58260,0.00644
2606.55234,0.00607
2605.52208,0.00584
2604.49183,0.00577
2603.46157,0.00577
2602.43131,0.00560
2601.40105,0.00551
2600.37079,0.00576
2599.34054,0.00602
2598.31028,0.00609
2597.28002,0.00610
2596.24976,0.00605
2595.21951,0.00586
2594.18925,0.00559
2593.15899,0.00520
2592.12873,0.00502
2591.09847,0.00549
2590.06822,0.00601
2589.03796,0.00617
2588.00770,0.00626
2586.97744,0.00635
2585.94718,0.00644
2584.91693,0.00633
2583.88667,0.00586
2582.85641,0.00553
2581.82615,0.00566
2580.79590,0.00545
2579.76564,0.00482
2578.73538,0.00490
2577.70512,0.00543
2576.67486,0.00542
2575.64461,0.00499
2574.61435,0.00472
2573.58409,0.00487
2572.55383,0.00496
2571.52358,0.00460
2570.49332,0.00479
2569.46306,0.00575
2568.43280,0.00624
2567.40254,0.00603
2566.37229,0.00556
2565.34203,0.00513
2564.31177,0.00518
2563.28151,0.00553
2562.25125,0.00571
2561.22100,0.00582
2560.19074,0.00592
2559.16048,0.00583
2558.13022,0.00561
2557.09997,0.00539
2556.06971,0.00505
2555.03945,0.00473
2554.00919,0.00474
2552.97893,0.00499
2551.94868,0.00507
2550.91842,0.00489
2549.88816,0.00485
2548.85790,0.00517
2547.82764,0.00560
2546.79739,0.00600
2545.76713,0.00628
2544.73687,0.00587
2543.70661,0.00482
2542.67636,0.00443
2541.64610,0.00536
2540.61584,0.00640
2539.58558,0.00640
2538.55532,0.00556
2537.52507,0.00490
2536.49481,0.00524
2535.46455,0.00598
2534.43429,0.00605
2533.40403,0.00544
2532.37378,0.00491
2531.34352,0.00489
2530.31326,0.00516
2529.28300,0.00527
2528.25275,0.00500
2527.22249,0.00521
2526.19223,0.00608
2525.16197,0.00646
2524.13171,0.00594
2523.10146,0.00516
2522.07120,0.00502
2521.04094,0.00517
2520.01068,0.00492
2518.98043,0.00483
2517.95017,0.00524
2516.91991,0.00568
2515.88965,0.00550
2514.85939,0.00462
2513.82914,0.00396
2512.79888,0.00401
2511.76862,0.00446
2510.73836,0.00514
2509.70810,0.00557
2508.67785,0.00531
2507.64759,0.00508
2506.61733,0.00545
2505.58707,0.00607
2504.55682,0.00615
2503.52656,0.00551
2502.49630,0.00508
2501.46604,0.00529
2500.43578,0.00542
2499.40553,0.00528
2498.37527,0.00529
2497.34501,0.00545
2496.31475,0.00544
2495.28449,0.00498
2494.25424,0.00475
2493.22398,0.00509
2492.19372,0.00530
2491.16346,0.00530
2490.13321,0.00554
2489.10295,0.00561
2488.07269,0.00531
2487.04243,0.00534
2486.01217,0.00564
2484.98192,0.00567
2483.95166,0.00576
2482.92140,0.00599
2481.89114,0.00620
2480.86088,0.00662
2479.83063,0.00682
2478.80037,0.00629
2477.77011,0.00557
2476.73985,0.00556
2475.70960,0.00614
2474.67934,0.00643
2473.64908,0.00642
2472.61882,0.00645
2471.58856,0.00632
2470.55831,0.00608
2469.52805,0.00598
2468.49779,0.00598
2467.46753,0.00602
2466.43728,0.00591
2465.40702,0.00577
2464.37676,0.00581
2463.34650,0.00609
2462.31624,0.00657
2461.28599,0.00675
2460.25573,0.00644
2459.22547,0.00598
2458.19521,0.00592
2457.16495,0.00615
2456.13470,0.00591
2455.10444,0.00553
2454.07418,0.00584
2453.04392,0.00645
2452.01367,0.00645
2450.98341,0.00596
2449.95315,0.00555
2448.92289,0.00552
2447.89263,0.00580
2446.86238,0.00600
2445.83212,0.00603
2444.80186,0.00602
2443.77160,0.00583
2442.74134,0.00569
2441.71109,0.00610
2440.68083,0.00664
2439.65057,0.00655
2438.62031,0.00594
2437.59006,0.00563
2436.55980,0.00588
2435.52954,0.00600
2434.49928,0.00576
2433.46902,0.00570
2432.43877,0.00602
2431.40851,0.00626
2430.37825,0.00605
2429.34799,0.00580
2428.31774,0.00585
2427.28748,0.00595
2426.25722,0.00615
2425.22696,0.00653
2424.19670,0.00676
2423.16645,0.00683
2422.13619,0.00697
2421.10593,0.00693
2420.07567,0.00646
2419.04541,0.00596
2418.01516,0.00597
2416.98490,0.00621
2415.95464,0.00651
2414.92438,0.00702
2413.89413,0.00710
2412.86387,0.00677
2411.83361,0.00677
2410.80335,0.00671
2409.77309,0.00624
2408.74284,0.00607
2407.71258,0.00630
2406.68232,0.00645
2405.65206,0.00642
2404.62180,0.00662
2403.59155,0.00710
2402.56129,0.00726
2401.53103,0.00690
2400.50077,0.00664
2399.47052,0.00693
2398.44026,0.00711
2397.41000,0.00684
2396.37974,0.00684
2395.34948,0.00735
2394.31923,0.00756
2393.28897,0.00720
2392.25871,0.00705
2391.22845,0.00729
2390.19819,0.00738
2389.16794,0.00725
2388.13768,0.00716
2387.10742,0.00707
2386.07716,0.00694
2385.04691,0.00673
2384.01665,0.00673
2382.98639,0.00706
2381.95613,0.00738
2380.92587,0.00762
2379.89562,0.00786
2378.86536,0.00815
2377.83510,0.00859
2376.80484,0.00899
2375.77459,0.00885
2374.74433,0.00834
2373.71407,0.00843
2372.68381,0.00929
2371.65355,0.01016
2370.62330,0.01035
2369.59304,0.00996
2368.56278,0.00956
2367.53252,0.00964
2366.50226,0.01044
2365.47201,0.01177
2364.44175,0.01243
2363.41149,0.01190
2362.38123,0.01121
2361.35098,0.01127
2360.32072,0.01188
2359.29046,0.01199
2358.26020,0.01127
2357.22994,0.01006
2356.19969,0.00928
2355.16943,0.00915
2354.13917,0.00882
2353.10891,0.00865
2352.07865,0.00917
2351.04840,0.00964
2350.01814,0.00964
2348.98788,0.00980
2347.95762,0.01037
2346.92737,0.01067
2345.89711,0.01036
2344.86685,0.00973
2343.83659,0.00922
2342.80633,0.00949
2341.77608,0.01027
2340.74582,0.01085
2339.71556,0.01129
2338.68530,0.01137
2337.65504,0.01094
2336.62479,0.01051
2335.59453,0.01044
2334.56427,0.01052
2333.53401,0.01047
2332.50376,0.01054
2331.47350,0.01091
2330.44324,0.01096
2329.41298,0.01048
2328.38272,0.00997
2327.35247,0.00972
2326.32221,0.00977
2325.29195,0.00978
2324.26169,0.00957
2323.23144,0.00936
2322.20118,0.00973
2321.17092,0.01059
2320.14066,0.01100
2319.11040,0.01051
2318.08015,0.00954
2317.04989,0.00882
2316.01963,0.00878
2314.98937,0.00911
2313.95911,0.00940
2312.92886,0.00969
2311.89860,0.00997
2310.86834,0.01007
2309.83808,0.00984
2308.80783,0.00930
2307.77757,0.00918
2306.74731,0.00978
2305.71705,0.01022
2304.68679,0.01010
2303.65654,0.00969
2302.62628,0.00915
2301.59602,0.00884
2300.56576,0.00922
2299.53550,0.00972
2298.50525,0.00986
2297.47499,0.00975
2296.44473,0.00939
2295.41447,0.00921
2294.38422,0.00956
2293.35396,0.00976
2292.32370,0.00942
2291.29344,0.00905
2290.26318,0.00895
2289.23293,0.00897
2288.20267,0.00927
2287.17241,0.01004
2286.14215,0.01059
2285.11189,0.01030
2284.08164,0.00978
2283.05138,0.00980
2282.02112,0.00989
2280.99086,0.00943
2279.96061,0.00899
2278.93035,0.00929
2277.90009,0.01006
2276.86983,0.01030
2275.83957,0.00982
2274.80932,0.00974
2273.77906,0.01015
2272.74880,0.01013
2271.71854,0.00985
2270.68829,0.00977
2269.65803,0.00970
2268.62777,0.00938
2267.59751,0.00902
2266.56725,0.00930
2265.53700,0.00972
2264.50674,0.00920
2263.47648,0.00837
2262.44622,0.00855
2261.41596,0.00985
2260.38571,0.01141
2259.35545,0.01214
2258.32519,0.01180
2257.29493,0.01116
2256.26468,0.01060
2255.23442,0.01004
2254.20416,0.00989
2253.17390,0.01025
2252.14364,0.00987
2251.11339,0.00881
2250.08313,0.00921
2249.05287,0.01093
2248.02261,0.01166
2246.99235,0.01099
2245.96210,0.00998
2244.93184,0.00960
2243.90158,0.00986
2242.87132,0.00956
2241.84107,0.00898
2240.81081,0.00923
2239.78055,0.01011
2238.75029,0.01105
2237.72003,0.01199
2236.68978,0.01232
2235.65952,0.01144
2234.62926,0.01092
2233.59900,0.01079
2232.56874,0.00992
2231.53849,0.00962
2230.50823,0.00974
2229.47797,0.00915
2228.44771,0.00870
2227.41746,0.00878
2226.38720,0.00848
2225.35694,0.00816
2224.32668,0.00927
2223.29642,0.01127
2222.26617,0.01207
2221.23591,0.01114
2220.20565,0.01005
2219.17539,0.00918
2218.14514,0.00808
2217.11488,0.00808
2216.08462,0.00917
2215.05436,0.01060
2214.02410,0.01245
2212.99385,0.01292
2211.96359,0.01033
2210.93333,0.00702
2209.90307,0.00618
2208.87281,0.00768
2207.84256,0.00905
2206.81230,0.00837
2205.78204,0.00753
2204.75178,0.00901
2203.72153,0.01072
2202.69127,0.01088
2201.66101,0.01091
2200.63075,0.01100
2199.60049,0.01067
2198.57024,0.01023
2197.53998,0.00963
2196.50972,0.00896
2195.47946,0.00774
2194.44920,0.00697
2193.41895,0.00834
2192.38869,0.01034
2191.35843,0.01099
2190.32817,0.01060
2189.29792,0.01080
2188.26766,0.01161
2187.23740,0.01099
2186.20714,0.00967
2185.17688,0.00967
2184.14663,0.00972
2183.11637,0.00898
2182.08611,0.00936
2181.05585,0.01074
2180.02559,0.01038
2178.99534,0.00925
2177.96508,0.00962
2176.93482,0.01053
2175.90456,0.01117
2174.87431,0.01094
2173.84405,0.01014
2172.81379,0.01038
2171.78353,0.01098
2170.75327,0.01125
2169.72302,0.01200
2168.69276,0.01189
2167.66250,0.01059
2166.63224,0.00943
2165.60199,0.00916
2164.57173,0.01060
2163.54147,0.01127
2162.51121,0.00921
2161.48095,0.00762
2160.45070,0.00936
2159.42044,0.01245
2158.39018,0.01208
2157.35992,0.00835
2156.32966,0.00699
2155.29941,0.00953
2154.26915,0.01214
2153.23889,0.01226
2152.20863,0.01066
2151.17838,0.01061
2150.14812,0.01260
2149.11786,0.01348
2148.08760,0.01291
2147.05734,0.01265
2146.02709,0.01257
2144.99683,0.01294
2143.96657,0.01481
2142.93631,0.01651
2141.90605,0.01645
2140.87580,0.01557
2139.84554,0.01484
2138.81528,0.01451
2137.78502,0.01435
2136.75477,0.01343
2135.72451,0.01220
2134.69425,0.01197
2133.66399,0.01208
2132.63373,0.01204
2131.60348,0.01270
2130.57322,0.01355
2129.54296,0.01347
2128.51270,0.01322
2127.48244,0.01364
2126.45219,0.01392
2125.42193,0.01361
2124.39167,0.01272
2123.36141,0.01148
2122.33116,0.01103
2121.30090,0.01200
2120.27064,0.01369
2119.24038,0.01474
2118.21012,0.01478
2117.17987,0.01470
2116.14961,0.01478
2115.11935,0.01463
2114.08909,0.01420
2113.05884,0.01394
2112.02858,0.01448
2110.99832,0.01529
2109.96806,0.01521
2108.93780,0.01442
2107.90755,0.01333
2106.87729,0.01277
2105.84703,0.01348
2104.81677,0.01422
2103.78651,0.01447
2102.75626,0.01521
2101.72600,0.01596
2100.69574,0.01590
2099.66548,0.01533
2098.63523,0.01414
2097.60497,0.01294
2096.57471,0.01297
2095.54445,0.01344
2094.51419,0.01359
2093.48394,0.01443
2092.45368,0.01586
2091.42342,0.01635
2090.39316,0.01584
2089.36290,0.01556
2088.33265,0.01536
2087.30239,0.01458
2086.27213,0.01377
2085.24187,0.01381
2084.21162,0.01457
2083.18136,0.01487
2082.15110,0.01469
2081.12084,0.01477
2080.09058,0.01451
2079.06033,0.01399
2078.03007,0.01386
2076.99981,0.01377
2075.96955,0.01355
2074.93930,0.01318
2073.90904,0.01271
2072.87878,0.01260
2071.84852,0.01269
2070.81826,0.01300
2069.78801,0.01367
2068.75775,0.01381
2067.72749,0.01231
2066.69723,0.01022
2065.66697,0.01027
2064.63672,0.01136
2063.60646,0.01136
2062.57620,0.01161
2061.54594,0.01245
2060.51569,0.01262
2059.48543,0.01206
2058.45517,0.01209
2057.42491,0.01273
2056.39465,0.01299
2055.36440,0.01331
2054.33414,0.01373
2053.30388,0.01359
2052.27362,0.01274
2051.24336,0.01170
2050.21311,0.01129
2049.18285,0.01179
2048.15259,0.01259
2047.12233,0.01335
2046.09208,0.01363
2045.06182,0.01367
2044.03156,0.01396
2043.00130,0.01332
2041.97104,0.01177
2040.94079,0.01099
2039.91053,0.01086
2038.88027,0.01114
2037.85001,0.01186
2036.81975,0.01088
2035.78950,0.00891
2034.75924,0.00904
2033.72898,0.01002
2032.69872,0.01028
2031.66847,0.01052
2030.63821,0.01060
2029.60795,0.01064
2028.57769,0.01113
2027.54743,0.01148
2026.51718,0.01170
2025.48692,0.01240
2024.45666,0.01389
2023.42640,0.01543
2022.39615,0.01563
2021.36589,0.01541
2020.33563,0.01513
2019.30537,0.01360
2018.27511,0.01260
2017.24486,0.01327
2016.21460,0.01283
2015.18434,0.01078
2014.15408,0.00943
2013.12382,0.00844
2012.09357,0.00627
2011.06331,0.00459
2010.03305,0.00540
2009.00279,0.00780
2007.97254,0.01054
2006.94228,0.01197
2005.91202,0.01156
2004.88176,0.01127
2003.85150,0.01096
2002.82125,0.01061
2001.79099,0.01139
2000.76073,0.01205
1999.73047,0.01211
1998.70021,0.01215
1997.66996,0.01140
1996.63970,0.01002
1995.60944,0.00923
1994.57918,0.00937
1993.54893,0.00911
1992.51867,0.00801
1991.48841,0.00898
1990.45815,0.01216
1989.42789,0.01296
1988.39764,0.01120
1987.36738,0.01068
1986.33712,0.01134
1985.30686,0.01116
1984.27660,0.01015
1983.24635,0.00859
1982.21609,0.00724
1981.18583,0.00759
1980.15557,0.00902
1979.12532,0.00945
1978.09506,0.00932
1977.06480,0.00978
1976.03454,0.00957
1975.00428,0.00956
1973.97403,0.01115
1972.94377,0.01260
1971.91351,0.01286
1970.88325,0.01244
1969.85300,0.01246
1968.82274,0.01237
1967.79248,0.01069
1966.76222,0.00906
1965.73196,0.00922
1964.70171,0.01029
1963.67145,0.01130
1962.64119,0.01188
1961.61093,0.01206
1960.58067,0.01268
1959.55042,0.01287
1958.52016,0.01149
1957.48990,0.01038
1956.45964,0.01101
1955.42939,0.01292
1954.39913,0.01390
1953.36887,0.01242
1952.33861,0.01090
1951.30835,0.01179
1950.27810,0.01355
1949.24784,0.01372
1948.21758,0.01236
1947.18732,0.01086
1946.15706,0.01033
1945.12681,0.01064
1944.09655,0.01093
1943.06629,0.01121
1942.03603,0.01099
1941.00578,0.01004
1939.97552,0.00981
1938.94526,0.01049
1937.91500,0.01095
1936.88474,0.01076
1935.85449,0.01030
1934.82423,0.00982
1933.79397,0.00894
1932.76371,0.00811
1931.73345,0.00848
1930.70320,0.00971
1929.67294,0.01053
1928.64268,0.01042
1927.61242,0.01033
1926.58217,0.01060
1925.55191,0.01037
1924.52165,0.01008
1923.49139,0.01024
1922.46113,0.01004
1921.43088,0.00950
1920.40062,0.00943
1919.37036,0.00953
1918.34010,0.00959
1917.30985,0.00976
1916.27959,0.00940
1915.24933,0.00907
1914.21907,0.00959
1913.18881,0.00977
1912.15856,0.00888
1911.12830,0.00837
1910.09804,0.00895
1909.06778,0.00970
1908.03752,0.00951
1907.00727,0.00879
1905.97701,0.00874
1904.94675,0.00906
1903.91649,0.00917
1902.88624,0.00913
1901.85598,0.00900
1900.82572,0.00894
1899.79546,0.00901
1898.76520,0.00926
1897.73495,0.00953
1896.70469,0.00895
1895.67443,0.00796
1894.64417,0.00789
1893.61391,0.00854
1892.58366,0.00917
1891.55340,0.00934
1890.52314,0.00901
1889.49288,0.00873
1888.46263,0.00864
1887.43237,0.00846
1886.40211,0.00849
1885.37185,0.00866
1884.34159,0.00842
1883.31134,0.00817
1882.28108,0.00805
1881.25082,0.00760
1880.22056,0.00721
1879.19030,0.00786
1878.16005,0.00907
1877.12979,0.00959
1876.09953,0.00968
1875.06927,0.00986
1874.03902,0.00961
1873.00876,0.00900
1871.97850,0.00872
1870.94824,0.00907
1869.91798,0.00959
1868.88773,0.00947
1867.85747,0.00879
1866.82721,0.00798
1865.79695,0.00714
1864.76670,0.00677
1863.73644,0.00708
1862.70618,0.00767
1861.67592,0.00801
1860.64566,0.00816
1859.61541,0.00806
1858.58515,0.00783
1857.55489,0.00797
1856.52463,0.00816
1855.49437,0.00827
1854.46412,0.00869
1853.43386,0.00904
1852.40360,0.00871
1851.37334,0.00808
1850.34309,0.00783
1849.31283,0.00785
1848.28257,0.00795
1847.25231,0.00809
1846.22205,0.00830
1845.19180,0.00869
1844.16154,0.00901
1843.13128,0.00891
1842.10102,0.00871
1841.07076,0.00872
1840.04051,0.00903
1839.01025,0.00929
1837.97999,0.00928
1836.94973,0.00937
1835.91948,0.00958
1834.88922,0.00958
1833.85896,0.00920
1832.82870,0.00854
1831.79844,0.00816
1830.76819,0.00804
1829.73793,0.00790
1828.70767,0.00803
1827.67741,0.00828
1826.64715,0.00848
1825.61690,0.00884
1824.58664,0.00918
1823.55638,0.00918
1822.52612,0.00903
1821.49587,0.00908
1820.46561,0.00937
1819.43535,0.00954
1818.40509,0.00946
1817.37483,0.00940
1816.34458,0.00956
1815.31432,0.00980
1814.28406,0.00996
1813.25380,0.00999
1812.22355,0.01007
1811.19329,0.01030
1810.16303,0.01035
1809.13277,0.01022
1808.10251,0.01032
1807.07226,0.01054
1806.04200,0.01049
1805.01174,0.01037
1803.98148,0.01023
1802.95122,0.00991
1801.92097,0.00983
1800.89071,0.01007
1799.86045,0.01017
1798.83019,0.01011
1797.79994,0.01019
1796.76968,0.01047
1795.73942,0.01090
1794.70916,0.01132
1793.67890,0.01145
1792.64865,0.01114
1791.61839,0.01083
1790.58813,0.01098
1789.55787,0.01119
1788.52761,0.01110
1787.49736,0.01080
1786.46710,0.01059
1785.43684,0.01071
1784.40658,0.01093
1783.37633,0.01096
1782.34607,0.01117
1781.31581,0.01160
1780.28555,0.01173
1779.25529,0.01165
1778.22504,0.01175
1777.19478,0.01190
1776.16452,0.01200
1775.13426,0.01198
1774.10400,0.01184
1773.07375,0.01154
1772.04349,0.01129
1771.01323,0.01160
1769.98297,0.01227
1768.95272,0.01292
1767.92246,0.01325
1766.89220,0.01317
1765.86194,0.01303
1764.83168,0.01298
1763.80143,0.01314
1762.77117,0.01341
1761.74091,0.01361
1760.71065,0.01377
1759.68040,0.01390
1758.65014,0.01413
1757.61988,0.01446
1756.58962,0.01481
1755.55936,0.01495
1754.52911,0.01479
1753.49885,0.01479
1752.46859,0.01519
1751.43833,0.01580
1750.40807,0.01643
1749.37782,0.01680
1748.34756,0.01682
1747.31730,0.01674
1746.28704,0.01683
1745.25679,0.01704
1744.22653,0.01728
1743.19627,0.01744
1742.16601,0.01759
1741.13575,0.01786
1740.10550,0.01818
1739.07524,0.01850
1738.04498,0.01884
1737.01472,0.01915
1735.98446,0.01933
1734.95421,0.01941
1733.92395,0.01957
1732.89369,0.01984
1731.86343,0.02015
1730.83318,0.02047
1729.80292,0.02103
1728.77266,0.02183
1727.74240,0.02223
1726.71214,0.02237
1725.68189,0.02287
1724.65163,0.02359
1723.62137,0.02414
1722.59111,0.02463
1721.56085,0.02514
1720.53060,0.02552
1719.50034,0.02564
1718.47008,0.02583
1717.43982,0.02667
1716.40957,0.02751
1715.37931,0.02822
1714.34905,0.02909
1713.31879,0.02976
1712.28853,0.03026
1711.25828,0.03087
1710.22802,0.03167
1709.19776,0.03250
1708.16750,0.03319
1707.13725,0.03374
1706.10699,0.03430
1705.07673,0.03507
1704.04647,0.03611
1703.01621,0.03720
1701.98596,0.03828
1700.95570,0.03948
1699.92544,0.04118
1698.89518,0.04241
1697.86492,0.04322
1696.83467,0.04427
1695.80441,0.04614
1694.77415,0.04799
1693.74389,0.04913
1692.71364,0.05036
1691.68338,0.05170
1690.65312,0.05292
1689.62286,0.05424
1688.59260,0.05576
1687.56235,0.05734
1686.53209,0.05901
1685.50183,0.06099
1684.47157,0.06336
1683.44131,0.06499
1682.41106,0.06622
1681.38080,0.06797
1680.35054,0.06994
1679.32028,0.07171
1678.29003,0.07348
1677.25977,0.07549
1676.22951,0.07749
1675.19925,0.07947
1674.16899,0.08150
1673.13874,0.08342
1672.10848,0.08523
1671.07822,0.08696
1670.04796,0.08886
1669.01771,0.09107
1667.98745,0.09311
1666.95719,0.09484
1665.92693,0.09657
1664.89667,0.09846
1663.86642,0.10052
1662.83616,0.10255
1661.80590,0.10444
1660.77564,0.10640
1659.74538,0.10829
1658.71513,0.10969
1657.68487,0.11094
1656.65461,0.11256
1655.62435,0.11444
1654.59410,0.11603
1653.56384,0.11669
1652.53358,0.11709
1651.50332,0.11867
1650.47306,0.12030
1649.44281,0.12150
1648.41255,0.12220
1647.38229,0.12261
1646.35203,0.12306
1645.32177,0.12352
1644.29152,0.12402
1643.26126,0.12428
1642.23100,0.12413
1641.20074,0.12365
1640.17049,0.12310
1639.14023,0.12290
1638.10997,0.12281
1637.07971,0.12246
1636.04945,0.12141
1635.01920,0.11943
1633.98894,0.11832
1632.95868,0.11750
1631.92842,0.11587
1630.89816,0.11399
1629.86791,0.11243
1628.83765,0.11083
1627.80739,0.10844
1626.77713,0.10586
1625.74688,0.10401
1624.71662,0.10232
1623.68636,0.10008
1622.65610,0.09749
1621.62584,0.09529
1620.59559,0.09310
1619.56533,0.09081
1618.53507,0.08880
1617.50481,0.08683
1616.47456,0.08400
1615.44430,0.08149
1614.41404,0.07964
1613.38378,0.07768
1612.35352,0.07557
1611.32327,0.07349
1610.29301,0.07142
1609.26275,0.06930
1608.23249,0.06746
1607.20223,0.06568
1606.17198,0.06377
1605.14172,0.06224
1604.11146,0.06110
1603.08120,0.05974
1602.05095,0.05813
1601.02069,0.05652
1599.99043,0.05509
1598.96017,0.05400
1597.92991,0.05312
1596.89966,0.05225
1595.86940,0.05125
1594.83914,0.05024
1593.80888,0.04936
1592.77862,0.04850
1591.74837,0.04753
1590.71811,0.04673
1589.68785,0.04607
1588.65759,0.04526
1587.62734,0.04427
1586.59708,0.04334
1585.56682,0.04264
1584.53656,0.04201
1583.50630,0.04123
1582.47605,0.04050
1581.44579,0.04015
1580.41553,0.04008
1579.38527,0.03981
1578.35501,0.03913
1577.32476,0.03818
1576.29450,0.03705
1575.26424,0.03647
1574.23398,0.03650
1573.20373,0.03646
1572.17347,0.03619
1571.14321,0.03591
1570.11295,0.03564
1569.08269,0.03511
1568.05244,0.03460
1567.02218,0.03434
1565.99192,0.03408
1564.96166,0.03365
1563.93141,0.03319
1562.90115,0.03282
1561.87089,0.03268
1560.84063,0.03286
1559.81037,0.03328
1558.78012,0.03340
1557.74986,0.03234
1556.71960,0.03138
1555.68934,0.03115
1554.65908,0.03125
1553.62883,0.03120
1552.59857,0.03075
1551.56831,0.03026
1550.53805,0.03020
1549.50780,0.03048
1548.47754,0.03041
1547.44728,0.02994
1546.41702,0.02955
1545.38676,0.02944
1544.35651,0.02917
1543.32625,0.02874
1542.29599,0.02866
1541.26573,0.02897
1540.23547,0.02881
1539.20522,0.02839
1538.17496,0.02864
1537.14470,0.02879
1536.11444,0.02863
1535.08419,0.02836
1534.05393,0.02801
1533.02367,0.02788
1531.99341,0.02800
1530.96315,0.02793
1529.93290,0.02787
1528.90264,0.02799
1527.87238,0.02812
1526.84212,0.02816
1525.81186,0.02792
1524.78161,0.02759
1523.75135,0.02759
1522.72109,0.02758
1521.69083,0.02754
1520.66058,0.02784
1519.63032,0.02799
1518.60006,0.02786
1517.56980,0.02754
1516.53954,0.02730
1515.50929,0.02761
1514.47903,0.02811
1513.44877,0.02826
1512.41851,0.02810
1511.38826,0.02805
1510.35800,0.02805
1509.32774,0.02808
1508.29748,0.02818
1507.26722,0.02799
1506.23697,0.02763
1505.20671,0.02784
1504.17645,0.02823
1503.14619,0.02853
1502.11593,0.02876
1501.08568,0.02901
1500.05542,0.02925
1499.02516,0.02945
1497.99490,0.02969
1496.96465,0.03008
1495.93439,0.03083
1494.90413,0.03157
1493.87387,0.03217
1492.84361,0.03294
1491.81336,0.03396
1490.78310,0.03514
1489.75284,0.03620
1488.72258,0.03697
1487.69232,0.03780
1486.66207,0.03879
1485.63181,0.03972
1484.60155,0.04066
1483.57129,0.04173
1482.54104,0.04306
1481.51078,0.04481
1480.48052,0.04709
1479.45026,0.04979
1478.42000,0.05268
1477.38975,0.05570
1476.35949,0.05927
1475.32923,0.06275
1474.29897,0.06520
1473.26871,0.06710
1472.23846,0.06827
1471.20820,0.06847
1470.17794,0.06841
1469.14768,0.06852
1468.11743,0.06866
1467.08717,0.06869
1466.05691,0.06872
1465.02665,0.06901
1463.99639,0.06959
1462.96614,0.07025
1461.93588,0.07092
1460.90562,0.07144
1459.87536,0.07172
1458.84511,0.07213
1457.81485,0.07299
1456.78459,0.07397
1455.75433,0.07460
1454.72407,0.07452
1453.69382,0.07365
1452.66356,0.07210
1451.63330,0.07002
1450.60304,0.06785
1449.57278,0.06599
1448.54253,0.06462
1447.51227,0.06342
1446.48201,0.06204
1445.45175,0.06051
1444.42150,0.05905
1443.39124,0.05774
1442.36098,0.05639
1441.33072,0.05481
1440.30046,0.05311
1439.27021,0.05142
1438.23995,0.04989
1437.20969,0.04827
1436.17943,0.04640
1435.14917,0.04530
1434.11892,0.04456
1433.08866,0.04362
1432.05840,0.04280
1431.02814,0.04237
1429.99789,0.04197
1428.96763,0.04137
1427.93737,0.04094
1426.90711,0.04081
1425.87685,0.04075
1424.84660,0.04057
1423.81634,0.04040
1422.78608,0.04031
1421.75582,0.04022
1420.72556,0.04016
1419.69531,0.04008
1418.66505,0.04006
1417.63479,0.04020
1416.60453,0.04018
1415.57428,0.04017
1414.54402,0.04028
1413.51376,0.04026
1412.48350,0.04027
1411.45324,0.04034
1410.42299,0.04023
1409.39273,0.04017
1408.36247,0.04027
1407.33221,0.04024
1406.30196,0.04018
1405.27170,0.04018
1404.24144,0.04007
1403.21118,0.03988
1402.18092,0.03986
1401.15067,0.04008
1400.12041,0.04030
1399.09015,0.04036
1398.05989,0.04032
1397.02963,0.04027
1395.99938,0.04036
1394.96912,0.04073
1393.93886,0.04096
1392.90860,0.04079
1391.87835,0.04061
1390.84809,0.04065
1389.81783,0.04082
1388.78757,0.04101
1387.75731,0.04128
1386.72706,0.04167
1385.69680,0.04200
1384.66654,0.04211
1383.63628,0.04225
1382.60602,0.04258
1381.57577,0.04280
1380.54551,0.04294
1379.51525,0.04338
1378.48499,0.04411
1377.45474,0.04486
1376.42448,0.04541
1375.39422,0.04592
1374.36396,0.04660
1373.33370,0.04739
1372.30345,0.04819
1371.27319,0.04901
1370.24293,0.05009
1369.21267,0.05156
1368.18241,0.05313
1367.15216,0.05454
1366.12190,0.05601
1365.09164,0.05770
1364.06138,0.05960
1363.03113,0.06194
1362.00087,0.06472
1360.97061,0.06780
1359.94035,0.07105
1358.91009,0.07432
1357.87984,0.07773
1356.84958,0.08133
1355.81932,0.08526
1354.78906,0.08955
1353.75881,0.09407
1352.72855,0.09836
1351.69829,0.10202
1350.66803,0.10519
1349.63777,0.10745
1348.60752,0.10754
1347.57726,0.10467
1346.54700,0.09885
1345.51674,0.09045
1344.48648,0.08073
1343.45623,0.07157
1342.42597,0.06433
1341.39571,0.05933
1340.36545,0.05622
1339.33520,0.05447
1338.30494,0.05341
1337.27468,0.05268
1336.24442,0.05232
1335.21416,0.05244
1334.18391,0.05288
1333.15365,0.05334
1332.12339,0.05360
1331.09313,0.05351
1330.06287,0.05310
1329.03262,0.05258
1328.00236,0.05184
1326.97210,0.05079
1325.94184,0.04985
1324.91159,0.04922
1323.88133,0.04870
1322.85107,0.04816
1321.82081,0.04774
1320.79055,0.04773
1319.76030,0.04796
1318.73004,0.04828
1317.69978,0.04896
1316.66952,0.04999
1315.63927,0.05112
1314.60901,0.05238
1313.57875,0.05393
1312.54849,0.05561
1311.51823,0.05735
1310.48798,0.05926
1309.45772,0.06138
1308.42746,0.06366
1307.39720,0.06584
1306.36694,0.06768
1305.33669,0.06927
1304.30643,0.07064
1303.27617,0.07167
1302.24591,0.07240
1301.21566,0.07298
1300.18540,0.07340
1299.15514,0.07368
1298.12488,0.07383
1297.09462,0.07382
1296.06437,0.07359
1295.03411,0.07333
1294.00385,0.07335
1292.97359,0.07352
1291.94333,0.07358
1290.91308,0.07351
1289.88282,0.07355
1288.85256,0.07370
1287.82230,0.07358
1286.79205,0.07314
1285.76179,0.07258
1284.73153,0.07185
1283.70127,0.07087
1282.67101,0.06968
1281.64076,0.06834
1280.61050,0.06704
1279.58024,0.06595
1278.54998,0.06509
1277.51972,0.06420
1276.48947,0.06306
1275.45921,0.06180
1274.42895,0.06079
1273.39869,0.06012
1272.36844,0.05960
1271.33818,0.05928
1270.30792,0.05917
1269.27766,0.05911
1268.24740,0.05917
1267.21715,0.05965
1266.18689,0.06084
1265.15663,0.06253
1264.12637,0.06436
1263.09612,0.06606
1262.06586,0.06757
1261.03560,0.06938
1260.00534,0.07166
1258.97508,0.07397
1257.94483,0.07607
1256.91457,0.07819
1255.88431,0.08019
1254.85405,0.08177
1253.82379,0.08323
1252.79354,0.08479
1251.76328,0.08592
1250.73302,0.08624
1249.70276,0.08590
1248.67251,0.08507
1247.64225,0.08380
1246.61199,0.08238
1245.58173,0.08075
1244.55147,0.07861
1243.52122,0.07617
1242.49096,0.07383
1241.46070,0.07165
1240.43044,0.06956
1239.40018,0.06760
1238.36993,0.06571
1237.33967,0.06389
1236.30941,0.06212
1235.27915,0.06023
1234.24890,0.05821
1233.21864,0.05652
1232.18838,0.05507
1231.15812,0.05336
1230.12786,0.05177
1229.09761,0.05067
1228.06735,0.04978
1227.03709,0.04889
1226.00683,0.04812
1224.97657,0.04750
1223.94632,0.04686
1222.91606,0.04611
1221.88580,0.04538
1220.85554,0.04478
1219.82529,0.04417
1218.79503,0.04358
1217.76477,0.04316
1216.73451,0.04257
1215.70425,0.04187
1214.67400,0.04148
1213.64374,0.04129
1212.61348,0.04104
1211.58322,0.04069
1210.55297,0.04024
1209.52271,0.04002
1208.49245,0.04011
1207.46219,0.04000
1206.43193,0.03963
1205.40168,0.03939
1204.37142,0.03926
1203.34116,0.03905
1202.31090,0.03883
1201.28064,0.03870
1200.25039,0.03859
1199.22013,0.03857
1198.18987,0.03877
1197.15961,0.03904
1196.12936,0.03926
1195.09910,0.03948
1194.06884,0.03956
1193.03858,0.03943
1192.00832,0.03933
1190.97807,0.03924
1189.94781,0.03922
1188.91755,0.03955
1187.88729,0.03997
1186.85703,0.04029
1185.82678,0.04065
1184.79652,0.04094
1183.76626,0.04108
1182.73600,0.04113
1181.70575,0.04126
1180.67549,0.04160
1179.64523,0.04195
1178.61497,0.04215
1177.58471,0.04243
1176.55446,0.04292
1175.52420,0.04351
1174.49394,0.04408
1173.46368,0.04464
1172.43342,0.04519
1171.40317,0.04596
1170.37291,0.04694
1169.34265,0.04807
1168.31239,0.04916
1167.28214,0.05018
1166.25188,0.05143
1165.22162,0.05280
1164.19136,0.05430
1163.16110,0.05629
1162.13085,0.05878
1161.10059,0.06138
1160.07033,0.06424
1159.04007,0.06785
1158.00982,0.07174
1156.97956,0.07545
1155.94930,0.07943
1154.91904,0.08408
1153.88878,0.08918
1152.85853,0.09441
1151.82827,0.09977
1150.79801,0.10537
1149.76775,0.11112
1148.73749,0.11685
1147.70724,0.12256
1146.67698,0.12819
1145.64672,0.13358
1144.61646,0.13888
1143.58621,0.14417
1142.55595,0.14908
1141.52569,0.15356
1140.49543,0.15810
1139.46517,0.16278
1138.43492,0.16683
1137.40466,0.16996
1136.37440,0.17289
1135.34414,0.17596
1134.31388,0.17907
1133.28363,0.18174
1132.25337,0.18377
1131.22311,0.18624
1130.19285,0.18930
1129.16260,0.19199
1128.13234,0.19461
1127.10208,0.19763
1126.07182,0.20086
1125.04156,0.20437
1124.01131,0.20836
1122.98105,0.21263
1121.95079,0.21724
1120.92053,0.22232
1119.89027,0.22736
1118.86002,0.23209
1117.82976,0.23666
1116.79950,0.24132
1115.76924,0.24642
1114.73899,0.25173
1113.70873,0.25683
1112.67847,0.26194
1111.64821,0.26729
1110.61795,0.27272
1109.58770,0.27798
1108.55744,0.28305
1107.52718,0.28836
1106.49692,0.29433
1105.46667,0.30046
1104.43641,0.30622
1103.40615,0.31189
1102.37589,0.31774
1101.34563,0.32363
1100.31538,0.32940
1099.28512,0.33485
1098.25486,0.33999
1097.22460,0.34505
1096.19434,0.35013
1095.16409,0.35508
1094.13383,0.35978
1093.10357,0.36391
1092.07331,0.36725
1091.04306,0.37019
1090.01280,0.37322
1088.98254,0.37642
1087.95228,0.37926
1086.92202,0.38143
1085.89177,0.38292
1084.86151,0.38383
1083.83125,0.38433
1082.80099,0.38433
1081.77073,0.38377
1080.74048,0.38238
1079.71022,0.38044
1078.67996,0.37858
1077.64970,0.37653
1076.61945,0.37443
1075.58919,0.37254
1074.55893,0.37007
1073.52867,0.36655
1072.49841,0.36276
1071.46816,0.35928
1070.43790,0.35561
1069.40764,0.35130
1068.37738,0.34641
1067.34712,0.34102
1066.31687,0.33573
1065.28661,0.33040
1064.25635,0.32401
1063.22609,0.31651
1062.19584,0.30814
1061.16558,0.29898
1060.13532,0.28920
1059.10506,0.27913
1058.07480,0.26926
1057.04455,0.25966
1056.01429,0.24990
1054.98403,0.23951
1053.95377,0.22897
1052.92352,0.21911
1051.89326,0.20993
1050.86300,0.20130
1049.83274,0.19339
1048.80248,0.18654
1047.77223,0.18109
1046.74197,0.17667
1045.71171,0.17283
1044.68145,0.16961
1043.65119,0.16706
1042.62094,0.16533
1041.59068,0.16413
1040.56042,0.16287
1039.53016,0.16170
1038.49991,0.16094
1037.46965,0.16042
1036.43939,0.15961
1035.40913,0.15827
1034.37887,0.15676
1033.34862,0.15525
1032.31836,0.15323
1031.28810,0.15079
1030.25784,0.14832
1029.22758,0.14571
1028.19733,0.14266
1027.16707,0.13909
1026.13681,0.13540
1025.10655,0.13194
1024.07630,0.12839
1023.04604,0.12452
1022.01578,0.12066
1020.98552,0.11690
1019.95526,0.11311
1018.92501,0.10931
1017.89475,0.10567
1016.86449,0.10212
1015.83423,0.09868
1014.80397,0.09588
1013.77372,0.09369
1012.74346,0.09164
1011.71320,0.08954
1010.68294,0.08733
1009.65269,0.08534
1008.62243,0.08371
1007.59217,0.08233
1006.56191,0.08129
1005.53165,0.08042
1004.50140,0.07956
1003.47114,0.07893
1002.44088,0.07864
1001.41062,0.07843
1000.38037,0.07793
999.35011,0.07715
998.31985,0.07667
997.28959,0.07659
996.25933,0.07629
995.22908,0.07574
994.19882,0.07546
993.16856,0.07528
992.13830,0.07474
991.10804,0.07419
990.07779,0.07428
989.04753,0.07450
988.01727,0.07390
986.98701,0.07276
985.95676,0.07182
984.92650,0.07122
983.89624,0.07086
982.86598,0.07056
981.83572,0.07015
980.80547,0.06961
979.77521,0.06893
978.74495,0.06835
977.71469,0.06834
976.68443,0.06864
975.65418,0.06870
974.62392,0.06875
973.59366,0.06921
972.56340,0.06993
971.53315,0.07061
970.50289,0.07149
969.47263,0.07278
968.44237,0.07436
967.41211,0.07610
966.38186,0.07810
965.35160,0.08080
964.32134,0.08413
963.29108,0.08772
962.26082,0.09184
961.23057,0.09689
960.20031,0.10257
959.17005,0.10839
958.13979,0.11434
957.10954,0.12055
956.07928,0.12688
955.04902,0.13313
954.01876,0.13921
952.98850,0.14479
951.95825,0.14967
950.92799,0.15378
949.89773,0.15698
948.86747,0.15950
947.83722,0.16156
946.80696,0.16270
945.77670,0.16256
944.74644,0.16175
943.71618,0.16074
942.68593,0.15917
941.65567,0.15698
940.62541,0.15456
939.59515,0.15220
938.56489,0.14998
937.53464,0.14770
936.50438,0.14530
935.47412,0.14298
934.44386,0.14073
933.41361,0.13848
932.38335,0.13612
931.35309,0.13347
930.32283,0.13072
929.29257,0.12811
928.26232,0.12566
927.23206,0.12369
926.20180,0.12219
925.17154,0.12065
924.14128,0.11885
923.11103,0.11724
922.08077,0.11625
921.05051,0.11521
920.02025,0.11385
918.99000,0.11271
917.95974,0.11170
916.92948,0.11076
915.89922,0.10995
914.86896,0.10889
913.83871,0.10755
912.80845,0.10638
911.77819,0.10523
910.74793,0.10362
909.71768,0.10202
908.68742,0.10083
907.65716,0.09959
906.62690,0.09813
905.59664,0.09685
904.56639,0.09611
903.53613,0.09579
902.50587,0.09526
901.47561,0.09441
900.44535,0.09395
899.41510,0.09403
898.38484,0.09438
897.35458,0.09500
896.32432,0.09587
895.29407,0.09712
894.26381,0.09867
893.23355,0.10029
892.20329,0.10175
891.17303,0.10313
890.14278,0.10509
889.11252,0.10740
888.08226,0.10939
887.05200,0.11107
886.02174,0.11231
884.99149,0.11272
883.96123,0.11257
882.93097,0.11240
881.90071,0.11219
880.87046,0.11181
879.84020,0.11143
878.80994,0.11109
877.77968,0.11074
876.74942,0.11036
875.71917,0.11009
874.68891,0.11017
873.65865,0.11054
872.62839,0.11118
871.59813,0.11204
870.56788,0.11277
869.53762,0.11333
868.50736,0.11424
867.47710,0.11541
866.44685,0.11625
865.41659,0.11701
864.38633,0.11776
863.35607,0.11843
862.32581,0.11939
861.29556,0.12066
860.26530,0.12204
859.23504,0.12344
858.20478,0.12481
857.17453,0.12641
856.14427,0.12863
855.11401,0.13124
854.08375,0.13388
853.05349,0.13633
852.02324,0.13826
850.99298,0.13992
849.96272,0.14205
848.93246,0.14432
847.90220,0.14615
846.87195,0.14803
845.84169,0.14999
844.81143,0.15167
843.78117,0.15324
842.75092,0.15482
841.72066,0.15649
840.69040,0.15815
839.66014,0.15957
838.62988,0.16070
837.59963,0.16172
836.56937,0.16278
835.53911,0.16368
834.50885,0.16422
833.47859,0.16472
832.44834,0.16519
831.41808,0.16520
830.38782,0.16497
829.35756,0.16501
828.32731,0.16514
827.29705,0.16503
826.26679,0.16443
825.23653,0.16368
824.20627,0.16348
823.17602,0.16377
822.14576,0.16419
821.11550,0.16429
820.08524,0.16365
819.05498,0.16321
818.02473,0.16389
816.99447,0.16500
815.96421,0.16582
814.93395,0.16607
813.90370,0.16587
812.87344,0.16582
811.84318,0.16621
810.81292,0.16705
809.78266,0.16785
808.75241,0.16833
807.72215,0.16909
806.69189,0.17042
805.66163,0.17152
804.63138,0.17173
803.60112,0.17159
802.57086,0.17209
801.54060,0.17325
800.51034,0.17415
799.48009,0.17460
798.44983,0.17488
797.41957,0.17529
796.38931,0.17600
795.35905,0.17676
794.32880,0.17728
793.29854,0.17813
792.26828,0.17951
791.23802,0.18027
790.20777,0.18051
789.17751,0.18147
788.14725,0.18299
787.11699,0.18386
786.08673,0.18393
785.05648,0.18436
784.02622,0.18526
782.99596,0.18609
781.96570,0.18711
780.93544,0.18815
779.90519,0.18910
778.87493,0.19051
777.84467,0.19205
776.81441,0.19344
775.78416,0.19496
774.75390,0.19600
773.72364,0.19646
772.69338,0.19739
771.66312,0.19846
770.63287,0.19923
769.60261,0.20057
768.57235,0.20230
767.54209,0.20355
766.51183,0.20424
765.48158,0.20497
764.45132,0.20614
763.42106,0.20714
762.39080,0.20839
761.36055,0.21016
760.33029,0.21154
759.30003,0.21269
758.26977,0.21413
757.23951,0.21580
756.20926,0.21732
755.17900,0.21816
754.14874,0.21860
753.11848,0.21974
752.08823,0.22127
751.05797,0.22251
750.02771,0.22413
748.99745,0.22605
747.96719,0.22770
746.93694,0.22914
745.90668,0.23062
744.87642,0.23226
743.84616,0.23336
742.81590,0.23376
741.78565,0.23439
740.75539,0.23584
739.72513,0.23793
738.69487,0.23997
737.66462,0.24130
736.63436,0.24196
735.60410,0.24251
734.57384,0.24317
733.54358,0.24424
732.51333,0.24584
731.48307,0.24746
730.45281,0.24912
729.42255,0.25092
728.39229,0.25237
727.36204,0.25342
726.33178,0.25420
725.30152,0.25507
724.27126,0.25654
723.24101,0.25823
722.21075,0.25968
721.18049,0.26139
720.15023,0.26324
719.11997,0.26431
718.08972,0.26533
717.05946,0.26714
716.02920,0.26868
714.99894,0.26987
713.96868,0.27146
712.93843,0.27289
711.90817,0.27426
710.87791,0.27611
709.84765,0.27770
708.81740,0.27850
707.78714,0.27906
706.75688,0.28013
705.72662,0.28175
704.69636,0.28344
703.66611,0.28471
702.63585,0.28528
701.60559,0.28565
700.57533,0.28603
699.54508,0.28711
698.51482,0.28923
697.48456,0.29096
696.45430,0.29204
695.42404,0.29338
694.39379,0.29484
693.36353,0.29586
692.33327,0.29665
691.30301,0.29746
690.27275,0.29837
689.24250,0.30009
688.21224,0.30275
687.18198,0.30492
686.15172,0.30519
685.12147,0.30498
684.09121,0.30633
683.06095,0.30799
682.03069,0.30874
681.00043,0.30951
679.97018,0.31063
678.93992,0.31197
677.90966,0.31374
676.87940,0.31561
675.84914,0.31686
674.81889,0.31755
673.78863,0.31812
672.75837,0.31875
671.72811,0.31947
670.69786,0.32092
669.66760,0.32333
668.63734,0.32402
667.60708,0.32151
666.57682,0.32268
665.54657,0.32547
664.51631,0.32774
663.48605,0.32955
662.45579,0.33137
661.42553,0.33327
660.39528,0.33446
659.36502,0.33404
658.33476,0.33306
657.30450,0.33330
656.27425,0.33550
655.24399,0.33812
654.21373,0.33893
653.18347,0.33879
652.15321,0.33976
651.12296,0.34203
650.09270,0.34390
649.06244,0.34425
648.03218,0.34407
647.00193,0.34420
645.97167,0.34434
644.94141,0.34496
643.91115,0.34667
642.88089,0.34889
641.85064,0.35082
640.82038,0.35194
639.79012,0.35231
638.75986,0.35271
637.72960,0.35354
636.69935,0.35426
635.66909,0.35516
634.63883,0.35697
633.60857,0.35822
632.57832,0.35777
631.54806,0.35676
630.51780,0.35709
629.48754,0.35897
628.45728,0.36070
627.42703,0.36171
626.39677,0.36230
625.36651,0.36244
624.33625,0.36259
623.30599,0.36391
622.27574,0.36613
621.24548,0.36682
620.21522,0.36668
619.18496,0.36717
618.15471,0.36709
617.12445,0.36667
616.09419,0.36713
615.06393,0.36861
614.03367,0.36991
613.00342,0.37076
611.97316,0.37259
610.94290,0.37495
609.91264,0.37579
608.88238,0.37594
607.85213,0.37731
606.82187,0.37903
605.79161,0.38055
604.76135,0.38206
603.73110,0.38257
602.70084,0.38206
601.67058,0.38224
600.64032,0.38327
599.61006,0.38347
598.57981,0.38291
597.54955,0.38344
596.51929,0.38593
595.48903,0.38854
594.45878,0.38973
593.42852,0.39015
592.39826,0.39048
591.36800,0.39106
590.33774,0.39176
589.30749,0.39259
588.27723,0.39368
587.24697,0.39416
586.21671,0.39461
585.18645,0.39652
584.15620,0.39871
583.12594,0.39925
582.09568,0.39838
581.06542,0.39864
580.03517,0.40026
579.00491,0.40136
577.97465,0.40169
576.94439,0.40164
575.91413,0.40228
574.88388,0.40344
573.85362,0.40539
572.82336,0.40864
571.79310,0.41051
570.76284,0.40883
569.73259,0.40600
568.70233,0.40554
567.67207,0.40614
566.64181,0.40611
565.61156,0.40670
564.58130,0.40830
563.55104,0.41021
562.52078,0.41120
561.49052,0.41107
560.46027,0.41125
559.43001,0.41232
558.39975,0.41398
557.36949,0.41539
556.33924,0.41658
555.30898,0.41777
554.27872,0.41782
553.24846,0.41743
552.21820,0.41767
551.18795,0.41951
550.15769,0.42197
549.12743,0.42124
548.09717,0.41913
547.06691,0.41970
546.03666,0.42198
545.00640,0.42410
543.97614,0.42464
542.94588,0.42404
541.91563,0.42456
540.88537,0.42431
539.85511,0.42222
538.82485,0.42138
537.79459,0.42224
536.76434,0.42410
535.73408,0.42660
534.70382,0.42754
533.67356,0.42775
532.64330,0.43006
531.61305,0.43212
530.58279,0.43074
529.55253,0.42917
528.52227,0.43107
527.49202,0.43415
526.46176,0.43564
525.43150,0.43411
524.40124,0.43100
523.37098,0.43127
522.34073,0.43509
521.31047,0.43704
520.28021,0.43537
519.24995,0.43414
518.21969,0.43580
517.18944,0.43802
516.15918,0.43772
515.12892,0.43673
514.09866,0.43701
513.06841,0.43742
512.03815,0.43861
511.00789,0.44044
509.97763,0.44109
508.94737,0.44087
507.91712,0.44137
506.88686,0.44210
505.85660,0.44231
504.82634,0.44234
503.79609,0.44249
502.76583,0.44385
501.73557,0.44501
500.70531,0.44452
499.67505,0.44467
498.64480,0.44441
497.61454,0.44189
496.58428,0.44009
495.55402,0.43922
494.52376,0.43821
493.49351,0.43708
492.46325,0.43419
491.43299,0.43197
490.40273,0.43287
489.37248,0.43323
488.34222,0.43212
487.31196,0.43320
486.28170,0.43580
485.25144,0.43768
484.22119,0.43855
483.19093,0.43952
482.16067,0.44214
481.13041,0.44323
480.10015,0.44064
479.06990,0.43700
478.03964,0.43596
477.00938,0.43821
475.97912,0.43859
474.94887,0.43605
473.91861,0.43516
472.88835,0.43556
471.85809,0.43564
470.82783,0.43714
469.79758,0.43939
468.76732,0.43976
467.73706,0.43682
466.70680,0.43349
465.67654,0.43441
464.64629,0.43611
463.61603,0.43460
462.58577,0.43310
461.55551,0.43231
460.52526,0.43199
459.49500,0.43462
458.46474,0.43810
457.43448,0.43598
456.40422,0.43232
455.37397,0.43186
454.34371,0.43095
453.31345,0.43020
452.28319,0.43233
451.25294,0.43492
450.22268,0.43545
449.19242,0.43645
448.16216,0.43776
447.13190,0.43795
446.10165,0.44113
445.07139,0.44545
444.04113,0.44364
443.01087,0.43666
441.98061,0.43034
440.95036,0.42956
439.92010,0.43613
438.88984,0.44135
437.85958,0.44100
436.82933,0.43977
435.79907,0.43892
434.76881,0.43815
433.73855,0.43601
432.70829,0.43472
431.67804,0.43790
430.64778,0.44213
429.61752,0.44016
428.58726,0.43128
427.55700,0.42138
426.52675,0.41636
425.49649,0.41690
424.46623,0.41774
423.43597,0.41783
422.40572,0.41657
421.37546,0.41190
420.34520,0.41002
419.31494,0.41596
418.28468,0.41747
417.25443,0.41663
416.22417,0.42114
415.19391,0.42596
414.16365,0.43238
413.13339,0.43555
412.10314,0.42960
411.07288,0.42662
410.04262,0.42940
409.01236,0.43056
407.98211,0.42989
406.95185,0.42992
405.92159,0.42868
404.89133,0.42380
403.86107,0.42315
402.83082,0.42684
401.80056,0.42703
400.77030,0.42654
399.74004,0.42857
