4998.81105,0.00270
4997.78079,0.00314
4996.75054,0.00290
4995.72028,0.00214
4994.69002,0.00140
4993.65976,0.00137
4992.62951,0.00176
4991.59925,0.00244
4990.56899,0.00329
4989.53873,0.00324
4988.50847,0.00264
4987.47822,0.00222
4986.44796,0.00159
4985.41770,0.00113
4984.38744,0.00126
4983.35718,0.00172
4982.32693,0.00253
4981.29667,0.00336
4980.26641,0.00379
4979.23615,0.00382
4978.20590,0.00373
4977.17564,0.00334
4976.14538,0.00258
4975.11512,0.00257
4974.08486,0.00328
4973.05461,0.00295
4972.02435,0.00166
4970.99409,0.00106
4969.96383,0.00145
4968.93357,0.00204
4967.90332,0.00246
4966.87306,0.00270
4965.84280,0.00257
4964.81254,0.00221
4963.78229,0.00220
4962.75203,0.00247
4961.72177,0.00249
4960.69151,0.00184
4959.66125,0.00116
4958.63100,0.00232
4957.60074,0.00452
4956.57048,0.00533
4955.54022,0.00494
4954.50997,0.00416
4953.47971,0.00325
4952.44945,0.00243
4951.41919,0.00172
4950.38893,0.00127
4949.35868,0.00139
4948.32842,0.00187
4947.29816,0.00200
4946.26790,0.00193
4945.23764,0.00178
4944.20739,0.00174
4943.17713,0.00222
4942.14687,0.00239
4941.11661,0.00220
4940.08636,0.00248
4939.05610,0.00275
4938.02584,0.00229
4936.99558,0.00163
4935.96532,0.00153
4934.93507,0.00145
4933.90481,0.00107
4932.87455,0.00112
4931.84429,0.00133
4930.81403,0.00111
4929.78378,0.00075
4928.75352,0.00099
4927.72326,0.00228
4926.69300,0.00312
4925.66275,0.00233
4924.63249,0.00169
4923.60223,0.00223
4922.57197,0.00293
4921.54171,0.00355
4920.51146,0.00418
4919.48120,0.00424
4918.45094,0.00350
4917.42068,0.00240
4916.39042,0.00165
4915.36017,0.00162
4914.32991,0.00177
4913.29965,0.00164
4912.26939,0.00167
4911.23914,0.00201
4910.20888,0.00226
4909.17862,0.00264
4908.14836,0.00319
4907.11810,0.00329
4906.08785,0.00288
4905.05759,0.00294
4904.02733,0.00327
4902.99707,0.00237
4901.96682,0.00170
4900.93656,0.00264
4899.90630,0.00367
4898.87604,0.00395
4897.84578,0.00363
4896.81553,0.00264
4895.78527,0.00160
4894.75501,0.00175
4893.72475,0.00286
4892.69449,0.00356
4891.66424,0.00355
4890.63398,0.00367
4889.60372,0.00400
4888.57346,0.00344
4887.54321,0.00218
4886.51295,0.00167
4885.48269,0.00231
4884.45243,0.00339
4883.42217,0.00353
4882.39192,0.00274
4881.36166,0.00253
4880.33140,0.00214
4879.30114,0.00124
4878.27088,0.00136
4877.24063,0.00163
4876.21037,0.00085
4875.18011,0.00045
4874.14985,0.00136
4873.11960,0.00248
4872.08934,0.00284
4871.05908,0.00273
4870.02882,0.00278
4868.99856,0.00281
4867.96831,0.00264
4866.93805,0.00299
4865.90779,0.00347
4864.87753,0.00296
4863.84727,0.00214
4862.81702,0.00188
4861.78676,0.00143
4860.75650,0.00084
4859.72624,0.00096
4858.69599,0.00171
4857.66573,0.00258
4856.63547,0.00297
4855.60521,0.00250
4854.57495,0.00144
4853.54470,0.00050
4852.51444,0.00045
4851.48418,0.00129
4850.45392,0.00189
4849.42367,0.00191
4848.39341,0.00213
4847.36315,0.00232
4846.33289,0.00237
4845.30263,0.00296
4844.27238,0.00315
4843.24212,0.00246
4842.21186,0.00216
4841.18160,0.00254
4840.15134,0.00293
4839.12109,0.00303
4838.09083,0.00281
4837.06057,0.00213
4836.03031,0.00171
4835.00006,0.00183
4833.96980,0.00147
4832.93954,0.00124
4831.90928,0.00203
4830.87902,0.00264
4829.84877,0.00267
4828.81851,0.00224
4827.78825,0.00147
4826.75799,0.00174
4825.72773,0.00271
4824.69748,0.00291
4823.66722,0.00285
4822.63696,0.00293
4821.60670,0.00282
4820.57645,0.00245
4819.54619,0.00226
4818.51593,0.00303
4817.48567,0.00429
4816.45541,0.00480
4815.42516,0.00436
4814.39490,0.00369
4813.36464,0.00304
4812.33438,0.00238
4811.30412,0.00220
4810.27387,0.00216
4809.24361,0.00193
4808.21335,0.00216
4807.18309,0.00219
4806.15284,0.00180
4805.12258,0.00196
4804.09232,0.00268
4803.06206,0.00307
4802.03180,0.00226
4801.00155,0.00150
4799.97129,0.00229
4798.94103,0.00361
4797.91077,0.00413
4796.88052,0.00369
4795.85026,0.00312
4794.82000,0.00282
4793.78974,0.00245
4792.75948,0.00228
4791.72923,0.00296
4790.69897,0.00395
4789.66871,0.00363
4788.63845,0.00214
4787.60819,0.00084
4786.57794,0.00047
4785.54768,0.00127
4784.51742,0.00244
4783.48716,0.00278
4782.45691,0.00214
4781.42665,0.00177
4780.39639,0.00226
4779.36613,0.00249
4778.33587,0.00192
4777.30562,0.00107
4776.27536,0.00083
4775.24510,0.00118
4774.21484,0.00143
4773.18458,0.00205
4772.15433,0.00274
4771.12407,0.00246
4770.09381,0.00197
4769.06355,0.00188
4768.03330,0.00188
4767.00304,0.00180
4765.97278,0.00111
4764.94252,0.00059
4763.91226,0.00120
4762.88201,0.00200
4761.85175,0.00225
4760.82149,0.00219
4759.79123,0.00203
4758.76098,0.00211
4757.73072,0.00281
4756.70046,0.00397
4755.67020,0.00471
4754.63994,0.00470
4753.60969,0.00435
4752.57943,0.00356
4751.54917,0.00300
4750.51891,0.00318
4749.48865,0.00317
4748.45840,0.00244
4747.42814,0.00184
4746.39788,0.00195
4745.36762,0.00215
4744.33737,0.00206
4743.30711,0.00163
4742.27685,0.00094
4741.24659,0.00047
4740.21633,0.00082
4739.18608,0.00199
4738.15582,0.00279
4737.12556,0.00227
4736.09530,0.00139
4735.06504,0.00098
4734.03479,0.00077
4733.00453,0.00131
4731.97427,0.00234
4730.94401,0.00259
4729.91376,0.00240
4728.88350,0.00248
4727.85324,0.00261
4726.82298,0.00239
4725.79272,0.00158
4724.76247,0.00083
4723.73221,0.00099
4722.70195,0.00158
4721.67169,0.00166
4720.64143,0.00156
4719.61118,0.00192
4718.58092,0.00216
4717.55066,0.00188
4716.52040,0.00181
4715.49015,0.00259
4714.45989,0.00351
4713.42963,0.00374
4712.39937,0.00358
4711.36911,0.00313
4710.33886,0.00247
4709.30860,0.00243
4708.27834,0.00262
4707.24808,0.00207
4706.21783,0.00144
4705.18757,0.00175
4704.15731,0.00271
4703.12705,0.00295
4702.09679,0.00234
4701.06654,0.00170
4700.03628,0.00150
4699.00602,0.00188
4697.97576,0.00227
4696.94550,0.00217
4695.91525,0.00169
4694.88499,0.00139
4693.85473,0.00147
4692.82447,0.00165
4691.79422,0.00188
4690.76396,0.00215
4689.73370,0.00226
4688.70344,0.00255
4687.67318,0.00286
4686.64293,0.00255
4685.61267,0.00222
4684.58241,0.00227
4683.55215,0.00196
4682.52189,0.00146
4681.49164,0.00137
4680.46138,0.00129
4679.43112,0.00103
4678.40086,0.00123
4677.37061,0.00206
4676.34035,0.00278
4675.31009,0.00287
4674.27983,0.00228
4673.24957,0.00183
4672.21932,0.00230
4671.18906,0.00272
4670.15880,0.00249
4669.12854,0.00203
4668.09828,0.00147
4667.06803,0.00116
4666.03777,0.00175
4665.00751,0.00262
4663.97725,0.00290
4662.94700,0.00318
4661.91674,0.00346
4660.88648,0.00337
4659.85622,0.00337
4658.82596,0.00313
4657.79571,0.00232
4656.76545,0.00177
4655.73519,0.00221
4654.70493,0.00296
4653.67468,0.00278
4652.64442,0.00208
4651.61416,0.00178
4650.58390,0.00164
4649.55364,0.00184
4648.52339,0.00252
4647.49313,0.00300
4646.46287,0.00265
4645.43261,0.00175
4644.40235,0.00175
4643.37210,0.00247
4642.34184,0.00231
4641.31158,0.00152
4640.28132,0.00101
4639.25107,0.00128
4638.22081,0.00241
4637.19055,0.00329
4636.16029,0.00297
4635.13003,0.00209
4634.09978,0.00184
4633.06952,0.00199
4632.03926,0.00189
4631.00900,0.00178
4629.97874,0.00200
4628.94849,0.00245
4627.91823,0.00296
4626.88797,0.00340
4625.85771,0.00335
4624.82746,0.00288
4623.79720,0.00280
4622.76694,0.00354
4621.73668,0.00413
4620.70642,0.00388
4619.67617,0.00380
4618.64591,0.00391
4617.61565,0.00331
4616.58539,0.00261
4615.55513,0.00220
4614.52488,0.00121
4613.49462,0.00040
4612.46436,0.00123
4611.43410,0.00236
4610.40385,0.00203
4609.37359,0.00100
4608.34333,0.00094
4607.31307,0.00203
4606.28281,0.00277
4605.25256,0.00234
4604.22230,0.00158
4603.19204,0.00134
4602.16178,0.00136
4601.13153,0.00140
4600.10127,0.00187
4599.07101,0.00276
4598.04075,0.00313
4597.01049,0.00259
4595.98024,0.00206
4594.94998,0.00208
4593.91972,0.00213
4592.88946,0.00190
4591.85920,0.00198
4590.82895,0.00238
4589.79869,0.00229
4588.76843,0.00226
4587.73817,0.00278
4586.70792,0.00302
4585.67766,0.00258
4584.64740,0.00197
4583.61714,0.00209
4582.58688,0.00235
4581.55663,0.00180
4580.52637,0.00172
4579.49611,0.00250
4578.46585,0.00282
4577.43559,0.00269
4576.40534,0.00287
4575.37508,0.00307
4574.34482,0.00261
4573.31456,0.00201
4572.28431,0.00197
4571.25405,0.00195
4570.22379,0.00179
4569.19353,0.00201
4568.16327,0.00222
4567.13302,0.00205
4566.10276,0.00192
4565.07250,0.00212
4564.04224,0.00227
4563.01198,0.00201
4561.98173,0.00164
4560.95147,0.00163
4559.92121,0.00183
4558.89095,0.00167
4557.86070,0.00123
4556.83044,0.00113
4555.80018,0.00161
4554.76992,0.00217
4553.73966,0.00274
4552.70941,0.00318
4551.67915,0.00314
4550.64889,0.00294
4549.61863,0.00265
4548.58838,0.00249
4547.55812,0.00269
4546.52786,0.00281
4545.49760,0.00258
4544.46734,0.00218
4543.43709,0.00198
4542.40683,0.00211
4541.37657,0.00247
4540.34631,0.00300
4539.31605,0.00330
4538.28580,0.00345
4537.25554,0.00356
4536.22528,0.00305
4535.19502,0.00250
4534.16477,0.00255
4533.13451,0.00285
4532.10425,0.00333
4531.07399,0.00330
4530.04373,0.00222
4529.01348,0.00105
4527.98322,0.00077
4526.95296,0.00106
4525.92270,0.00144
4524.89244,0.00194
4523.86219,0.00257
4522.83193,0.00314
4521.80167,0.00302
4520.77141,0.00215
4519.74116,0.00168
4518.71090,0.00192
4517.68064,0.00239
4516.65038,0.00283
4515.62012,0.00287
4514.58987,0.00271
4513.55961,0.00285
4512.52935,0.00292
4511.49909,0.00274
4510.46883,0.00273
4509.43858,0.00282
4508.40832,0.00284
4507.37806,0.00328
4506.34780,0.00368
4505.31755,0.00304
4504.28729,0.00218
4503.25703,0.00182
4502.22677,0.00179
4501.19651,0.00199
4500.16626,0.00184
4499.13600,0.00134
4498.10574,0.00107
4497.07548,0.00132
4496.04523,0.00177
4495.01497,0.00198
4493.98471,0.00201
4492.95445,0.00215
4491.92419,0.00253
4490.89394,0.00264
4489.86368,0.00225
4488.83342,0.00218
4487.80316,0.00259
4486.77290,0.00262
4485.74265,0.00235
4484.71239,0.00245
4483.68213,0.00282
4482.65187,0.00306
4481.62162,0.00286
4480.59136,0.00221
4479.56110,0.00206
4478.53084,0.00271
4477.50058,0.00337
4476.47033,0.00364
4475.44007,0.00326
4474.40981,0.00218
4473.37955,0.00121
4472.34929,0.00097
4471.31904,0.00154
4470.28878,0.00232
4469.25852,0.00217
4468.22826,0.00152
4467.19801,0.00153
4466.16775,0.00201
4465.13749,0.00241
4464.10723,0.00310
4463.07697,0.00385
4462.04672,0.00342
4461.01646,0.00240
4459.98620,0.00207
4458.95594,0.00159
4457.92568,0.00087
4456.89543,0.00084
4455.86517,0.00122
4454.83491,0.00157
4453.80465,0.00175
4452.77440,0.00174
4451.74414,0.00162
4450.71388,0.00155
4449.68362,0.00199
4448.65336,0.00232
4447.62311,0.00205
4446.59285,0.00189
4445.56259,0.00204
4444.53233,0.00240
4443.50208,0.00262
4442.47182,0.00237
4441.44156,0.00240
4440.41130,0.00282
4439.38104,0.00279
4438.35079,0.00227
4437.32053,0.00217
4436.29027,0.00281
4435.26001,0.00332
4434.22975,0.00301
4433.19950,0.00227
4432.16924,0.00189
4431.13898,0.00189
4430.10872,0.00187
4429.07847,0.00183
4428.04821,0.00214
4427.01795,0.00264
4425.98769,0.00283
4424.95743,0.00297
4423.92718,0.00294
4422.89692,0.00272
4421.86666,0.00283
4420.83640,0.00321
4419.80614,0.00363
4418.77589,0.00372
4417.74563,0.00343
4416.71537,0.00305
4415.68511,0.00276
4414.65486,0.00291
4413.62460,0.00311
4412.59434,0.00298
4411.56408,0.00279
4410.53382,0.00249
4409.50357,0.00231
4408.47331,0.00264
4407.44305,0.00303
4406.41279,0.00298
4405.38253,0.00291
4404.35228,0.00288
4403.32202,0.00252
4402.29176,0.00228
4401.26150,0.00282
4400.23125,0.00357
4399.20099,0.00393
4398.17073,0.00383
4397.14047,0.00309
4396.11021,0.00244
4395.07996,0.00248
4394.04970,0.00294
4393.01944,0.00313
4391.98918,0.00258
4390.95893,0.00209
4389.92867,0.00204
4388.89841,0.00205
4387.86815,0.00227
4386.83789,0.00242
4385.80764,0.00220
4384.77738,0.00247
4383.74712,0.00318
4382.71686,0.00320
4381.68660,0.00292
4380.65635,0.00332
4379.62609,0.00363
4378.59583,0.00323
4377.56557,0.00299
4376.53532,0.00327
4375.50506,0.00346
4374.47480,0.00318
4373.44454,0.00295
4372.41428,0.00297
4371.38403,0.00292
4370.35377,0.00300
4369.32351,0.00305
4368.29325,0.00307
4367.26299,0.00330
4366.23274,0.00355
4365.20248,0.00364
4364.17222,0.00369
4363.14196,0.00417
4362.11171,0.00472
4361.08145,0.00463
4360.05119,0.00411
4359.02093,0.00372
4357.99067,0.00372
4356.96042,0.00392
4355.93016,0.00399
4354.89990,0.00383
4353.86964,0.00361
4352.83939,0.00323
4351.80913,0.00278
4350.77887,0.00286
4349.74861,0.00347
4348.71835,0.00390
4347.68810,0.00367
4346.65784,0.00300
4345.62758,0.00245
4344.59732,0.00267
4343.56706,0.00371
4342.53681,0.00438
4341.50655,0.00384
4340.47629,0.00280
4339.44603,0.00228
4338.41578,0.00230
4337.38552,0.00250
4336.35526,0.00274
4335.32500,0.00325
4334.29474,0.00372
4333.26449,0.00321
4332.23423,0.00240
4331.20397,0.00206
4330.17371,0.00149
4329.14345,0.00117
4328.11320,0.00217
4327.08294,0.00347
4326.05268,0.00346
4325.02242,0.00268
4323.99217,0.00239
4322.96191,0.00236
4321.93165,0.00249
4320.90139,0.00316
4319.87113,0.00356
4318.84088,0.00324
4317.81062,0.00280
4316.78036,0.00252
4315.75010,0.00236
4314.71984,0.00210
4313.68959,0.00181
4312.65933,0.00181
4311.62907,0.00213
4310.59881,0.00255
4309.56856,0.00273
4308.53830,0.00267
4307.50804,0.00279
4306.47778,0.00298
4305.44752,0.00286
4304.41727,0.00262
4303.38701,0.00251
4302.35675,0.00247
4301.32649,0.00252
4300.29624,0.00257
4299.26598,0.00247
4298.23572,0.00241
4297.20546,0.00268
4296.17520,0.00285
4295.14495,0.00306
4294.11469,0.00347
4293.08443,0.00334
4292.05417,0.00298
4291.02391,0.00284
4289.99366,0.00237
4288.96340,0.00197
4287.93314,0.00225
4286.90288,0.00262
4285.87263,0.00258
4284.84237,0.00245
4283.81211,0.00257
4282.78185,0.00282
4281.75159,0.00302
4280.72134,0.00315
4279.69108,0.00278
4278.66082,0.00220
4277.63056,0.00183
4276.60030,0.00133
4275.57005,0.00133
4274.53979,0.00223
4273.50953,0.00294
4272.47927,0.00322
4271.44902,0.00384
4270.41876,0.00443
4269.38850,0.00407
4268.35824,0.00319
4267.32798,0.00252
4266.29773,0.00214
4265.26747,0.00200
4264.23721,0.00209
4263.20695,0.00256
4262.17669,0.00302
4261.14644,0.00297
4260.11618,0.00265
4259.08592,0.00257
4258.05566,0.00285
4257.02541,0.00330
4255.99515,0.00387
4254.96489,0.00408
4253.93463,0.00368
4252.90437,0.00297
4251.87412,0.00244
4250.84386,0.00234
4249.81360,0.00235
4248.78334,0.00211
4247.75309,0.00208
4246.72283,0.00260
4245.69257,0.00298
4244.66231,0.00327
4243.63205,0.00387
4242.60180,0.00398
4241.57154,0.00340
4240.54128,0.00302
4239.51102,0.00301
4238.48076,0.00285
4237.45051,0.00246
4236.42025,0.00208
4235.38999,0.00182
4234.35973,0.00190
4233.32948,0.00248
4232.29922,0.00324
4231.26896,0.00348
4230.23870,0.00306
4229.20844,0.00257
4228.17819,0.00238
4227.14793,0.00260
4226.11767,0.00296
4225.08741,0.00321
4224.05715,0.00340
4223.02690,0.00331
4221.99664,0.00289
4220.96638,0.00247
4219.93612,0.00245
4218.90587,0.00321
4217.87561,0.00394
4216.84535,0.00381
4215.81509,0.00352
4214.78483,0.00343
4213.75458,0.00304
4212.72432,0.00250
4211.69406,0.00240
4210.66380,0.00253
4209.63354,0.00238
4208.60329,0.00238
4207.57303,0.00286
4206.54277,0.00331
4205.51251,0.00323
4204.48226,0.00307
4203.45200,0.00303
4202.42174,0.00288
4201.39148,0.00292
4200.36122,0.00303
4199.33097,0.00290
4198.30071,0.00283
4197.27045,0.00273
4196.24019,0.00244
4195.20994,0.00218
4194.17968,0.00199
4193.14942,0.00202
4192.11916,0.00253
4191.08890,0.00305
4190.05865,0.00315
4189.02839,0.00321
4187.99813,0.00353
4186.96787,0.00369
4185.93761,0.00341
4184.90736,0.00315
4183.87710,0.00324
4182.84684,0.00340
4181.81658,0.00348
4180.78633,0.00334
4179.75607,0.00313
4178.72581,0.00318
4177.69555,0.00321
4176.66529,0.00314
4175.63504,0.00309
4174.60478,0.00297
4173.57452,0.00301
4172.54426,0.00338
4171.51400,0.00377
4170.48375,0.00380
4169.45349,0.00346
4168.42323,0.00324
4167.39297,0.00299
4166.36272,0.00256
4165.33246,0.00234
4164.30220,0.00234
4163.27194,0.00264
4162.24168,0.00325
4161.21143,0.00360
4160.18117,0.00338
4159.15091,0.00317
4158.12065,0.00298
4157.09039,0.00282
4156.06014,0.00320
4155.02988,0.00366
4153.99962,0.00393
4152.96936,0.00407
4151.93911,0.00383
4150.90885,0.00353
4149.87859,0.00341
4148.84833,0.00342
4147.81807,0.00345
4146.78782,0.00324
4145.75756,0.00289
4144.72730,0.00254
4143.69704,0.00236
4142.66679,0.00259
4141.63653,0.00302
4140.60627,0.00329
4139.57601,0.00310
4138.54575,0.00280
4137.51550,0.00312
4136.48524,0.00355
4135.45498,0.00341
4134.42472,0.00321
4133.39446,0.00325
4132.36421,0.00316
4131.33395,0.00308
4130.30369,0.00344
4129.27343,0.00385
4128.24318,0.00360
4127.21292,0.00308
4126.18266,0.00322
4125.15240,0.00367
4124.12214,0.00367
4123.09189,0.00345
4122.06163,0.00334
4121.03137,0.00339
4120.00111,0.00349
4118.97085,0.00336
4117.94060,0.00309
4116.91034,0.00276
4115.88008,0.00237
4114.84982,0.00244
4113.81957,0.00311
4112.78931,0.00385
4111.75905,0.00411
4110.72879,0.00377
4109.69853,0.00336
4108.66828,0.00332
4107.63802,0.00354
4106.60776,0.00362
4105.57750,0.00343
4104.54724,0.00343
4103.51699,0.00358
4102.48673,0.00335
4101.45647,0.00327
4100.42621,0.00376
4099.39596,0.00420
4098.36570,0.00421
4097.33544,0.00388
4096.30518,0.00352
4095.27492,0.00345
4094.24467,0.00365
4093.21441,0.00377
4092.18415,0.00377
4091.15389,0.00387
4090.12364,0.00383
4089.09338,0.00362
4088.06312,0.00340
4087.03286,0.00328
4086.00260,0.00346
4084.97235,0.00383
4083.94209,0.00416
4082.91183,0.00418
4081.88157,0.00374
4080.85131,0.00328
4079.82106,0.00339
4078.79080,0.00399
4077.76054,0.00428
4076.73028,0.00399
4075.70003,0.00371
4074.66977,0.00368
4073.63951,0.00369
4072.60925,0.00382
4071.57899,0.00407
4070.54874,0.00408
4069.51848,0.00395
4068.48822,0.00433
4067.45796,0.00476
4066.42770,0.00459
4065.39745,0.00432
4064.36719,0.00436
4063.33693,0.00463
4062.30667,0.00444
4061.27642,0.00375
4060.24616,0.00345
4059.21590,0.00370
4058.18564,0.00408
4057.15538,0.00439
4056.12513,0.00470
4055.09487,0.00489
4054.06461,0.00502
4053.03435,0.00501
4052.00409,0.00479
4050.97384,0.00476
4049.94358,0.00471
4048.91332,0.00437
4047.88306,0.00417
4046.85281,0.00410
4045.82255,0.00400
4044.79229,0.00401
4043.76203,0.00406
4042.73177,0.00404
4041.70152,0.00421
4040.67126,0.00471
4039.64100,0.00486
4038.61074,0.00449
4037.58049,0.00428
4036.55023,0.00432
4035.51997,0.00412
4034.48971,0.00373
4033.45945,0.00386
4032.42920,0.00440
4031.39894,0.00461
4030.36868,0.00460
4029.33842,0.00456
4028.30816,0.00442
4027.27791,0.00453
4026.24765,0.00498
4025.21739,0.00528
4024.18713,0.00511
4023.15688,0.00469
4022.12662,0.00427
4021.09636,0.00391
4020.06610,0.00383
4019.03584,0.00399
4018.00559,0.00410
4016.97533,0.00446
4015.94507,0.00546
4014.91481,0.00616
4013.88455,0.00576
4012.85430,0.00508
4011.82404,0.00477
4010.79378,0.00477
4009.76352,0.00483
4008.73327,0.00453
4007.70301,0.00443
4006.67275,0.00477
4005.64249,0.00494
4004.61223,0.00495
4003.58198,0.00473
4002.55172,0.00416
4001.52146,0.00388
4000.49120,0.00391
3999.46095,0.00397
3998.43069,0.00403
3997.40043,0.00403
3996.37017,0.00448
3995.33991,0.00547
3994.30966,0.00578
3993.27940,0.00511
3992.24914,0.00443
3991.21888,0.00404
3990.18862,0.00399
3989.15837,0.00418
3988.12811,0.00405
3987.09785,0.00390
3986.06759,0.00431
3985.03734,0.00504
3984.00708,0.00535
3982.97682,0.00500
3981.94656,0.00443
3980.91630,0.00384
3979.88605,0.00352
3978.85579,0.00394
3977.82553,0.00470
3976.79527,0.00520
3975.76501,0.00528
3974.73476,0.00506
3973.70450,0.00470
3972.67424,0.00408
3971.64398,0.00349
3970.61373,0.00329
3969.58347,0.00325
3968.55321,0.00362
3967.52295,0.00441
3966.49269,0.00484
3965.46244,0.00460
3964.43218,0.00426
3963.40192,0.00430
3962.37166,0.00445
3961.34140,0.00429
3960.31115,0.00384
3959.28089,0.00355
3958.25063,0.00367
3957.22037,0.00385
3956.19012,0.00389
3955.15986,0.00401
3954.12960,0.00439
3953.09934,0.00486
3952.06908,0.00518
3951.03883,0.00512
3950.00857,0.00477
3948.97831,0.00445
3947.94805,0.00424
3946.91780,0.00436
3945.88754,0.00457
3944.85728,0.00450
3943.82702,0.00428
3942.79676,0.00402
3941.76651,0.00384
3940.73625,0.00369
3939.70599,0.00349
3938.67573,0.00340
3937.64547,0.00321
3936.61522,0.00313
3935.58496,0.00366
3934.55470,0.00417
3933.52444,0.00392
3932.49419,0.00367
3931.46393,0.00398
3930.43367,0.00409
3929.40341,0.00391
3928.37315,0.00379
3927.34290,0.00379
3926.31264,0.00401
3925.28238,0.00437
3924.25212,0.00461
3923.22186,0.00455
3922.19161,0.00429
3921.16135,0.00435
3920.13109,0.00486
3919.10083,0.00495
3918.07058,0.00464
3917.04032,0.00436
3916.01006,0.00387
3914.97980,0.00366
3913.94954,0.00395
3912.91929,0.00399
3911.88903,0.00366
3910.85877,0.00359
3909.82851,0.00381
3908.79825,0.00403
3907.76800,0.00410
3906.73774,0.00397
3905.70748,0.00389
3904.67722,0.00377
3903.64697,0.00354
3902.61671,0.00366
3901.58645,0.00381
3900.55619,0.00365
3899.52593,0.00382
3898.49568,0.00420
3897.46542,0.00421
3896.43516,0.00416
3895.40490,0.00409
3894.37465,0.00383
3893.34439,0.00356
3892.31413,0.00316
3891.28387,0.00273
3890.25361,0.00295
3889.22336,0.00332
3888.19310,0.00335
3887.16284,0.00355
3886.13258,0.00397
3885.10232,0.00433
3884.07207,0.00455
3883.04181,0.00460
3882.01155,0.00462
3880.98129,0.00429
3879.95104,0.00360
3878.92078,0.00325
3877.89052,0.00329
3876.86026,0.00360
3875.83000,0.00387
3874.79975,0.00365
3873.76949,0.00344
3872.73923,0.00358
3871.70897,0.00356
3870.67871,0.00352
3869.64846,0.00393
3868.61820,0.00438
3867.58794,0.00433
3866.55768,0.00397
3865.52743,0.00375
3864.49717,0.00403
3863.46691,0.00411
3862.43665,0.00364
3861.40639,0.00326
3860.37614,0.00309
3859.34588,0.00294
3858.31562,0.00295
3857.28536,0.00313
3856.25510,0.00322
3855.22485,0.00348
3854.19459,0.00428
3853.16433,0.00480
3852.13407,0.00464
3851.10382,0.00430
3850.07356,0.00381
3849.04330,0.00343
3848.01304,0.00334
3846.98278,0.00342
3845.95253,0.00341
3844.92227,0.00320
3843.89201,0.00293
3842.86175,0.00302
3841.83150,0.00361
3840.80124,0.00393
3839.77098,0.00365
3838.74072,0.00374
3837.71046,0.00422
3836.68021,0.00414
3835.64995,0.00382
3834.61969,0.00388
3833.58943,0.00390
3832.55917,0.00340
3831.52892,0.00300
3830.49866,0.00328
3829.46840,0.00382
3828.43814,0.00445
3827.40789,0.00472
3826.37763,0.00415
3825.34737,0.00357
3824.31711,0.00349
3823.28685,0.00342
3822.25660,0.00315
3821.22634,0.00335
3820.19608,0.00395
3819.16582,0.00409
3818.13556,0.00422
3817.10531,0.00432
3816.07505,0.00392
3815.04479,0.00340
3814.01453,0.00304
3812.98428,0.00300
3811.95402,0.00337
3810.92376,0.00361
3809.89350,0.00360
3808.86324,0.00361
3807.83299,0.00354
3806.80273,0.00343
3805.77247,0.00367
3804.74221,0.00405
3803.71195,0.00437
3802.68170,0.00459
3801.65144,0.00451
3800.62118,0.00428
3799.59092,0.00435
3798.56067,0.00462
3797.53041,0.00451
3796.50015,0.00393
3795.46989,0.00365
3794.43963,0.00357
3793.40938,0.00368
3792.37912,0.00407
3791.34886,0.00429
3790.31860,0.00439
3789.28835,0.00430
3788.25809,0.00392
3787.22783,0.00384
3786.19757,0.00391
3785.16731,0.00368
3784.13706,0.00365
3783.10680,0.00413
3782.07654,0.00471
3781.04628,0.00509
3780.01602,0.00501
3778.98577,0.00458
3777.95551,0.00456
3776.92525,0.00461
3775.89499,0.00414
3774.86474,0.00391
3773.83448,0.00413
3772.80422,0.00411
3771.77396,0.00398
3770.74370,0.00392
3769.71345,0.00397
3768.68319,0.00426
3767.65293,0.00436
3766.62267,0.00420
3765.59241,0.00392
3764.56216,0.00369
3763.53190,0.00401
3762.50164,0.00495
3761.47138,0.00576
3760.44113,0.00568
3759.41087,0.00508
3758.38061,0.00484
3757.35035,0.00479
3756.32009,0.00454
3755.28984,0.00434
3754.25958,0.00451
3753.22932,0.00481
3752.19906,0.00486
3751.16880,0.00486
3750.13855,0.00496
3749.10829,0.00496
3748.07803,0.00485
3747.04777,0.00468
3746.01752,0.00477
3744.98726,0.00565
3743.95700,0.00616
3742.92674,0.00524
3741.89648,0.00468
3740.86623,0.00503
3739.83597,0.00563
3738.80571,0.00578
3737.77545,0.00563
3736.74520,0.00523
3735.71494,0.00465
3734.68468,0.00455
3733.65442,0.00518
3732.62416,0.00583
3731.59391,0.00577
3730.56365,0.00528
3729.53339,0.00497
3728.50313,0.00491
3727.47287,0.00523
3726.44262,0.00585
3725.41236,0.00626
3724.38210,0.00621
3723.35184,0.00595
3722.32159,0.00585
3721.29133,0.00592
3720.26107,0.00600
3719.23081,0.00615
3718.20055,0.00611
3717.17030,0.00597
3716.14004,0.00625
3715.10978,0.00676
3714.07952,0.00730
3713.04926,0.00775
3712.01901,0.00737
3710.98875,0.00623
3709.95849,0.00590
3708.92823,0.00653
3707.89798,0.00722
3706.86772,0.00776
3705.83746,0.00800
3704.80720,0.00766
3703.77694,0.00731
3702.74669,0.00746
3701.71643,0.00785
3700.68617,0.00803
3699.65591,0.00765
3698.62565,0.00728
3697.59540,0.00778
3696.56514,0.00872
3695.53488,0.00912
3694.50462,0.00895
3693.47437,0.00883
3692.44411,0.00871
3691.41385,0.00840
3690.38359,0.00871
3689.35333,0.00922
3688.32308,0.00950
3687.29282,0.01033
3686.26256,0.01105
3685.23230,0.01117
3684.20205,0.01132
3683.17179,0.01180
3682.14153,0.01252
3681.11127,0.01348
3680.08101,0.01420
3679.05076,0.01406
3678.02050,0.01394
3676.99024,0.01474
3675.95998,0.01570
3674.92972,0.01565
3673.89947,0.01515
3672.86921,0.01507
3671.83895,0.01548
3670.80869,0.01626
3669.77844,0.01720
3668.74818,0.01801
3667.71792,0.01843
3666.68766,0.01886
3665.65740,0.01935
3664.62715,0.01964
3663.59689,0.02023
3662.56663,0.02099
3661.53637,0.02143
3660.50611,0.02213
3659.47586,0.02308
3658.44560,0.02355
3657.41534,0.02386
3656.38508,0.02431
3655.35483,0.02461
3654.32457,0.02530
3653.29431,0.02654
3652.26405,0.02782
3651.23379,0.02897
3650.20354,0.02986
3649.17328,0.03019
3648.14302,0.03025
3647.11276,0.03052
3646.08250,0.03122
3645.05225,0.03187
3644.02199,0.03230
3642.99173,0.03292
3641.96147,0.03378
3640.93122,0.03467
3639.90096,0.03529
3638.87070,0.03565
3637.84044,0.03624
3636.81018,0.03706
3635.77993,0.03795
3634.74967,0.03917
3633.71941,0.04025
3632.68915,0.04044
3631.65890,0.04021
3630.62864,0.04020
3629.59838,0.04047
3628.56812,0.04164
3627.53786,0.04372
3626.50761,0.04530
3625.47735,0.04593
3624.44709,0.04627
3623.41683,0.04706
3622.38657,0.04819
3621.35632,0.04911
3620.32606,0.04965
3619.29580,0.05001
3618.26554,0.05053
3617.23529,0.05171
3616.20503,0.05289
3615.17477,0.05330
3614.14451,0.05334
3613.11425,0.05355
3612.08400,0.05456
3611.05374,0.05626
3610.02348,0.05789
3608.99322,0.05910
3607.96296,0.05984
3606.93271,0.06072
3605.90245,0.06179
3604.87219,0.06266
3603.84193,0.06343
3602.81168,0.06420
3601.78142,0.06480
3600.75116,0.06541
3599.72090,0.06654
3598.69064,0.06773
3597.66039,0.06860
3596.63013,0.06959
3595.59987,0.07094
3594.56961,0.07210
3593.53936,0.07259
3592.50910,0.07302
3591.47884,0.07411
3590.44858,0.07566
3589.41832,0.07744
3588.38807,0.07898
3587.35781,0.07923
3586.32755,0.07932
3585.29729,0.08065
3584.26703,0.08210
3583.23678,0.08302
3582.20652,0.08371
3581.17626,0.08463
3580.14600,0.08605
3579.11575,0.08772
3578.08549,0.08910
3577.05523,0.08992
3576.02497,0.09057
3574.99471,0.09120
3573.96446,0.09200
3572.93420,0.09352
3571.90394,0.09535
3570.87368,0.09676
3569.84342,0.09761
3568.81317,0.09813
3567.78291,0.09880
3566.75265,0.10002
3565.72239,0.10149
3564.69214,0.10267
3563.66188,0.10381
3562.63162,0.10533
3561.60136,0.10707
3560.57110,0.10867
3559.54085,0.10987
3558.51059,0.11065
3557.48033,0.11147
3556.45007,0.11259
3555.41981,0.11374
3554.38956,0.11483
3553.35930,0.11587
3552.32904,0.11656
3551.29878,0.11711
3550.26853,0.11815
3549.23827,0.11979
3548.20801,0.12148
3547.17775,0.12259
3546.14749,0.12315
3545.11724,0.12374
3544.08698,0.12514
3543.05672,0.12695
3542.02646,0.12818
3540.99621,0.12907
3539.96595,0.13032
3538.93569,0.13185
3537.90543,0.13317
3536.87517,0.13445
3535.84492,0.13549
3534.81466,0.13579
3533.78440,0.13638
3532.75414,0.13802
3531.72388,0.13918
3530.69363,0.13933
3529.66337,0.13994
3528.63311,0.14143
3527.60285,0.14309
3526.57260,0.14434
3525.54234,0.14498
3524.51208,0.14569
3523.48182,0.14681
3522.45156,0.14774
3521.42131,0.14875
3520.39105,0.15011
3519.36079,0.15117
3518.33053,0.15217
3517.30027,0.15337
3516.27002,0.15422
3515.23976,0.15474
3514.20950,0.15516
3513.17924,0.15567
3512.14899,0.15704
3511.11873,0.15889
3510.08847,0.16018
3509.05821,0.16113
3508.02795,0.16200
3506.99770,0.16277
3505.96744,0.16349
3504.93718,0.16382
3503.90692,0.16432
3502.87666,0.16568
3501.84641,0.16718
3500.81615,0.16836
3499.78589,0.16919
3498.75563,0.16955
3497.72538,0.16980
3496.69512,0.17045
3495.66486,0.17151
3494.63460,0.17243
3493.60434,0.17283
3492.57409,0.17304
3491.54383,0.17349
3490.51357,0.17420
3489.48331,0.17527
3488.45306,0.17647
3487.42280,0.17733
3486.39254,0.17828
3485.36228,0.17938
3484.33202,0.18008
3483.30177,0.18057
3482.27151,0.18135
3481.24125,0.18225
3480.21099,0.18280
3479.18073,0.18324
3478.15048,0.18417
3477.12022,0.18526
3476.08996,0.18605
3475.05970,0.18670
3474.02945,0.18749
3472.99919,0.18847
3471.96893,0.18942
3470.93867,0.18994
3469.90841,0.18987
3468.87816,0.18994
3467.84790,0.19086
3466.81764,0.19193
3465.78738,0.19259
3464.75712,0.19317
3463.72687,0.19388
3462.69661,0.19482
3461.66635,0.19545
3460.63609,0.19569
3459.60584,0.19647
3458.57558,0.19783
3457.54532,0.19905
3456.51506,0.19985
3455.48480,0.20031
3454.45455,0.20100
3453.42429,0.20193
3452.39403,0.20238
3451.36377,0.20309
3450.33351,0.20445
3449.30326,0.20553
3448.27300,0.20638
3447.24274,0.20708
3446.21248,0.20743
3445.18223,0.20767
3444.15197,0.20787
3443.12171,0.20849
3442.09145,0.20971
3441.06119,0.21045
3440.03094,0.21032
3439.00068,0.21049
3437.97042,0.21141
3436.94016,0.21239
3435.90991,0.21287
3434.87965,0.21323
3433.84939,0.21420
3432.81913,0.21561
3431.78887,0.21648
3430.75862,0.21667
3429.72836,0.21700
3428.69810,0.21756
3427.66784,0.21796
3426.63758,0.21855
3425.60733,0.21958
3424.57707,0.22087
3423.54681,0.22186
3422.51655,0.22197
3421.48630,0.22164
3420.45604,0.22189
3419.42578,0.22311
3418.39552,0.22414
3417.36526,0.22421
3416.33501,0.22434
3415.30475,0.22494
3414.27449,0.22547
3413.24423,0.22591
3412.21397,0.22643
3411.18372,0.22674
3410.15346,0.22693
3409.12320,0.22730
3408.09294,0.22745
3407.06269,0.22744
3406.03243,0.22767
3405.00217,0.22818
3403.97191,0.22880
3402.94165,0.22904
3401.91140,0.22863
3400.88114,0.22824
3399.85088,0.22861
3398.82062,0.22951
3397.79036,0.23033
3396.76011,0.23108
3395.72985,0.23141
3394.69959,0.23080
3393.66933,0.23019
3392.63908,0.23031
3391.60882,0.23049
3390.57856,0.23037
3389.54830,0.23026
3388.51804,0.23041
3387.48779,0.23090
3386.45753,0.23142
3385.42727,0.23122
3384.39701,0.23035
3383.36676,0.22975
3382.33650,0.22959
3381.30624,0.22929
3380.27598,0.22893
3379.24572,0.22865
3378.21547,0.22833
3377.18521,0.22802
3376.15495,0.22801
3375.12469,0.22837
3374.09443,0.22828
3373.06418,0.22758
3372.03392,0.22679
3371.00366,0.22596
3369.97340,0.22520
3368.94315,0.22469
3367.91289,0.22440
3366.88263,0.22433
3365.85237,0.22456
3364.82211,0.22475
3363.79186,0.22434
3362.76160,0.22375
3361.73134,0.22380
3360.70108,0.22399
3359.67082,0.22352
3358.64057,0.22265
3357.61031,0.22226
3356.58005,0.22211
3355.54979,0.22121
3354.51954,0.22011
3353.48928,0.21978
3352.45902,0.21956
3351.42876,0.21895
3350.39850,0.21868
3349.36825,0.21899
3348.33799,0.21878
3347.30773,0.21773
3346.27747,0.21684
3345.24721,0.21622
3344.21696,0.21540
3343.18670,0.21456
3342.15644,0.21400
3341.12618,0.21359
3340.09593,0.21303
3339.06567,0.21245
3338.03541,0.21199
3337.00515,0.21137
3335.97489,0.21084
3334.94464,0.21051
3333.91438,0.20996
3332.88412,0.20950
3331.85386,0.20948
3330.82361,0.20935
3329.79335,0.20852
3328.76309,0.20758
3327.73283,0.20717
3326.70257,0.20672
3325.67232,0.20605
3324.64206,0.20530
3323.61180,0.20453
3322.58154,0.20422
3321.55128,0.20432
3320.52103,0.20437
3319.49077,0.20416
3318.46051,0.20367
3317.43025,0.20313
3316.40000,0.20260
3315.36974,0.20204
3314.33948,0.20165
3313.30922,0.20119
3312.27896,0.20039
3311.24871,0.19982
3310.21845,0.19979
3309.18819,0.19979
3308.15793,0.19952
3307.12767,0.19921
3306.09742,0.19885
3305.06716,0.19864
3304.03690,0.19868
3303.00664,0.19843
3301.97639,0.19804
3300.94613,0.19788
3299.91587,0.19767
3298.88561,0.19723
3297.85535,0.19698
3296.82510,0.19709
3295.79484,0.19692
3294.76458,0.19651
3293.73432,0.19641
3292.70406,0.19642
3291.67381,0.19607
3290.64355,0.19555
3289.61329,0.19531
3288.58303,0.19515
3287.55278,0.19491
3286.52252,0.19461
3285.49226,0.19412
3284.46200,0.19374
3283.43174,0.19359
3282.40149,0.19301
3281.37123,0.19238
3280.34097,0.19251
3279.31071,0.19288
3278.28046,0.19285
3277.25020,0.19234
3276.21994,0.19156
3275.18968,0.19110
3274.15942,0.19130
3273.12917,0.19132
3272.09891,0.19050
3271.06865,0.18990
3270.03839,0.19014
3269.00813,0.19024
3267.97788,0.18964
3266.94762,0.18904
3265.91736,0.18860
3264.88710,0.18817
3263.85685,0.18775
3262.82659,0.18713
3261.79633,0.18652
3260.76607,0.18647
3259.73581,0.18647
3258.70556,0.18561
3257.67530,0.18436
3256.64504,0.18408
3255.61478,0.18443
3254.58452,0.18403
3253.55427,0.18325
3252.52401,0.18284
3251.49375,0.18237
3250.46349,0.18192
3249.43324,0.18171
3248.40298,0.18117
3247.37272,0.18040
3246.34246,0.17970
3245.31220,0.17875
3244.28195,0.17804
3243.25169,0.17797
3242.22143,0.17784
3241.19117,0.17753
3240.16092,0.17724
3239.13066,0.17649
3238.10040,0.17555
3237.07014,0.17497
3236.03988,0.17439
3235.00963,0.17347
3233.97937,0.17254
3232.94911,0.17183
3231.91885,0.17106
3230.88859,0.17033
3229.85834,0.16965
3228.82808,0.16878
3227.79782,0.16800
3226.76756,0.16741
3225.73731,0.16681
3224.70705,0.16612
3223.67679,0.16507
3222.64653,0.16373
3221.61627,0.16275
3220.58602,0.16203
3219.55576,0.16118
3218.52550,0.16033
3217.49524,0.15940
3216.46498,0.15824
3215.43473,0.15731
3214.40447,0.15648
3213.37421,0.15544
3212.34395,0.15475
3211.31370,0.15424
3210.28344,0.15328
3209.25318,0.15217
3208.22292,0.15118
3207.19266,0.15048
3206.16241,0.14995
3205.13215,0.14908
3204.10189,0.14795
3203.07163,0.14696
3202.04137,0.14605
3201.01112,0.14489
3199.98086,0.14372
3198.95060,0.14307
3197.92034,0.14219
3196.89009,0.14068
3195.85983,0.13968
3194.82957,0.13908
3193.79931,0.13781
3192.76905,0.13634
3191.73880,0.13544
3190.70854,0.13482
3189.67828,0.13405
3188.64802,0.13313
3187.61777,0.13225
3186.58751,0.13111
3185.55725,0.12984
3184.52699,0.12913
3183.49673,0.12829
3182.46648,0.12677
3181.43622,0.12550
3180.40596,0.12455
3179.37570,0.12338
3178.34544,0.12228
3177.31519,0.12149
3176.28493,0.12057
3175.25467,0.11956
3174.22441,0.11892
3173.19416,0.11847
3172.16390,0.11801
3171.13364,0.11735
3170.10338,0.11606
3169.07312,0.11464
3168.04287,0.11344
3167.01261,0.11220
3165.98235,0.11115
3164.95209,0.11039
3163.92183,0.10976
3162.89158,0.10914
3161.86132,0.10820
3160.83106,0.10696
3159.80080,0.10589
3158.77055,0.10512
3157.74029,0.10444
3156.71003,0.10353
3155.67977,0.10247
3154.64951,0.10159
3153.61926,0.10085
3152.58900,0.09992
3151.55874,0.09874
3150.52848,0.09773
3149.49822,0.09715
3148.46797,0.09652
3147.43771,0.09567
3146.40745,0.09494
3145.37719,0.09417
3144.34694,0.09333
3143.31668,0.09249
3142.28642,0.09146
3141.25616,0.09055
3140.22590,0.09000
3139.19565,0.08950
3138.16539,0.08885
3137.13513,0.08791
3136.10487,0.08679
3135.07462,0.08585
3134.04436,0.08471
3133.01410,0.08342
3131.98384,0.08275
3130.95358,0.08259
3129.92333,0.08208
3128.89307,0.08103
3127.86281,0.07995
3126.83255,0.07917
3125.80229,0.07859
3124.77204,0.07805
3123.74178,0.07759
3122.71152,0.07698
3121.68126,0.07587
3120.65101,0.07485
3119.62075,0.07429
3118.59049,0.07385
3117.56023,0.07341
3116.52997,0.07285
3115.49972,0.07215
3114.46946,0.07142
3113.43920,0.07065
3112.40894,0.06975
3111.37868,0.06876
3110.34843,0.06791
3109.31817,0.06742
3108.28791,0.06715
3107.25765,0.06666
3106.22740,0.06600
3105.19714,0.06550
3104.16688,0.06507
3103.13662,0.06465
3102.10636,0.06416
3101.07611,0.06346
3100.04585,0.06289
3099.01559,0.06251
3097.98533,0.06180
3096.95507,0.06088
3095.92482,0.06037
3094.89456,0.06021
3093.86430,0.05970
3092.83404,0.05873
3091.80379,0.05788
3090.77353,0.05741
3089.74327,0.05699
3088.71301,0.05624
3087.68275,0.05541
3086.65250,0.05530
3085.62224,0.05566
3084.59198,0.05539
3083.56172,0.05459
3082.53147,0.05405
3081.50121,0.05376
3080.47095,0.05333
3079.44069,0.05283
3078.41043,0.05225
3077.38018,0.05136
3076.34992,0.05047
3075.31966,0.04991
3074.28940,0.04966
3073.25914,0.04937
3072.22889,0.04897
3071.19863,0.04851
3070.16837,0.04795
3069.13811,0.04741
3068.10786,0.04684
3067.07760,0.04617
3066.04734,0.04569
3065.01708,0.04561
3063.98682,0.04553
3062.95657,0.04512
3061.92631,0.04457
3060.89605,0.04429
3059.86579,0.04421
3058.83553,0.04392
3057.80528,0.04343
3056.77502,0.04301
3055.74476,0.04258
3054.71450,0.04192
3053.68425,0.04135
3052.65399,0.04108
3051.62373,0.04090
3050.59347,0.04090
3049.56321,0.04092
3048.53296,0.04039
3047.50270,0.03942
3046.47244,0.03872
3045.44218,0.03872
3044.41192,0.03897
3043.38167,0.03875
3042.35141,0.03810
3041.32115,0.03729
3040.29089,0.03672
3039.26064,0.03667
3038.23038,0.03671
3037.20012,0.03635
3036.16986,0.03593
3035.13960,0.03566
3034.10935,0.03532
3033.07909,0.03484
3032.04883,0.03454
3031.01857,0.03443
3029.98832,0.03404
3028.95806,0.03351
3027.92780,0.03324
3026.89754,0.03308
3025.86728,0.03299
3024.83703,0.03306
3023.80677,0.03275
3022.77651,0.03205
3021.74625,0.03164
3020.71599,0.03133
3019.68574,0.03104
3018.65548,0.03108
3017.62522,0.03100
3016.59496,0.03060
3015.56471,0.03019
3014.53445,0.02981
3013.50419,0.02969
3012.47393,0.02981
3011.44367,0.02952
3010.41342,0.02904
3009.38316,0.02905
3008.35290,0.02936
3007.32264,0.02961
3006.29238,0.02950
3005.26213,0.02896
3004.23187,0.02850
3003.20161,0.02839
3002.17135,0.02844
3001.14110,0.02859
3000.11084,0.02887
2999.08058,0.02901
2998.05032,0.02875
2997.02006,0.02837
2995.98981,0.02817
2994.95955,0.02814
2993.92929,0.02818
2992.89903,0.02836
2991.86877,0.02884
2990.83852,0.02929
2989.80826,0.02956
2988.77800,0.02985
2987.74774,0.03005
2986.71749,0.03012
2985.68723,0.03037
2984.65697,0.03086
2983.62671,0.03140
2982.59645,0.03205
2981.56620,0.03259
2980.53594,0.03306
2979.50568,0.03412
2978.47542,0.03565
2977.44517,0.03695
2976.41491,0.03785
2975.38465,0.03857
2974.35439,0.03932
2973.32413,0.04023
2972.29388,0.04127
2971.26362,0.04234
2970.23336,0.04364
2969.20310,0.04500
2968.17284,0.04613
2967.14259,0.04719
2966.11233,0.04821
2965.08207,0.04925
2964.05181,0.05039
2963.02156,0.05153
2961.99130,0.05270
2960.96104,0.05377
2959.93078,0.05468
2958.90052,0.05571
2957.87027,0.05677
2956.84001,0.05758
2955.80975,0.05838
2954.77949,0.05931
2953.74923,0.06042
2952.71898,0.06164
2951.68872,0.06253
2950.65846,0.06291
2949.62820,0.06327
2948.59795,0.06411
2947.56769,0.06524
2946.53743,0.06589
2945.50717,0.06599
2944.47691,0.06623
2943.44666,0.06699
2942.41640,0.06811
2941.38614,0.06892
2940.35588,0.06917
2939.32562,0.06966
2938.29537,0.07080
2937.26511,0.07197
2936.23485,0.07250
2935.20459,0.07272
2934.17434,0.07347
2933.14408,0.07457
2932.11382,0.07538
2931.08356,0.07602
2930.05330,0.07687
2929.02305,0.07795
2927.99279,0.07901
2926.96253,0.07983
2925.93227,0.08074
2924.90202,0.08192
2923.87176,0.08306
2922.84150,0.08402
2921.81124,0.08457
2920.78098,0.08484
2919.75073,0.08531
2918.72047,0.08600
2917.69021,0.08690
2916.65995,0.08773
2915.62969,0.08796
2914.59944,0.08770
2913.56918,0.08753
2912.53892,0.08747
2911.50866,0.08740
2910.47841,0.08735
2909.44815,0.08731
2908.41789,0.08718
2907.38763,0.08674
2906.35737,0.08613
2905.32712,0.08581
2904.29686,0.08561
2903.26660,0.08530
2902.23634,0.08510
2901.20608,0.08489
2900.17583,0.08462
2899.14557,0.08457
2898.11531,0.08468
2897.08505,0.08462
2896.05480,0.08446
2895.02454,0.08447
2893.99428,0.08471
2892.96402,0.08520
2891.93376,0.08593
2890.90351,0.08660
2889.87325,0.08704
2888.84299,0.08750
2887.81273,0.08810
2886.78247,0.08879
2885.75222,0.08953
2884.72196,0.09043
2883.69170,0.09132
2882.66144,0.09198
2881.63119,0.09251
2880.60093,0.09302
2879.57067,0.09329
2878.54041,0.09309
2877.51015,0.09280
2876.47990,0.09258
2875.44964,0.09212
2874.41938,0.09134
2873.38912,0.09046
2872.35887,0.08960
2871.32861,0.08850
2870.29835,0.08693
2869.26809,0.08495
2868.23783,0.08287
2867.20758,0.08097
2866.17732,0.07919
2865.14706,0.07733
2864.11680,0.07534
2863.08654,0.07321
2862.05629,0.07097
2861.02603,0.06861
2859.99577,0.06638
2858.96551,0.06455
2857.93526,0.06287
2856.90500,0.06099
2855.87474,0.05904
2854.84448,0.05714
2853.81422,0.05520
2852.78397,0.05318
2851.75371,0.05122
2850.72345,0.04958
2849.69319,0.04800
2848.66293,0.04641
2847.63268,0.04534
2846.60242,0.04455
2845.57216,0.04351
2844.54190,0.04218
2843.51165,0.04091
2842.48139,0.03998
2841.45113,0.03940
2840.42087,0.03897
2839.39061,0.03833
2838.36036,0.03751
2837.33010,0.03681
2836.29984,0.03618
2835.26958,0.03552
2834.23933,0.03478
2833.20907,0.03392
2832.17881,0.03319
2831.14855,0.03280
2830.11829,0.03255
2829.08804,0.03219
2828.05778,0.03168
2827.02752,0.03119
2825.99726,0.03081
2824.96700,0.03045
2823.93675,0.03018
2822.90649,0.02979
2821.87623,0.02921
2820.84597,0.02884
2819.81572,0.02858
2818.78546,0.02806
2817.75520,0.02756
2816.72494,0.02723
2815.69468,0.02687
2814.66443,0.02651
2813.63417,0.02610
2812.60391,0.02561
2811.57365,0.02517
2810.54339,0.02460
2809.51314,0.02404
2808.48288,0.02380
2807.45262,0.02358
2806.42236,0.02308
2805.39211,0.02250
2804.36185,0.02198
2803.33159,0.02151
2802.30133,0.02118
2801.27107,0.02090
2800.24082,0.02047
2799.21056,0.01987
2798.18030,0.01944
2797.15004,0.01954
2796.11978,0.01972
2795.08953,0.01940
2794.05927,0.01891
2793.02901,0.01885
2791.99875,0.01897
2790.96850,0.01892
2789.93824,0.01867
2788.90798,0.01829
2787.87772,0.01797
2786.84746,0.01768
2785.81721,0.01732
2784.78695,0.01710
2783.75669,0.01699
2782.72643,0.01671
2781.69618,0.01631
2780.66592,0.01596
2779.63566,0.01571
2778.60540,0.01570
2777.57514,0.01575
2776.54489,0.01554
2775.51463,0.01508
2774.48437,0.01480
2773.45411,0.01489
2772.42385,0.01501
2771.39360,0.01479
2770.36334,0.01443
2769.33308,0.01427
2768.30282,0.01433
2767.27257,0.01448
2766.24231,0.01456
2765.21205,0.01440
2764.18179,0.01409
2763.15153,0.01390
2762.12128,0.01382
2761.09102,0.01386
2760.06076,0.01400
2759.03050,0.01393
2758.00024,0.01374
2756.96999,0.01372
2755.93973,0.01363
2754.90947,0.01354
2753.87921,0.01371
2752.84896,0.01383
2751.81870,0.01390
2750.78844,0.01397
2749.75818,0.01385
2748.72792,0.01381
2747.69767,0.01395
2746.66741,0.01386
2745.63715,0.01356
2744.60689,0.01332
2743.57663,0.01317
2742.54638,0.01302
2741.51612,0.01285
2740.48586,0.01285
2739.45560,0.01294
2738.42535,0.01288
2737.39509,0.01272
2736.36483,0.01260
2735.33457,0.01243
2734.30431,0.01216
2733.27406,0.01206
2732.24380,0.01235
2731.21354,0.01259
2730.18328,0.01235
2729.15303,0.01186
2728.12277,0.01149
2727.09251,0.01134
2726.06225,0.01120
2725.03199,0.01114
2724.00174,0.01115
2722.97148,0.01105
2721.94122,0.01088
2720.91096,0.01069
2719.88070,0.01049
2718.85045,0.01035
2717.82019,0.01028
2716.78993,0.01039
2715.75967,0.01071
2714.72942,0.01076
2713.69916,0.01050
2712.66890,0.01018
2711.63864,0.00998
2710.60838,0.01020
2709.57813,0.01042
2708.54787,0.01022
2707.51761,0.01004
2706.48735,0.01003
2705.45709,0.00998
2704.42684,0.00988
2703.39658,0.00980
2702.36632,0.00973
2701.33606,0.00976
2700.30581,0.00984
2699.27555,0.00984
2698.24529,0.00965
2697.21503,0.00932
2696.18477,0.00921
2695.15452,0.00918
2694.12426,0.00896
2693.09400,0.00880
2692.06374,0.00875
2691.03348,0.00862
2690.00323,0.00842
2688.97297,0.00821
2687.94271,0.00806
2686.91245,0.00792
2685.88220,0.00767
2684.85194,0.00740
2683.82168,0.00731
2682.79142,0.00749
2681.76116,0.00761
2680.73091,0.00750
2679.70065,0.00752
2678.67039,0.00769
2677.64013,0.00760
2676.60988,0.00738
2675.57962,0.00718
2674.54936,0.00674
2673.51910,0.00646
2672.48884,0.00664
2671.45859,0.00682
2670.42833,0.00676
2669.39807,0.00681
2668.36781,0.00708
2667.33755,0.00729
2666.30730,0.00739
2665.27704,0.00736
2664.24678,0.00722
2663.21652,0.00712
2662.18627,0.00701
2661.15601,0.00690
2660.12575,0.00693
2659.09549,0.00707
2658.06523,0.00720
2657.03498,0.00728
2656.00472,0.00724
2654.97446,0.00710
2653.94420,0.00674
2652.91394,0.00631
2651.88369,0.00619
2650.85343,0.00638
2649.82317,0.00661
2648.79291,0.00648
2647.76266,0.00607
2646.73240,0.00601
2645.70214,0.00633
2644.67188,0.00648
2643.64162,0.00651
2642.61137,0.00658
2641.58111,0.00661
2640.55085,0.00669
2639.52059,0.00681
2638.49033,0.00675
2637.46008,0.00647
2636.42982,0.00611
2635.39956,0.00593
2634.36930,0.00607
2633.33905,0.00638
2632.30879,0.00665
2631.27853,0.00680
2630.24827,0.00689
2629.21801,0.00678
2628.18776,0.00644
2627.15750,0.00618
2626.12724,0.00586
2625.09698,0.00564
2624.06673,0.00576
2623.03647,0.00601
2622.00621,0.00620
2620.97595,0.00616
2619.94569,0.00622
2618.91544,0.00632
2617.88518,0.00579
2616.85492,0.00519
2615.82466,0.00536
2614.79440,0.00580
2613.76415,0.00580
2612.73389,0.00555
2611.70363,0.00559
2610.67337,0.00583
2609.64312,0.00591
2608.61286,0.00595
2607.58260,0.00587
2606.55234,0.00556
2605.52208,0.00543
2604.49183,0.00554
2603.46157,0.00541
2602.43131,0.00506
2601.40105,0.00509
2600.37079,0.00540
2599.34054,0.00556
2598.31028,0.00567
2597.28002,0.00575
2596.24976,0.00567
2595.21951,0.00540
2594.18925,0.00508
2593.15899,0.00490
2592.12873,0.00505
2591.09847,0.00553
2590.06822,0.00582
2589.03796,0.00570
2588.00770,0.00578
2586.97744,0.00607
2585.94718,0.00609
2584.91693,0.00593
2583.88667,0.00579
2582.85641,0.00544
2581.82615,0.00517
2580.79590,0.00506
2579.76564,0.00496
2578.73538,0.00514
2577.70512,0.00533
2576.67486,0.00497
2575.64461,0.00450
2574.61435,0.00455
2573.58409,0.00500
2572.55383,0.00527
2571.52358,0.00504
2570.49332,0.00486
2569.46306,0.00508
2568.43280,0.00536
2567.40254,0.00567
2566.37229,0.00563
2565.34203,0.00516
2564.31177,0.00487
2563.28151,0.00485
2562.25125,0.00511
2561.22100,0.00547
2560.19074,0.00566
2559.16048,0.00569
2558.13022,0.00558
2557.09997,0.00522
2556.06971,0.00470
2555.03945,0.00428
2554.00919,0.00413
2552.97893,0.00442
2551.94868,0.00481
2550.91842,0.00495
2549.88816,0.00504
2548.85790,0.00539
2547.82764,0.00598
2546.79739,0.00653
2545.76713,0.00671
2544.73687,0.00629
2543.70661,0.00553
2542.67636,0.00519
2541.64610,0.00552
2540.61584,0.00605
2539.58558,0.00618
2538.55532,0.00574
2537.52507,0.00515
2536.49481,0.00510
2535.46455,0.00529
2534.43429,0.00512
2533.40403,0.00508
2532.37378,0.00517
2531.34352,0.00494
2530.31326,0.00489
2529.28300,0.00504
2528.25275,0.00481
2527.22249,0.00466
2526.19223,0.00528
2525.16197,0.00593
2524.13171,0.00566
2523.10146,0.00501
2522.07120,0.00494
2521.04094,0.00514
2520.01068,0.00510
2518.98043,0.00511
2517.95017,0.00517
2516.91991,0.00473
2515.88965,0.00404
2514.85939,0.00384
2513.82914,0.00415
2512.79888,0.00443
2511.76862,0.00452
2510.73836,0.00497
2509.70810,0.00572
2508.67785,0.00603
2507.64759,0.00585
2506.61733,0.00572
2505.58707,0.00560
2504.55682,0.00529
2503.52656,0.00504
2502.49630,0.00493
2501.46604,0.00486
2500.43578,0.00474
2499.40553,0.00469
2498.37527,0.00495
2497.34501,0.00539
2496.31475,0.00547
2495.28449,0.00527
2494.25424,0.00524
2493.22398,0.00526
2492.19372,0.00515
2491.16346,0.00534
2490.13321,0.00599
2489.10295,0.00618
2488.07269,0.00574
2487.04243,0.00543
2486.01217,0.00529
2484.98192,0.00514
2483.95166,0.00528
2482.92140,0.00543
2481.89114,0.00559
2480.86088,0.00590
2479.83063,0.00580
2478.80037,0.00535
2477.77011,0.00508
2476.73985,0.00521
2475.70960,0.00559
2474.67934,0.00567
2473.64908,0.00570
2472.61882,0.00608
2471.58856,0.00608
2470.55831,0.00557
2469.52805,0.00526
2468.49779,0.00523
2467.46753,0.00537
2466.43728,0.00572
2465.40702,0.00623
2464.37676,0.00634
2463.34650,0.00605
2462.31624,0.00605
2461.28599,0.00621
2460.25573,0.00615
2459.22547,0.00596
2458.19521,0.00605
2457.16495,0.00638
2456.13470,0.00640
2455.10444,0.00635
2454.07418,0.00659
2453.04392,0.00661
2452.01367,0.00633
2450.98341,0.00587
2449.95315,0.00547
2448.92289,0.00558
2447.89263,0.00586
2446.86238,0.00578
2445.83212,0.00560
2444.80186,0.00586
2443.77160,0.00622
2442.74134,0.00606
2441.71109,0.00558
2440.68083,0.00524
2439.65057,0.00513
2438.62031,0.00528
2437.59006,0.00567
2436.55980,0.00595
2435.52954,0.00589
2434.49928,0.00602
2433.46902,0.00653
2432.43877,0.00677
2431.40851,0.00640
2430.37825,0.00570
2429.34799,0.00547
2428.31774,0.00615
2427.28748,0.00687
2426.25722,0.00668
2425.22696,0.00601
2424.19670,0.00562
2423.16645,0.00564
2422.13619,0.00601
2421.10593,0.00630
2420.07567,0.00631
2419.04541,0.00630
2418.01516,0.00627
2416.98490,0.00605
2415.95464,0.00586
2414.92438,0.00589
2413.89413,0.00584
2412.86387,0.00579
2411.83361,0.00615
2410.80335,0.00656
2409.77309,0.00655
2408.74284,0.00632
2407.71258,0.00624
2406.68232,0.00642
2405.65206,0.00653
2404.62180,0.00642
2403.59155,0.00664
2402.56129,0.00715
2401.53103,0.00706
2400.50077,0.00666
2399.47052,0.00679
2398.44026,0.00701
2397.41000,0.00699
2396.37974,0.00709
2395.34948,0.00740
2394.31923,0.00744
2393.28897,0.00712
2392.25871,0.00704
2391.22845,0.00736
2390.19819,0.00745
2389.16794,0.00726
2388.13768,0.00734
2387.10742,0.00752
2386.07716,0.00717
2385.04691,0.00674
2384.01665,0.00699
2382.98639,0.00747
2381.95613,0.00751
2380.92587,0.00721
2379.89562,0.00708
2378.86536,0.00740
2377.83510,0.00797
2376.80484,0.00829
2375.77459,0.00821
2374.74433,0.00841
2373.71407,0.00907
2372.68381,0.00946
2371.65355,0.00971
2370.62330,0.00990
2369.59304,0.00963
2368.56278,0.00946
2367.53252,0.00965
2366.50226,0.00951
2365.47201,0.00943
2364.44175,0.00968
2363.41149,0.00980
2362.38123,0.01006
2361.35098,0.01049
2360.32072,0.01046
2359.29046,0.01002
2358.26020,0.00964
2357.22994,0.00906
2356.19969,0.00850
2355.16943,0.00858
2354.13917,0.00913
2353.10891,0.01005
2352.07865,0.01064
2351.04840,0.01026
2350.01814,0.00970
2348.98788,0.00961
2347.95762,0.00991
2346.92737,0.01000
2345.89711,0.00968
2344.86685,0.00975
2343.83659,0.01005
2342.80633,0.00977
2341.77608,0.00940
2340.74582,0.01009
2339.71556,0.01129
2338.68530,0.01157
2337.65504,0.01109
2336.62479,0.01090
2335.59453,0.01093
2334.56427,0.01049
2333.53401,0.01016
2332.50376,0.01070
2331.47350,0.01138
2330.44324,0.01113
2329.41298,0.01041
2328.38272,0.01001
2327.35247,0.00987
2326.32221,0.00987
2325.29195,0.00996
2324.26169,0.00994
2323.23144,0.00973
2322.20118,0.00972
2321.17092,0.01004
2320.14066,0.01002
2319.11040,0.00924
2318.08015,0.00841
2317.04989,0.00852
2316.01963,0.00927
2314.98937,0.00948
2313.95911,0.00910
2312.92886,0.00912
2311.89860,0.00945
2310.86834,0.00965
2309.83808,0.00996
2308.80783,0.01016
2307.77757,0.01016
2306.74731,0.01011
2305.71705,0.00978
2304.68679,0.00962
2303.65654,0.00978
2302.62628,0.00939
2301.59602,0.00830
2300.56576,0.00765
2299.53550,0.00795
2298.50525,0.00877
2297.47499,0.00946
2296.44473,0.00930
2295.41447,0.00852
2294.38422,0.00813
2293.35396,0.00829
2292.32370,0.00860
2291.29344,0.00882
2290.26318,0.00913
2289.23293,0.00943
2288.20267,0.00943
2287.17241,0.00963
2286.14215,0.00989
2285.11189,0.00954
2284.08164,0.00898
2283.05138,0.00873
2282.02112,0.00888
2280.99086,0.00922
2279.96061,0.00931
2278.93035,0.00911
2277.90009,0.00921
2276.86983,0.00938
2275.83957,0.00903
2274.80932,0.00916
2273.77906,0.01017
2272.74880,0.01024
2271.71854,0.00925
2270.68829,0.00899
2269.65803,0.00962
2268.62777,0.01020
2267.59751,0.01010
2266.56725,0.00957
2265.53700,0.00870
2264.50674,0.00804
2263.47648,0.00850
2262.44622,0.00908
2261.41596,0.00913
2260.38571,0.00927
2259.35545,0.00948
2258.32519,0.00955
2257.29493,0.00944
2256.26468,0.00921
2255.23442,0.00910
2254.20416,0.00913
2253.17390,0.00928
2252.14364,0.00922
2251.11339,0.00872
2250.08313,0.00893
2249.05287,0.01013
2248.02261,0.01076
2246.99235,0.01008
2245.96210,0.00911
2244.93184,0.00857
2243.90158,0.00791
2242.87132,0.00703
2241.84107,0.00715
2240.81081,0.00839
2239.78055,0.00961
2238.75029,0.01061
2237.72003,0.01105
2236.68978,0.01052
2235.65952,0.01014
2234.62926,0.01076
2233.59900,0.01071
2232.56874,0.01016
2231.53849,0.01033
2230.50823,0.00961
2229.47797,0.00793
2228.44771,0.00699
2227.41746,0.00675
2226.38720,0.00678
2225.35694,0.00753
2224.32668,0.00893
2223.29642,0.01036
2222.26617,0.01119
2221.23591,0.01041
2220.20565,0.00903
2219.17539,0.00896
2218.14514,0.00986
2217.11488,0.01045
2216.08462,0.01006
2215.05436,0.00978
2214.02410,0.01024
2212.99385,0.00990
2211.96359,0.00849
2210.93333,0.00764
2209.90307,0.00829
2208.87281,0.00897
2207.84256,0.00860
2206.81230,0.00872
2205.78204,0.00932
2204.75178,0.00919
2203.72153,0.00868
2202.69127,0.00918
2201.66101,0.01080
2200.63075,0.01145
2199.60049,0.01119
2198.57024,0.01079
2197.53998,0.00975
2196.50972,0.00948
2195.47946,0.01014
2194.44920,0.00979
2193.41895,0.00886
2192.38869,0.00881
2191.35843,0.00888
2190.32817,0.00884
2189.29792,0.00951
2188.26766,0.01038
2187.23740,0.01055
2186.20714,0.00984
2185.17688,0.00913
2184.14663,0.00827
2183.11637,0.00665
2182.08611,0.00634
2181.05585,0.00824
2180.02559,0.00942
2178.99534,0.00946
2177.96508,0.00986
2176.93482,0.01032
2175.90456,0.01084
2174.87431,0.01064
2173.84405,0.00909
2172.81379,0.00789
2171.78353,0.00817
2170.75327,0.00960
2169.72302,0.01068
2168.69276,0.01029
2167.66250,0.01040
2166.63224,0.01143
2165.60199,0.01143
2164.57173,0.01023
2163.54147,0.00783
2162.51121,0.00514
2161.48095,0.00399
2160.45070,0.00487
2159.42044,0.00841
2158.39018,0.01151
2157.35992,0.01008
2156.32966,0.00830
2155.29941,0.00935
2154.26915,0.00999
2153.23889,0.00936
2152.20863,0.00950
2151.17838,0.01116
2150.14812,0.01324
2149.11786,0.01379
2148.08760,0.01414
2147.05734,0.01536
2146.02709,0.01407
2144.99683,0.01162
2143.96657,0.01211
2142.93631,0.01382
2141.90605,0.01427
2140.87580,0.01381
2139.84554,0.01318
2138.81528,0.01271
2137.78502,0.01232
2136.75477,0.01143
2135.72451,0.01070
2134.69425,0.01098
2133.66399,0.01154
2132.63373,0.01253
2131.60348,0.01384
2130.57322,0.01386
2129.54296,0.01291
2128.51270,0.01300
2127.48244,0.01406
2126.45219,0.01476
2125.42193,0.01481
2124.39167,0.01413
2123.36141,0.01282
2122.33116,0.01196
2121.30090,0.01245
2120.27064,0.01380
2119.24038,0.01451
2118.21012,0.01435
2117.17987,0.01434
2116.14961,0.01442
2115.11935,0.01431
2114.08909,0.01454
2113.05884,0.01464
2112.02858,0.01438
2110.99832,0.01465
2109.96806,0.01513
2108.93780,0.01475
2107.90755,0.01375
2106.87729,0.01361
2105.84703,0.01459
2104.81677,0.01501
2103.78651,0.01452
2102.75626,0.01468
2101.72600,0.01558
2100.69574,0.01595
2099.66548,0.01536
2098.63523,0.01402
2097.60497,0.01289
2096.57471,0.01281
2095.54445,0.01326
2094.51419,0.01353
2093.48394,0.01373
2092.45368,0.01379
2091.42342,0.01349
2090.39316,0.01339
2089.36290,0.01370
2088.33265,0.01363
2087.30239,0.01306
2086.27213,0.01234
2085.24187,0.01194
2084.21162,0.01252
2083.18136,0.01328
2082.15110,0.01311
2081.12084,0.01330
2080.09058,0.01425
2079.06033,0.01390
2078.03007,0.01248
2076.99981,0.01235
2075.96955,0.01348
2074.93930,0.01356
2073.90904,0.01238
2072.87878,0.01170
2071.84852,0.01160
2070.81826,0.01200
2069.78801,0.01284
2068.75775,0.01278
2067.72749,0.01147
2066.69723,0.01042
2065.66697,0.01068
2064.63672,0.01102
2063.60646,0.01034
2062.57620,0.00996
2061.54594,0.01096
2060.51569,0.01172
2059.48543,0.01105
2058.45517,0.01054
2057.42491,0.01134
2056.39465,0.01253
2055.36440,0.01323
2054.33414,0.01395
2053.30388,0.01442
2052.27362,0.01357
2051.24336,0.01156
2050.21311,0.00962
2049.18285,0.00942
2048.15259,0.01099
2047.12233,0.01224
2046.09208,0.01211
2045.06182,0.01191
2044.03156,0.01244
2043.00130,0.01256
2041.97104,0.01159
2040.94079,0.01044
2039.91053,0.01012
2038.88027,0.01032
2037.85001,0.01030
2036.81975,0.00977
2035.78950,0.00925
2034.75924,0.00922
2033.72898,0.00920
2032.69872,0.00899
2031.66847,0.00902
2030.63821,0.00989
2029.60795,0.01084
2028.57769,0.01058
2027.54743,0.00990
2026.51718,0.00998
2025.48692,0.01024
2024.45666,0.01072
2023.42640,0.01233
2022.39615,0.01363
2021.36589,0.01396
2020.33563,0.01391
2019.30537,0.01227
2018.27511,0.01065
2017.24486,0.01130
2016.21460,0.01143
2015.18434,0.00984
2014.15408,0.00965
2013.12382,0.01027
2012.09357,0.00920
2011.06331,0.00790
2010.03305,0.00771
2009.00279,0.00765
2007.97254,0.00872
2006.94228,0.01109
2005.91202,0.01141
2004.88176,0.01049
2003.85150,0.01116
2002.82125,0.01212
2001.79099,0.01206
2000.76073,0.01135
1999.73047,0.01075
1998.70021,0.01078
1997.66996,0.01090
1996.63970,0.01009
1995.60944,0.00890
1994.57918,0.00880
1993.54893,0.00919
1992.51867,0.00896
1991.48841,0.00983
1990.45815,0.01197
1989.42789,0.01162
1988.39764,0.00897
1987.36738,0.00809
1986.33712,0.00892
1985.30686,0.00944
1984.27660,0.00987
1983.24635,0.00956
1982.21609,0.00832
1981.18583,0.00810
1980.15557,0.00941
1979.12532,0.01038
1978.09506,0.01075
1977.06480,0.01104
1976.03454,0.01054
1975.00428,0.01094
1973.97403,0.01225
1972.94377,0.01184
1971.91351,0.00979
1970.88325,0.00836
1969.85300,0.00876
1968.82274,0.00981
1967.79248,0.01027
1966.76222,0.00999
1965.73196,0.00968
1964.70171,0.01030
1963.67145,0.01130
1962.64119,0.01157
1961.61093,0.01167
1960.58067,0.01175
1959.55042,0.01091
1958.52016,0.01013
1957.48990,0.01004
1956.45964,0.00944
1955.42939,0.00905
1954.39913,0.00986
1953.36887,0.01064
1952.33861,0.01091
1951.30835,0.01064
1950.27810,0.00979
1949.24784,0.00964
1948.21758,0.00972
1947.18732,0.00903
1946.15706,0.00890
1945.12681,0.00952
1944.09655,0.00938
1943.06629,0.00891
1942.03603,0.00930
1941.00578,0.00948
1939.97552,0.00923
1938.94526,0.00998
1937.91500,0.01071
1936.88474,0.00979
1935.85449,0.00862
1934.82423,0.00903
1933.79397,0.01008
1932.76371,0.01020
1931.73345,0.00990
1930.70320,0.01008
1929.67294,0.01031
1928.64268,0.01000
1927.61242,0.00965
1926.58217,0.00981
1925.55191,0.00993
1924.52165,0.00986
1923.49139,0.00972
1922.46113,0.00906
1921.43088,0.00833
1920.40062,0.00837
1919.37036,0.00869
1918.34010,0.00888
1917.30985,0.00913
1916.27959,0.00916
1915.24933,0.00930
1914.21907,0.00980
1913.18881,0.00938
1912.15856,0.00796
1911.12830,0.00721
1910.09804,0.00753
1909.06778,0.00833
1908.03752,0.00900
1907.00727,0.00896
1905.97701,0.00832
1904.94675,0.00778
1903.91649,0.00779
1902.88624,0.00807
1901.85598,0.00811
1900.82572,0.00792
1899.79546,0.00763
1898.76520,0.00734
1897.73495,0.00754
1896.70469,0.00794
1895.67443,0.00786
1894.64417,0.00757
1893.61391,0.00757
1892.58366,0.00810
1891.55340,0.00883
1890.52314,0.00917
1889.49288,0.00896
1888.46263,0.00870
1887.43237,0.00873
1886.40211,0.00881
1885.37185,0.00854
1884.34159,0.00801
1883.31134,0.00767
1882.28108,0.00763
1881.25082,0.00768
1880.22056,0.00764
1879.19030,0.00783
1878.16005,0.00818
1877.12979,0.00860
1876.09953,0.00938
1875.06927,0.00982
1874.03902,0.00922
1873.00876,0.00872
1871.97850,0.00895
1870.94824,0.00896
1869.91798,0.00871
1868.88773,0.00873
1867.85747,0.00858
1866.82721,0.00774
1865.79695,0.00665
1864.76670,0.00632
1863.73644,0.00702
1862.70618,0.00784
1861.67592,0.00785
1860.64566,0.00738
1859.61541,0.00696
1858.58515,0.00692
1857.55489,0.00737
1856.52463,0.00763
1855.49437,0.00745
1854.46412,0.00738
1853.43386,0.00756
1852.40360,0.00768
1851.37334,0.00776
1850.34309,0.00785
1849.31283,0.00797
1848.28257,0.00825
1847.25231,0.00836
1846.22205,0.00805
1845.19180,0.00783
1844.16154,0.00816
1843.13128,0.00852
1842.10102,0.00847
1841.07076,0.00839
1840.04051,0.00846
1839.01025,0.00847
1837.97999,0.00836
1836.94973,0.00852
1835.91948,0.00880
1834.88922,0.00861
1833.85896,0.00810
1832.82870,0.00785
1831.79844,0.00791
1830.76819,0.00786
1829.73793,0.00756
1828.70767,0.00734
1827.67741,0.00748
1826.64715,0.00788
1825.61690,0.00838
1824.58664,0.00867
1823.55638,0.00868
1822.52612,0.00860
1821.49587,0.00850
1820.46561,0.00843
1819.43535,0.00838
1818.40509,0.00835
1817.37483,0.00846
1816.34458,0.00880
1815.31432,0.00922
1814.28406,0.00950
1813.25380,0.00966
1812.22355,0.00977
1811.19329,0.00986
1810.16303,0.00979
1809.13277,0.00948
1808.10251,0.00933
1807.07226,0.00943
1806.04200,0.00933
1805.01174,0.00913
1803.98148,0.00912
1802.95122,0.00941
1801.92097,0.00991
1800.89071,0.01008
1799.86045,0.00989
1798.83019,0.00988
1797.79994,0.01001
1796.76968,0.00995
1795.73942,0.01003
1794.70916,0.01049
1793.67890,0.01080
1792.64865,0.01065
1791.61839,0.01060
1790.58813,0.01099
1789.55787,0.01125
1788.52761,0.01089
1787.49736,0.01037
1786.46710,0.01018
1785.43684,0.01019
1784.40658,0.01042
1783.37633,0.01084
1782.34607,0.01133
1781.31581,0.01179
1780.28555,0.01182
1779.25529,0.01154
1778.22504,0.01131
1777.19478,0.01121
1776.16452,0.01125
1775.13426,0.01135
1774.10400,0.01134
1773.07375,0.01109
1772.04349,0.01096
1771.01323,0.01131
1769.98297,0.01174
1768.95272,0.01212
1767.92246,0.01246
1766.89220,0.01251
1765.86194,0.01253
1764.83168,0.01267
1763.80143,0.01280
1762.77117,0.01290
1761.74091,0.01315
1760.71065,0.01362
1759.68040,0.01386
1758.65014,0.01399
1757.61988,0.01425
1756.58962,0.01447
1755.55936,0.01452
1754.52911,0.01442
1753.49885,0.01439
1752.46859,0.01460
1751.43833,0.01505
1750.40807,0.01565
1749.37782,0.01601
1748.34756,0.01604
1747.31730,0.01608
1746.28704,0.01633
1745.25679,0.01657
1744.22653,0.01671
1743.19627,0.01689
1742.16601,0.01727
1741.13575,0.01767
1740.10550,0.01783
1739.07524,0.01792
1738.04498,0.01813
1737.01472,0.01840
1735.98446,0.01861
1734.95421,0.01851
1733.92395,0.01832
1732.89369,0.01877
1731.86343,0.01921
1730.83318,0.01950
1729.80292,0.02008
1728.77266,0.02087
1727.74240,0.02139
1726.71214,0.02170
1725.68189,0.02208
1724.65163,0.02261
1723.62137,0.02311
1722.59111,0.02341
1721.56085,0.02380
1720.53060,0.02441
1719.50034,0.02498
1718.47008,0.02550
1717.43982,0.02604
1716.40957,0.02636
1715.37931,0.02680
1714.34905,0.02758
1713.31879,0.02823
1712.28853,0.02880
1711.25828,0.02956
1710.22802,0.03048
1709.19776,0.03137
1708.16750,0.03203
1707.13725,0.03259
1706.10699,0.03351
1705.07673,0.03475
1704.04647,0.03583
1703.01621,0.03659
1701.98596,0.03699
1700.95570,0.03717
1699.92544,0.03860
1698.89518,0.04091
1697.86492,0.04239
1696.83467,0.04341
1695.80441,0.04475
1694.77415,0.04660
1693.74389,0.04806
1692.71364,0.04913
1691.68338,0.05008
1690.65312,0.05128
1689.62286,0.05278
1688.59260,0.05437
1687.56235,0.05602
1686.53209,0.05770
1685.50183,0.05937
1684.47157,0.06130
1683.44131,0.06337
1682.41106,0.06506
1681.38080,0.06647
1680.35054,0.06801
1679.32028,0.07000
1678.29003,0.07221
1677.25977,0.07421
1676.22951,0.07585
1675.19925,0.07769
1674.16899,0.07990
1673.13874,0.08198
1672.10848,0.08395
1671.07822,0.08567
1670.04796,0.08748
1669.01771,0.08999
1667.98745,0.09233
1666.95719,0.09404
1665.92693,0.09573
1664.89667,0.09751
1663.86642,0.09928
1662.83616,0.10103
1661.80590,0.10296
1660.77564,0.10494
1659.74538,0.10672
1658.71513,0.10827
1657.68487,0.10973
1656.65461,0.11130
1655.62435,0.11306
1654.59410,0.11475
1653.56384,0.11554
1652.53358,0.11592
1651.50332,0.11756
1650.47306,0.11932
1649.44281,0.12057
1648.41255,0.12122
1647.38229,0.12158
1646.35203,0.12193
1645.32177,0.12205
1644.29152,0.12220
1643.26126,0.12236
1642.23100,0.12240
1641.20074,0.12224
1640.17049,0.12184
1639.14023,0.12142
1638.10997,0.12090
1637.07971,0.12026
1636.04945,0.11936
1635.01920,0.11794
1633.98894,0.11680
1632.95868,0.11571
1631.92842,0.11417
1630.89816,0.11248
1629.86791,0.11089
1628.83765,0.10923
1627.80739,0.10698
1626.77713,0.10454
1625.74688,0.10259
1624.71662,0.10076
1623.68636,0.09833
1622.65610,0.09556
1621.62584,0.09347
1620.59559,0.09157
1619.56533,0.08936
1618.53507,0.08713
1617.50481,0.08485
1616.47456,0.08179
1615.44430,0.07930
1614.41404,0.07767
1613.38378,0.07604
1612.35352,0.07427
1611.32327,0.07229
1610.29301,0.07008
1609.26275,0.06797
1608.23249,0.06636
1607.20223,0.06471
1606.17198,0.06286
1605.14172,0.06126
1604.11146,0.05986
1603.08120,0.05836
1602.05095,0.05676
1601.02069,0.05522
1599.99043,0.05394
1598.96017,0.05297
1597.92991,0.05213
1596.89966,0.05131
1595.86940,0.05041
1594.83914,0.04940
1593.80888,0.04841
1592.77862,0.04755
1591.74837,0.04662
1590.71811,0.04573
1589.68785,0.04505
1588.65759,0.04432
1587.62734,0.04340
1586.59708,0.04255
1585.56682,0.04191
1584.53656,0.04135
1583.50630,0.04072
1582.47605,0.04001
1581.44579,0.03944
1580.41553,0.03913
1579.38527,0.03894
1578.35501,0.03851
1577.32476,0.03762
1576.29450,0.03643
1575.26424,0.03567
1574.23398,0.03540
1573.20373,0.03524
1572.17347,0.03513
1571.14321,0.03501
1570.11295,0.03474
1569.08269,0.03414
1568.05244,0.03369
1567.02218,0.03346
1565.99192,0.03320
1564.96166,0.03288
1563.93141,0.03244
1562.90115,0.03188
1561.87089,0.03153
1560.84063,0.03160
1559.81037,0.03188
1558.78012,0.03173
1557.74986,0.03103
1556.71960,0.03051
1555.68934,0.03043
1554.65908,0.03060
1553.62883,0.03064
1552.59857,0.03030
1551.56831,0.02992
1550.53805,0.02984
1549.50780,0.02993
1548.47754,0.02973
1547.44728,0.02933
1546.41702,0.02917
1545.38676,0.02923
1544.35651,0.02890
1543.32625,0.02837
1542.29599,0.02813
1541.26573,0.02791
1540.23547,0.02751
1539.20522,0.02748
1538.17496,0.02797
1537.14470,0.02817
1536.11444,0.02810
1535.08419,0.02801
1534.05393,0.02788
1533.02367,0.02774
1531.99341,0.02777
1530.96315,0.02772
1529.93290,0.02754
1528.90264,0.02746
1527.87238,0.02743
1526.84212,0.02744
1525.81186,0.02750
1524.78161,0.02745
1523.75135,0.02735
1522.72109,0.02705
1521.69083,0.02651
1520.66058,0.02636
1519.63032,0.02676
1518.60006,0.02718
1517.56980,0.02723
1516.53954,0.02701
1515.50929,0.02712
1514.47903,0.02748
1513.44877,0.02770
1512.41851,0.02771
1511.38826,0.02757
1510.35800,0.02725
1509.32774,0.02688
1508.29748,0.02658
1507.26722,0.02627
1506.23697,0.02634
1505.20671,0.02688
1504.17645,0.02738
1503.14619,0.02783
1502.11593,0.02811
1501.08568,0.02824
1500.05542,0.02839
1499.02516,0.02843
1497.99490,0.02853
1496.96465,0.02899
1495.93439,0.02992
1494.90413,0.03085
1493.87387,0.03155
1492.84361,0.03240
1491.81336,0.03360
1490.78310,0.03492
1489.75284,0.03594
1488.72258,0.03656
1487.69232,0.03720
1486.66207,0.03811
1485.63181,0.03904
1484.60155,0.04000
1483.57129,0.04126
1482.54104,0.04275
1481.51078,0.04438
1480.48052,0.04644
1479.45026,0.04909
1478.42000,0.05221
1477.38975,0.05551
1476.35949,0.05911
1475.32923,0.06241
1474.29897,0.06477
1473.26871,0.06677
1472.23846,0.06824
1471.20820,0.06878
1470.17794,0.06877
1469.14768,0.06870
1468.11743,0.06881
1467.08717,0.06912
1466.05691,0.06944
1465.02665,0.06973
1463.99639,0.07001
1462.96614,0.07036
1461.93588,0.07101
1460.90562,0.07192
1459.87536,0.07262
1458.84511,0.07312
1457.81485,0.07398
1456.78459,0.07500
1455.75433,0.07540
1454.72407,0.07504
1453.69382,0.07406
1452.66356,0.07247
1451.63330,0.07036
1450.60304,0.06818
1449.57278,0.06629
1448.54253,0.06480
1447.51227,0.06351
1446.48201,0.06219
1445.45175,0.06064
1444.42150,0.05915
1443.39124,0.05801
1442.36098,0.05677
1441.33072,0.05509
1440.30046,0.05312
1439.27021,0.05128
1438.23995,0.04992
1437.20969,0.04840
1436.17943,0.04629
1435.14917,0.04500
1434.11892,0.04428
1433.08866,0.04350
1432.05840,0.04278
1431.02814,0.04227
1429.99789,0.04176
1428.96763,0.04129
1427.93737,0.04101
1426.90711,0.04086
1425.87685,0.04090
1424.84660,0.04082
1423.81634,0.04040
1422.78608,0.04015
1421.75582,0.04023
1420.72556,0.04030
1419.69531,0.04029
1418.66505,0.04035
1417.63479,0.04031
1416.60453,0.03998
1415.57428,0.03970
1414.54402,0.03955
1413.51376,0.03942
1412.48350,0.03960
1411.45324,0.03995
1410.42299,0.03989
1409.39273,0.03955
1408.36247,0.03948
1407.33221,0.03975
1406.30196,0.03999
1405.27170,0.03998
1404.24144,0.03978
1403.21118,0.03976
1402.18092,0.04000
1401.15067,0.04024
1400.12041,0.04030
1399.09015,0.04021
1398.05989,0.04017
1397.02963,0.04028
1395.99938,0.04032
1394.96912,0.04031
1393.93886,0.04033
1392.90860,0.04038
1391.87835,0.04053
1390.84809,0.04081
1389.81783,0.04109
1388.78757,0.04111
1387.75731,0.04105
1386.72706,0.04128
1385.69680,0.04168
1384.66654,0.04208
1383.63628,0.04250
1382.60602,0.04279
1381.57577,0.04294
1380.54551,0.04311
1379.51525,0.04339
1378.48499,0.04384
1377.45474,0.04449
1376.42448,0.04529
1375.39422,0.04613
1374.36396,0.04689
1373.33370,0.04761
1372.30345,0.04833
1371.27319,0.04913
1370.24293,0.05022
1369.21267,0.05170
1368.18241,0.05326
1367.15216,0.05459
1366.12190,0.05597
1365.09164,0.05765
1364.06138,0.05957
1363.03113,0.06195
1362.00087,0.06491
1360.97061,0.06823
1359.94035,0.07159
1358.91009,0.07485
1357.87984,0.07831
1356.84958,0.08207
1355.81932,0.08614
1354.78906,0.09042
1353.75881,0.09474
1352.72855,0.09890
1351.69829,0.10263
1350.66803,0.10581
1349.63777,0.10801
1348.60752,0.10828
1347.57726,0.10577
1346.54700,0.10004
1345.51674,0.09138
1344.48648,0.08135
1343.45623,0.07191
1342.42597,0.06448
1341.39571,0.05948
1340.36545,0.05640
1339.33520,0.05443
1338.30494,0.05305
1337.27468,0.05231
1336.24442,0.05232
1335.21416,0.05278
1334.18391,0.05331
1333.15365,0.05373
1332.12339,0.05390
1331.09313,0.05373
1330.06287,0.05332
1329.03262,0.05286
1328.00236,0.05226
1326.97210,0.05136
1325.94184,0.05043
1324.91159,0.04979
1323.88133,0.04924
1322.85107,0.04857
1321.82081,0.04804
1320.79055,0.04798
1319.76030,0.04813
1318.73004,0.04842
1317.69978,0.04909
1316.66952,0.05005
1315.63927,0.05102
1314.60901,0.05210
1313.57875,0.05364
1312.54849,0.05560
1311.51823,0.05771
1310.48798,0.05985
1309.45772,0.06208
1308.42746,0.06430
1307.39720,0.06625
1306.36694,0.06801
1305.33669,0.06970
1304.30643,0.07107
1303.27617,0.07205
1302.24591,0.07274
1301.21566,0.07314
1300.18540,0.07335
1299.15514,0.07370
1298.12488,0.07417
1297.09462,0.07433
1296.06437,0.07427
1295.03411,0.07431
1294.00385,0.07440
1292.97359,0.07432
1291.94333,0.07412
1290.91308,0.07390
1289.88282,0.07372
1288.85256,0.07361
1287.82230,0.07339
1286.79205,0.07307
1285.76179,0.07265
1284.73153,0.07200
1283.70127,0.07130
1282.67101,0.07049
1281.64076,0.06921
1280.61050,0.06755
1279.58024,0.06613
1278.54998,0.06514
1277.51972,0.06424
1276.48947,0.06318
1275.45921,0.06201
1274.42895,0.06099
1273.39869,0.06027
1272.36844,0.05976
1271.33818,0.05943
1270.30792,0.05937
1269.27766,0.05946
1268.24740,0.05960
1267.21715,0.05999
1266.18689,0.06090
1265.15663,0.06234
1264.12637,0.06411
1263.09612,0.06588
1262.06586,0.06773
1261.03560,0.06995
1260.00534,0.07220
1258.97508,0.07413
1257.94483,0.07614
1256.91457,0.07848
1255.88431,0.08075
1254.85405,0.08265
1253.82379,0.08427
1252.79354,0.08559
1251.76328,0.08642
1250.73302,0.08675
1249.70276,0.08673
1248.67251,0.08612
1247.64225,0.08472
1246.61199,0.08310
1245.58173,0.08142
1244.55147,0.07925
1243.52122,0.07678
1242.49096,0.07447
1241.46070,0.07234
1240.43044,0.07036
1239.40018,0.06856
1238.36993,0.06682
1237.33967,0.06484
1236.30941,0.06279
1235.27915,0.06096
1234.24890,0.05915
1233.21864,0.05729
1232.18838,0.05561
1231.15812,0.05390
1230.12786,0.05220
1229.09761,0.05090
1228.06735,0.04998
1227.03709,0.04923
1226.00683,0.04852
1224.97657,0.04770
1223.94632,0.04686
1222.91606,0.04609
1221.88580,0.04538
1220.85554,0.04481
1219.82529,0.04419
1218.79503,0.04357
1217.76477,0.04320
1216.73451,0.04277
1215.70425,0.04217
1214.67400,0.04158
1213.64374,0.04108
1212.61348,0.04077
1211.58322,0.04062
1210.55297,0.04041
1209.52271,0.04019
1208.49245,0.04007
1207.46219,0.03985
1206.43193,0.03955
1205.40168,0.03937
1204.37142,0.03924
1203.34116,0.03904
1202.31090,0.03886
1201.28064,0.03871
1200.25039,0.03848
1199.22013,0.03835
1198.18987,0.03852
1197.15961,0.03875
1196.12936,0.03892
1195.09910,0.03921
1194.06884,0.03950
1193.03858,0.03953
1192.00832,0.03940
1190.97807,0.03923
1189.94781,0.03915
1188.91755,0.03923
1187.88729,0.03932
1186.85703,0.03952
1185.82678,0.03982
1184.79652,0.04006
1183.76626,0.04039
1182.73600,0.04079
1181.70575,0.04127
1180.67549,0.04181
1179.64523,0.04204
1178.61497,0.04210
1177.58471,0.04240
1176.55446,0.04293
1175.52420,0.04342
1174.49394,0.04393
1173.46368,0.04462
1172.43342,0.04544
1171.40317,0.04629
1170.37291,0.04715
1169.34265,0.04816
1168.31239,0.04920
1167.28214,0.05009
1166.25188,0.05119
1165.22162,0.05280
1164.19136,0.05468
1163.16110,0.05679
1162.13085,0.05935
1161.10059,0.06222
1160.07033,0.06526
1159.04007,0.06866
1158.00982,0.07247
1156.97956,0.07647
1155.94930,0.08061
1154.91904,0.08512
1153.88878,0.09024
1152.85853,0.09574
1151.82827,0.10132
1150.79801,0.10712
1149.76775,0.11312
1148.73749,0.11883
1147.70724,0.12443
1146.67698,0.13039
1145.64672,0.13630
1144.61646,0.14176
1143.58621,0.14685
1142.55595,0.15179
1141.52569,0.15652
1140.49543,0.16097
1139.46517,0.16517
1138.43492,0.16893
1137.40466,0.17231
1136.37440,0.17574
1135.34414,0.17911
1134.31388,0.18218
1133.28363,0.18498
1132.25337,0.18739
1131.22311,0.18974
1130.19285,0.19228
1129.16260,0.19493
1128.13234,0.19801
1127.10208,0.20167
1126.07182,0.20526
1125.04156,0.20857
1124.01131,0.21207
1122.98105,0.21583
1121.95079,0.22005
1120.92053,0.22525
1119.89027,0.23115
1118.86002,0.23674
1117.82976,0.24146
1116.79950,0.24610
1115.76924,0.25135
1114.73899,0.25658
1113.70873,0.26158
1112.67847,0.26659
1111.64821,0.27154
1110.61795,0.27668
1109.58770,0.28232
1108.55744,0.28823
1107.52718,0.29400
1106.49692,0.29987
1105.46667,0.30611
1104.43641,0.31215
1103.40615,0.31794
1102.37589,0.32392
1101.34563,0.32992
1100.31538,0.33587
1099.28512,0.34157
1098.25486,0.34687
1097.22460,0.35205
1096.19434,0.35710
1095.16409,0.36192
1094.13383,0.36644
1093.10357,0.37038
1092.07331,0.37388
1091.04306,0.37739
1090.01280,0.38080
1088.98254,0.38367
1087.95228,0.38593
1086.92202,0.38796
1085.89177,0.38998
1084.86151,0.39139
1083.83125,0.39158
1082.80099,0.39115
1081.77073,0.39086
1080.74048,0.39035
1079.71022,0.38891
1078.67996,0.38643
1077.64970,0.38361
1076.61945,0.38109
1075.58919,0.37872
1074.55893,0.37606
1073.52867,0.37290
1072.49841,0.36952
1071.46816,0.36584
1070.43790,0.36156
1069.40764,0.35730
1068.37738,0.35340
1067.34712,0.34901
1066.31687,0.34345
1065.28661,0.33694
1064.25635,0.33003
1063.22609,0.32271
1062.19584,0.31465
1061.16558,0.30583
1060.13532,0.29639
1059.10506,0.28668
1058.07480,0.27669
1057.04455,0.26591
1056.01429,0.25483
1054.98403,0.24445
1053.95377,0.23465
1052.92352,0.22490
1051.89326,0.21514
1050.86300,0.20604
1049.83274,0.19795
1048.80248,0.19077
1047.77223,0.18484
1046.74197,0.18011
1045.71171,0.17627
1044.68145,0.17318
1043.65119,0.17065
1042.62094,0.16881
1041.59068,0.16761
1040.56042,0.16662
1039.53016,0.16562
1038.49991,0.16465
1037.46965,0.16363
1036.43939,0.16258
1035.40913,0.16151
1034.37887,0.16025
1033.34862,0.15876
1032.31836,0.15692
1031.28810,0.15450
1030.25784,0.15170
1029.22758,0.14908
1028.19733,0.14639
1027.16707,0.14296
1026.13681,0.13895
1025.10655,0.13490
1024.07630,0.13097
1023.04604,0.12708
1022.01578,0.12313
1020.98552,0.11910
1019.95526,0.11514
1018.92501,0.11143
1017.89475,0.10789
1016.86449,0.10429
1015.83423,0.10076
1014.80397,0.09766
1013.77372,0.09493
1012.74346,0.09243
1011.71320,0.09019
1010.68294,0.08827
1009.65269,0.08665
1008.62243,0.08516
1007.59217,0.08373
1006.56191,0.08248
1005.53165,0.08140
1004.50140,0.08045
1003.47114,0.07984
1002.44088,0.07981
1001.41062,0.07984
1000.38037,0.07934
999.35011,0.07848
998.31985,0.07776
997.28959,0.07752
996.25933,0.07759
995.22908,0.07747
994.19882,0.07700
993.16856,0.07645
992.13830,0.07592
991.10804,0.07544
990.07779,0.07521
989.04753,0.07504
988.01727,0.07440
986.98701,0.07337
985.95676,0.07264
984.92650,0.07227
983.89624,0.07186
982.86598,0.07115
981.83572,0.07039
980.80547,0.06994
979.77521,0.06950
978.74495,0.06878
977.71469,0.06842
976.68443,0.06866
975.65418,0.06870
974.62392,0.06861
973.59366,0.06918
972.56340,0.07031
971.53315,0.07129
970.50289,0.07203
969.47263,0.07288
968.44237,0.07417
967.41211,0.07610
966.38186,0.07859
965.35160,0.08152
964.32134,0.08472
963.29108,0.08838
962.26082,0.09288
961.23057,0.09815
960.20031,0.10373
959.17005,0.10951
958.13979,0.11559
957.10954,0.12201
956.07928,0.12867
955.04902,0.13533
954.01876,0.14146
952.98850,0.14675
951.95825,0.15135
950.92799,0.15547
949.89773,0.15901
948.86747,0.16186
947.83722,0.16393
946.80696,0.16480
945.77670,0.16444
944.74644,0.16358
943.71618,0.16246
942.68593,0.16081
941.65567,0.15881
940.62541,0.15656
939.59515,0.15413
938.56489,0.15187
937.53464,0.14966
936.50438,0.14728
935.47412,0.14465
934.44386,0.14184
933.41361,0.13919
932.38335,0.13680
931.35309,0.13456
930.32283,0.13238
929.29257,0.12987
928.26232,0.12727
927.23206,0.12537
926.20180,0.12391
925.17154,0.12234
924.14128,0.12063
923.11103,0.11879
922.08077,0.11715
921.05051,0.11592
920.02025,0.11491
918.99000,0.11390
917.95974,0.11279
916.92948,0.11155
915.89922,0.11013
914.86896,0.10869
913.83871,0.10779
912.80845,0.10728
911.77819,0.10621
910.74793,0.10441
909.71768,0.10269
908.68742,0.10123
907.65716,0.09977
906.62690,0.09859
905.59664,0.09792
904.56639,0.09745
903.53613,0.09685
902.50587,0.09598
901.47561,0.09500
900.44535,0.09415
899.41510,0.09360
898.38484,0.09382
897.35458,0.09487
896.32432,0.09614
895.29407,0.09735
894.26381,0.09852
893.23355,0.09979
892.20329,0.10133
891.17303,0.10312
890.14278,0.10511
889.11252,0.10697
888.08226,0.10862
887.05200,0.11030
886.02174,0.11172
884.99149,0.11257
883.96123,0.11298
882.93097,0.11296
881.90071,0.11231
880.87046,0.11107
879.84020,0.11001
878.80994,0.10951
877.77968,0.10929
876.74942,0.10936
875.71917,0.10980
874.68891,0.11046
873.65865,0.11077
872.62839,0.11050
871.59813,0.11069
870.56788,0.11184
869.53762,0.11319
868.50736,0.11429
867.47710,0.11504
866.44685,0.11531
865.41659,0.11548
864.38633,0.11614
863.35607,0.11731
862.32581,0.11860
861.29556,0.11989
860.26530,0.12120
859.23504,0.12263
858.20478,0.12420
857.17453,0.12595
856.14427,0.12815
855.11401,0.13041
854.08375,0.13249
853.05349,0.13473
852.02324,0.13720
850.99298,0.13958
849.96272,0.14163
848.93246,0.14359
847.90220,0.14578
846.87195,0.14767
845.84169,0.14883
844.81143,0.15002
843.78117,0.15175
842.75092,0.15369
841.72066,0.15568
840.69040,0.15770
839.66014,0.15955
838.62988,0.16072
837.59963,0.16130
836.56937,0.16221
835.53911,0.16317
834.50885,0.16368
833.47859,0.16403
832.44834,0.16408
831.41808,0.16369
830.38782,0.16317
829.35756,0.16279
828.32731,0.16236
827.29705,0.16192
826.26679,0.16160
825.23653,0.16140
824.20627,0.16137
823.17602,0.16155
822.14576,0.16165
821.11550,0.16136
820.08524,0.16121
819.05498,0.16146
818.02473,0.16175
816.99447,0.16229
815.96421,0.16336
814.93395,0.16423
813.90370,0.16440
812.87344,0.16452
811.84318,0.16484
810.81292,0.16496
809.78266,0.16506
808.75241,0.16536
807.72215,0.16585
806.69189,0.16726
805.66163,0.16899
804.63138,0.16952
803.60112,0.16930
802.57086,0.16956
801.54060,0.17036
800.51034,0.17129
799.48009,0.17207
798.44983,0.17259
797.41957,0.17267
796.38931,0.17265
795.35905,0.17346
794.32880,0.17466
793.29854,0.17556
792.26828,0.17633
791.23802,0.17706
790.20777,0.17785
789.17751,0.17864
788.14725,0.17948
787.11699,0.18011
786.08673,0.18067
785.05648,0.18170
784.02622,0.18292
782.99596,0.18409
781.96570,0.18522
780.93544,0.18611
779.90519,0.18666
778.87493,0.18746
777.84467,0.18873
776.81441,0.18995
775.78416,0.19118
774.75390,0.19210
773.72364,0.19229
772.69338,0.19267
771.66312,0.19371
770.63287,0.19526
769.60261,0.19711
768.57235,0.19866
767.54209,0.19976
766.51183,0.20056
765.48158,0.20140
764.45132,0.20273
763.42106,0.20411
762.39080,0.20509
761.36055,0.20606
760.33029,0.20701
759.30003,0.20825
758.26977,0.21012
757.23951,0.21179
756.20926,0.21304
755.17900,0.21462
754.14874,0.21647
753.11848,0.21771
752.08823,0.21805
751.05797,0.21868
750.02771,0.22045
748.99745,0.22246
747.96719,0.22403
746.93694,0.22510
745.90668,0.22615
744.87642,0.22761
743.84616,0.22907
742.81590,0.23030
741.78565,0.23155
740.75539,0.23292
739.72513,0.23454
738.69487,0.23642
737.66462,0.23795
736.63436,0.23877
735.60410,0.23935
734.57384,0.24021
733.54358,0.24159
732.51333,0.24341
731.48307,0.24465
730.45281,0.24548
729.42255,0.24704
728.39229,0.24866
727.36204,0.24956
726.33178,0.25045
725.30152,0.25196
724.27126,0.25339
723.24101,0.25424
722.21075,0.25545
721.18049,0.25729
720.15023,0.25902
719.11997,0.26066
718.08972,0.26236
717.05946,0.26375
716.02920,0.26473
714.99894,0.26585
713.96868,0.26718
712.93843,0.26844
711.90817,0.26994
710.87791,0.27150
709.84765,0.27231
708.81740,0.27278
707.78714,0.27384
706.75688,0.27553
705.72662,0.27754
704.69636,0.27938
703.66611,0.28069
702.63585,0.28167
701.60559,0.28243
700.57533,0.28277
699.54508,0.28318
698.51482,0.28478
697.48456,0.28727
696.45430,0.28884
695.42404,0.28946
694.39379,0.29080
693.36353,0.29278
692.33327,0.29464
691.30301,0.29621
690.27275,0.29708
689.24250,0.29778
688.21224,0.29938
687.18198,0.30096
686.15172,0.30090
685.12147,0.30040
684.09121,0.30162
683.06095,0.30319
682.03069,0.30346
681.00043,0.30414
679.97018,0.30576
678.93992,0.30705
677.90966,0.30838
676.87940,0.31047
675.84914,0.31252
674.81889,0.31365
673.78863,0.31392
672.75837,0.31411
671.72811,0.31501
670.69786,0.31639
669.66760,0.31789
668.63734,0.32000
667.60708,0.32275
666.57682,0.32343
665.54657,0.32320
664.51631,0.32372
663.48605,0.32554
662.45579,0.32672
661.42553,0.32663
660.39528,0.32733
659.36502,0.32814
658.33476,0.32793
657.30450,0.32813
656.27425,0.32972
655.24399,0.33240
654.21373,0.33498
653.18347,0.33659
652.15321,0.33779
651.12296,0.33875
650.09270,0.33893
649.06244,0.33901
648.03218,0.33945
647.00193,0.33975
645.97167,0.34021
644.94141,0.34113
643.91115,0.34212
642.88089,0.34307
641.85064,0.34430
640.82038,0.34648
639.79012,0.34911
638.75986,0.34975
637.72960,0.34907
636.69935,0.34935
635.66909,0.34991
634.63883,0.35038
633.60857,0.35172
632.57832,0.35310
631.54806,0.35383
630.51780,0.35439
629.48754,0.35493
628.45728,0.35605
627.42703,0.35716
626.39677,0.35730
625.36651,0.35764
624.33625,0.35912
623.30599,0.36062
622.27574,0.36160
621.24548,0.36248
620.21522,0.36313
619.18496,0.36370
618.15471,0.36336
617.12445,0.36245
616.09419,0.36323
615.06393,0.36545
614.03367,0.36743
613.00342,0.36803
611.97316,0.36761
610.94290,0.36749
609.91264,0.36828
608.88238,0.36955
607.85213,0.37022
606.82187,0.37058
605.79161,0.37147
604.76135,0.37266
603.73110,0.37369
602.70084,0.37465
601.67058,0.37613
600.64032,0.37859
599.61006,0.38090
598.57981,0.38127
597.54955,0.38051
596.51929,0.38012
595.48903,0.37985
594.45878,0.38053
593.42852,0.38289
592.39826,0.38529
591.36800,0.38657
590.33774,0.38666
589.30749,0.38657
588.27723,0.38775
587.24697,0.39025
586.21671,0.39203
585.18645,0.39209
584.15620,0.39283
583.12594,0.39478
582.09568,0.39608
581.06542,0.39645
580.03517,0.39662
579.00491,0.39730
577.97465,0.39892
576.94439,0.40043
575.91413,0.40102
574.88388,0.40126
573.85362,0.40099
572.82336,0.40099
571.79310,0.40249
570.76284,0.40334
569.73259,0.40238
568.70233,0.40263
567.67207,0.40442
566.64181,0.40464
565.61156,0.40343
564.58130,0.40305
563.55104,0.40400
562.52078,0.40490
561.49052,0.40542
560.46027,0.40651
559.43001,0.40735
558.39975,0.40642
557.36949,0.40426
556.33924,0.40470
555.30898,0.40987
554.27872,0.41443
553.24846,0.41382
552.21820,0.41126
551.18795,0.41039
550.15769,0.41198
549.12743,0.41526
548.09717,0.41731
547.06691,0.41648
546.03666,0.41422
545.00640,0.41225
543.97614,0.41159
542.94588,0.41252
541.91563,0.41326
540.88537,0.41304
539.85511,0.41380
538.82485,0.41657
537.79459,0.42069
536.76434,0.42341
535.73408,0.42306
534.70382,0.42201
533.67356,0.42226
532.64330,0.42315
531.61305,0.42380
530.58279,0.42433
529.55253,0.42571
528.52227,0.42857
527.49202,0.43124
526.46176,0.43263
525.43150,0.43290
524.40124,0.43103
523.37098,0.42948
522.34073,0.43092
521.31047,0.43189
520.28021,0.43121
519.24995,0.43212
518.21969,0.43290
517.18944,0.43226
516.15918,0.43261
515.12892,0.43396
514.09866,0.43548
513.06841,0.43528
512.03815,0.43285
511.00789,0.43210
509.97763,0.43294
508.94737,0.43306
507.91712,0.43259
506.88686,0.42941
505.85660,0.42715
504.82634,0.43055
503.79609,0.43399
502.76583,0.43289
501.73557,0.42972
500.70531,0.42877
499.67505,0.43069
498.64480,0.43238
497.61454,0.43265
496.58428,0.43411
495.55402,0.43672
494.52376,0.43599
493.49351,0.43161
492.46325,0.42922
491.43299,0.43186
490.40273,0.43523
489.37248,0.43563
488.34222,0.43523
487.31196,0.43327
486.28170,0.42983
485.25144,0.42938
484.22119,0.43081
483.19093,0.43129
482.16067,0.43132
481.13041,0.43199
480.10015,0.43349
479.06990,0.43199
478.03964,0.42711
477.00938,0.42446
475.97912,0.42597
474.94887,0.43097
473.91861,0.43633
472.88835,0.43508
471.85809,0.42851
470.82783,0.42612
469.79758,0.42879
468.76732,0.43262
467.73706,0.43360
466.70680,0.42996
465.67654,0.42643
464.64629,0.42685
463.61603,0.42801
462.58577,0.42739
461.55551,0.42572
460.52526,0.42386
459.49500,0.42377
458.46474,0.42559
457.43448,0.42651
456.40422,0.42662
455.37397,0.42935
454.34371,0.43325
453.31345,0.43086
452.28319,0.42291
451.25294,0.41941
450.22268,0.41997
449.19242,0.42061
448.16216,0.42213
447.13190,0.42317
446.10165,0.42277
445.07139,0.42482
444.04113,0.43004
443.01087,0.43281
441.98061,0.42958
440.95036,0.42386
439.92010,0.41923
438.88984,0.41464
437.85958,0.41062
436.82933,0.41268
435.79907,0.42001
434.76881,0.42376
433.73855,0.42342
432.70829,0.42363
431.67804,0.42522
430.64778,0.42588
429.61752,0.42300
428.58726,0.42037
427.55700,0.42284
426.52675,0.42834
425.49649,0.43150
424.46623,0.42834
423.43597,0.41937
422.40572,0.41190
421.37546,0.41254
420.34520,0.41730
419.31494,0.41727
418.28468,0.40934
417.25443,0.40756
416.22417,0.41335
415.19391,0.41669
414.16365,0.41777
413.13339,0.41927
412.10314,0.41684
411.07288,0.41452
410.04262,0.41509
409.01236,0.41531
407.98211,0.41422
406.95185,0.41465
405.92159,0.41947
404.89133,0.42334
403.86107,0.42478
402.83082,0.42869
401.80056,0.43427
400.77030,0.43447
399.74004,0.42349
