4998.81105,0.01957
4997.78079,0.01987
4996.75054,0.02058
4995.72028,0.01975
4994.69002,0.01799
4993.65976,0.01734
4992.62951,0.01730
4991.59925,0.01743
4990.56899,0.01789
4989.53873,0.01786
4988.50847,0.01736
4987.47822,0.01711
4986.44796,0.01691
4985.41770,0.01648
4984.38744,0.01629
4983.35718,0.01669
4982.32693,0.01729
4981.29667,0.01750
4980.26641,0.01766
4979.23615,0.01776
4978.20590,0.01729
4977.17564,0.01673
4976.14538,0.01629
4975.11512,0.01600
4974.08486,0.01644
4973.05461,0.01738
4972.02435,0.01792
4970.99409,0.01762
4969.96383,0.01692
4968.93357,0.01680
4967.90332,0.01727
4966.87306,0.01753
4965.84280,0.01741
4964.81254,0.01664
4963.78229,0.01593
4962.75203,0.01655
4961.72177,0.01764
4960.69151,0.01845
4959.66125,0.01883
4958.63100,0.01857
4957.60074,0.01849
4956.57048,0.01803
4955.54022,0.01669
4954.50997,0.01552
4953.47971,0.01510
4952.44945,0.01572
4951.41919,0.01724
4950.38893,0.01853
4949.35868,0.01842
4948.32842,0.01743
4947.29816,0.01670
4946.26790,0.01639
4945.23764,0.01654
4944.20739,0.01744
4943.17713,0.01871
4942.14687,0.01917
4941.11661,0.01848
4940.08636,0.01780
4939.05610,0.01750
4938.02584,0.01708
4936.99558,0.01703
4935.96532,0.01763
4934.93507,0.01805
4933.90481,0.01773
4932.87455,0.01716
4931.84429,0.01694
4930.81403,0.01734
4929.78378,0.01807
4928.75352,0.01841
4927.72326,0.01848
4926.69300,0.01808
4925.66275,0.01689
4924.63249,0.01592
4923.60223,0.01561
4922.57197,0.01567
4921.54171,0.01599
4920.51146,0.01672
4919.48120,0.01787
4918.45094,0.01821
4917.42068,0.01749
4916.39042,0.01674
4915.36017,0.01617
4914.32991,0.01621
4913.29965,0.01690
4912.26939,0.01723
4911.23914,0.01741
4910.20888,0.01830
4909.17862,0.01917
4908.14836,0.01898
4907.11810,0.01781
4906.08785,0.01655
4905.05759,0.01634
4904.02733,0.01745
4902.99707,0.01871
4901.96682,0.01828
4900.93656,0.01635
4899.90630,0.01539
4898.87604,0.01604
4897.84578,0.01646
4896.81553,0.01612
4895.78527,0.01582
4894.75501,0.01576
4893.72475,0.01627
4892.69449,0.01759
4891.66424,0.01840
4890.63398,0.01762
4889.60372,0.01644
4888.57346,0.01632
4887.54321,0.01683
4886.51295,0.01687
4885.48269,0.01676
4884.45243,0.01743
4883.42217,0.01839
4882.39192,0.01853
4881.36166,0.01810
4880.33140,0.01790
4879.30114,0.01772
4878.27088,0.01736
4877.24063,0.01708
4876.21037,0.01714
4875.18011,0.01724
4874.14985,0.01675
4873.11960,0.01642
4872.08934,0.01708
4871.05908,0.01739
4870.02882,0.01676
4868.99856,0.01608
4867.96831,0.01560
4866.93805,0.01560
4865.90779,0.01657
4864.87753,0.01792
4863.84727,0.01861
4862.81702,0.01892
4861.78676,0.01892
4860.75650,0.01813
4859.72624,0.01765
4858.69599,0.01831
4857.66573,0.01930
4856.63547,0.01989
4855.60521,0.01983
4854.57495,0.01929
4853.54470,0.01890
4852.51444,0.01873
4851.48418,0.01836
4850.45392,0.01783
4849.42367,0.01726
4848.39341,0.01695
4847.36315,0.01761
4846.33289,0.01846
4845.30263,0.01834
4844.27238,0.01739
4843.24212,0.01660
4842.21186,0.01680
4841.18160,0.01720
4840.15134,0.01717
4839.12109,0.01707
4838.09083,0.01713
4837.06057,0.01744
4836.03031,0.01794
4835.00006,0.01861
4833.96980,0.01907
4832.93954,0.01874
4831.90928,0.01778
4830.87902,0.01709
4829.84877,0.01722
4828.81851,0.01831
4827.78825,0.01914
4826.75799,0.01845
4825.72773,0.01776
4824.69748,0.01805
4823.66722,0.01832
4822.63696,0.01810
4821.60670,0.01731
4820.57645,0.01624
4819.54619,0.01619
4818.51593,0.01719
4817.48567,0.01776
4816.45541,0.01777
4815.42516,0.01810
4814.39490,0.01873
4813.36464,0.01892
4812.33438,0.01834
4811.30412,0.01729
4810.27387,0.01630
4809.24361,0.01595
4808.21335,0.01691
4807.18309,0.01854
4806.15284,0.01876
4805.12258,0.01770
4804.09232,0.01719
4803.06206,0.01740
4802.03180,0.01746
4801.00155,0.01754
4799.97129,0.01805
4798.94103,0.01768
4797.91077,0.01597
4796.88052,0.01488
4795.85026,0.01562
4794.82000,0.01700
4793.78974,0.01758
4792.75948,0.01721
4791.72923,0.01671
4790.69897,0.01681
4789.66871,0.01698
4788.63845,0.01639
4787.60819,0.01550
4786.57794,0.01568
4785.54768,0.01688
4784.51742,0.01772
4783.48716,0.01793
4782.45691,0.01804
4781.42665,0.01804
4780.39639,0.01757
4779.36613,0.01701
4778.33587,0.01719
4777.30562,0.01748
4776.27536,0.01707
4775.24510,0.01671
4774.21484,0.01643
4773.18458,0.01604
4772.15433,0.01619
4771.12407,0.01648
4770.09381,0.01637
4769.06355,0.01613
4768.03330,0.01633
4767.00304,0.01718
4765.97278,0.01803
4764.94252,0.01824
4763.91226,0.01766
4762.88201,0.01709
4761.85175,0.01735
4760.82149,0.01766
4759.79123,0.01712
4758.76098,0.01633
4757.73072,0.01603
4756.70046,0.01615
4755.67020,0.01676
4754.63994,0.01783
4753.60969,0.01837
4752.57943,0.01764
4751.54917,0.01632
4750.51891,0.01591
4749.48865,0.01648
4748.45840,0.01643
4747.42814,0.01592
4746.39788,0.01666
4745.36762,0.01834
4744.33737,0.01917
4743.30711,0.01856
4742.27685,0.01746
4741.24659,0.01679
4740.21633,0.01634
4739.18608,0.01631
4738.15582,0.01679
4737.12556,0.01720
4736.09530,0.01723
4735.06504,0.01687
4734.03479,0.01669
4733.00453,0.01631
4731.97427,0.01590
4730.94401,0.01695
4729.91376,0.01860
4728.88350,0.01882
4727.85324,0.01783
4726.82298,0.01713
4725.79272,0.01741
4724.76247,0.01863
4723.73221,0.01987
4722.70195,0.01970
4721.67169,0.01832
4720.64143,0.01762
4719.61118,0.01845
4718.58092,0.01958
4717.55066,0.01942
4716.52040,0.01789
4715.49015,0.01612
4714.45989,0.01535
4713.42963,0.01603
4712.39937,0.01697
4711.36911,0.01720
4710.33886,0.01684
4709.30860,0.01649
4708.27834,0.01636
4707.24808,0.01591
4706.21783,0.01570
4705.18757,0.01619
4704.15731,0.01698
4703.12705,0.01767
4702.09679,0.01769
4701.06654,0.01760
4700.03628,0.01781
4699.00602,0.01730
4697.97576,0.01646
4696.94550,0.01645
4695.91525,0.01681
4694.88499,0.01701
4693.85473,0.01710
4692.82447,0.01735
4691.79422,0.01757
4690.76396,0.01722
4689.73370,0.01689
4688.70344,0.01697
4687.67318,0.01679
4686.64293,0.01654
4685.61267,0.01669
4684.58241,0.01691
4683.55215,0.01707
4682.52189,0.01662
4681.49164,0.01568
4680.46138,0.01562
4679.43112,0.01618
4678.40086,0.01598
4677.37061,0.01559
4676.34035,0.01625
4675.31009,0.01701
4674.27983,0.01715
4673.24957,0.01748
4672.21932,0.01793
4671.18906,0.01817
4670.15880,0.01819
4669.12854,0.01828
4668.09828,0.01828
4667.06803,0.01761
4666.03777,0.01695
4665.00751,0.01653
4663.97725,0.01589
4662.94700,0.01559
4661.91674,0.01556
4660.88648,0.01516
4659.85622,0.01502
4658.82596,0.01568
4657.79571,0.01644
4656.76545,0.01710
4655.73519,0.01790
4654.70493,0.01792
4653.67468,0.01726
4652.64442,0.01710
4651.61416,0.01750
4650.58390,0.01802
4649.55364,0.01780
4648.52339,0.01697
4647.49313,0.01676
4646.46287,0.01694
4645.43261,0.01663
4644.40235,0.01637
4643.37210,0.01690
4642.34184,0.01762
4641.31158,0.01748
4640.28132,0.01629
4639.25107,0.01508
4638.22081,0.01497
4637.19055,0.01590
4636.16029,0.01684
4635.13003,0.01709
4634.09978,0.01677
4633.06952,0.01610
4632.03926,0.01569
4631.00900,0.01622
4629.97874,0.01729
4628.94849,0.01734
4627.91823,0.01620
4626.88797,0.01555
4625.85771,0.01576
4624.82746,0.01629
4623.79720,0.01718
4622.76694,0.01790
4621.73668,0.01776
4620.70642,0.01730
4619.67617,0.01704
4618.64591,0.01683
4617.61565,0.01746
4616.58539,0.01906
4615.55513,0.01949
4614.52488,0.01848
4613.49462,0.01769
4612.46436,0.01705
4611.43410,0.01628
4610.40385,0.01592
4609.37359,0.01603
4608.34333,0.01636
4607.31307,0.01671
4606.28281,0.01647
4605.25256,0.01563
4604.22230,0.01521
4603.19204,0.01559
4602.16178,0.01626
4601.13153,0.01665
4600.10127,0.01665
4599.07101,0.01653
4598.04075,0.01680
4597.01049,0.01748
4595.98024,0.01781
4594.94998,0.01728
4593.91972,0.01631
4592.88946,0.01619
4591.85920,0.01722
4590.82895,0.01779
4589.79869,0.01714
4588.76843,0.01642
4587.73817,0.01631
4586.70792,0.01632
4585.67766,0.01630
4584.64740,0.01651
4583.61714,0.01679
4582.58688,0.01700
4581.55663,0.01743
4580.52637,0.01774
4579.49611,0.01739
4578.46585,0.01716
4577.43559,0.01718
4576.40534,0.01675
4575.37508,0.01638
4574.34482,0.01634
4573.31456,0.01663
4572.28431,0.01731
4571.25405,0.01725
4570.22379,0.01630
4569.19353,0.01583
4568.16327,0.01626
4567.13302,0.01716
4566.10276,0.01798
4565.07250,0.01827
4564.04224,0.01787
4563.01198,0.01705
4561.98173,0.01662
4560.95147,0.01642
4559.92121,0.01616
4558.89095,0.01642
4557.86070,0.01675
4556.83044,0.01653
4555.80018,0.01659
4554.76992,0.01719
4553.73966,0.01727
4552.70941,0.01659
4551.67915,0.01602
4550.64889,0.01613
4549.61863,0.01689
4548.58838,0.01744
4547.55812,0.01723
4546.52786,0.01664
4545.49760,0.01630
4544.46734,0.01684
4543.43709,0.01749
4542.40683,0.01697
4541.37657,0.01602
4540.34631,0.01566
4539.31605,0.01548
4538.28580,0.01568
4537.25554,0.01606
4536.22528,0.01591
4535.19502,0.01595
4534.16477,0.01608
4533.13451,0.01563
4532.10425,0.01522
4531.07399,0.01530
4530.04373,0.01595
4529.01348,0.01695
4527.98322,0.01747
4526.95296,0.01734
4525.92270,0.01736
4524.89244,0.01750
4523.86219,0.01705
4522.83193,0.01627
4521.80167,0.01615
4520.77141,0.01681
4519.74116,0.01739
4518.71090,0.01732
4517.68064,0.01684
4516.65038,0.01650
4515.62012,0.01621
4514.58987,0.01621
4513.55961,0.01667
4512.52935,0.01668
4511.49909,0.01663
4510.46883,0.01766
4509.43858,0.01861
4508.40832,0.01837
4507.37806,0.01773
4506.34780,0.01734
4505.31755,0.01705
4504.28729,0.01692
4503.25703,0.01687
4502.22677,0.01694
4501.19651,0.01764
4500.16626,0.01845
4499.13600,0.01843
4498.10574,0.01777
4497.07548,0.01683
4496.04523,0.01626
4495.01497,0.01627
4493.98471,0.01611
4492.95445,0.01594
4491.92419,0.01648
4490.89394,0.01712
4489.86368,0.01713
4488.83342,0.01697
4487.80316,0.01692
4486.77290,0.01700
4485.74265,0.01718
4484.71239,0.01716
4483.68213,0.01712
4482.65187,0.01718
4481.62162,0.01738
4480.59136,0.01766
4479.56110,0.01759
4478.53084,0.01736
4477.50058,0.01738
4476.47033,0.01764
4475.44007,0.01804
4474.40981,0.01864
4473.37955,0.01910
4472.34929,0.01880
4471.31904,0.01820
4470.28878,0.01807
4469.25852,0.01815
4468.22826,0.01803
4467.19801,0.01803
4466.16775,0.01843
4465.13749,0.01871
4464.10723,0.01851
4463.07697,0.01838
4462.04672,0.01854
4461.01646,0.01867
4459.98620,0.01861
4458.95594,0.01848
4457.92568,0.01869
4456.89543,0.01887
4455.86517,0.01826
4454.83491,0.01765
4453.80465,0.01787
4452.77440,0.01825
4451.74414,0.01877
4450.71388,0.01962
4449.68362,0.01990
4448.65336,0.01949
4447.62311,0.01904
4446.59285,0.01868
4445.56259,0.01876
4444.53233,0.01894
4443.50208,0.01848
4442.47182,0.01783
4441.44156,0.01739
4440.41130,0.01753
4439.38104,0.01809
4438.35079,0.01823
4437.32053,0.01807
4436.29027,0.01780
4435.26001,0.01764
4434.22975,0.01794
4433.19950,0.01810
4432.16924,0.01774
4431.13898,0.01767
4430.10872,0.01814
4429.07847,0.01875
4428.04821,0.01936
4427.01795,0.01935
4425.98769,0.01829
4424.95743,0.01742
4423.92718,0.01748
4422.89692,0.01753
4421.86666,0.01722
4420.83640,0.01713
4419.80614,0.01742
4418.77589,0.01777
4417.74563,0.01823
4416.71537,0.01892
4415.68511,0.01956
4414.65486,0.01982
4413.62460,0.01967
4412.59434,0.01954
4411.56408,0.01951
4410.53382,0.01922
4409.50357,0.01912
4408.47331,0.01951
4407.44305,0.01930
4406.41279,0.01847
4405.38253,0.01851
4404.35228,0.01929
4403.32202,0.01940
4402.29176,0.01877
4401.26150,0.01829
4400.23125,0.01802
4399.20099,0.01775
4398.17073,0.01749
4397.14047,0.01685
4396.11021,0.01634
4395.07996,0.01632
4394.04970,0.01639
4393.01944,0.01689
4391.98918,0.01751
4390.95893,0.01737
4389.92867,0.01672
4388.89841,0.01615
4387.86815,0.01618
4386.83789,0.01685
4385.80764,0.01733
4384.77738,0.01737
4383.74712,0.01737
4382.71686,0.01761
4381.68660,0.01793
4380.65635,0.01780
4379.62609,0.01748
4378.59583,0.01757
4377.56557,0.01755
4376.53532,0.01702
4375.50506,0.01688
4374.47480,0.01724
4373.44454,0.01744
4372.41428,0.01785
4371.38403,0.01824
4370.35377,0.01809
4369.32351,0.01829
4368.29325,0.01853
4367.26299,0.01762
4366.23274,0.01687
4365.20248,0.01711
4364.17222,0.01723
4363.14196,0.01710
4362.11171,0.01690
4361.08145,0.01681
4360.05119,0.01688
4359.02093,0.01668
4357.99067,0.01651
4356.96042,0.01674
4355.93016,0.01675
4354.89990,0.01655
4353.86964,0.01662
4352.83939,0.01654
4351.80913,0.01631
4350.77887,0.01667
4349.74861,0.01702
4348.71835,0.01664
4347.68810,0.01639
4346.65784,0.01663
4345.62758,0.01692
4344.59732,0.01701
4343.56706,0.01673
4342.53681,0.01619
4341.50655,0.01577
4340.47629,0.01559
4339.44603,0.01543
4338.41578,0.01571
4337.38552,0.01681
4336.35526,0.01784
4335.32500,0.01783
4334.29474,0.01692
4333.26449,0.01574
4332.23423,0.01494
4331.20397,0.01469
4330.17371,0.01504
4329.14345,0.01605
4328.11320,0.01692
4327.08294,0.01721
4326.05268,0.01717
4325.02242,0.01665
4323.99217,0.01623
4322.96191,0.01642
4321.93165,0.01621
4320.90139,0.01562
4319.87113,0.01569
4318.84088,0.01618
4317.81062,0.01682
4316.78036,0.01739
4315.75010,0.01723
4314.71984,0.01634
4313.68959,0.01545
4312.65933,0.01512
4311.62907,0.01532
4310.59881,0.01583
4309.56856,0.01637
4308.53830,0.01658
4307.50804,0.01670
4306.47778,0.01705
4305.44752,0.01722
4304.41727,0.01702
4303.38701,0.01677
4302.35675,0.01679
4301.32649,0.01711
4300.29624,0.01735
4299.26598,0.01733
4298.23572,0.01723
4297.20546,0.01740
4296.17520,0.01757
4295.14495,0.01741
4294.11469,0.01730
4293.08443,0.01717
4292.05417,0.01734
4291.02391,0.01786
4289.99366,0.01766
4288.96340,0.01700
4287.93314,0.01684
4286.90288,0.01686
4285.87263,0.01664
4284.84237,0.01657
4283.81211,0.01684
4282.78185,0.01707
4281.75159,0.01711
4280.72134,0.01719
4279.69108,0.01738
4278.66082,0.01782
4277.63056,0.01830
4276.60030,0.01798
4275.57005,0.01740
4274.53979,0.01728
4273.50953,0.01726
4272.47927,0.01759
4271.44902,0.01790
4270.41876,0.01731
4269.38850,0.01656
4268.35824,0.01648
4267.32798,0.01682
4266.29773,0.01698
4265.26747,0.01692
4264.23721,0.01689
4263.20695,0.01681
4262.17669,0.01665
4261.14644,0.01660
4260.11618,0.01653
4259.08592,0.01611
4258.05566,0.01564
4257.02541,0.01600
4255.99515,0.01706
4254.96489,0.01756
4253.93463,0.01730
4252.90437,0.01714
4251.87412,0.01671
4250.84386,0.01568
4249.81360,0.01510
4248.78334,0.01579
4247.75309,0.01697
4246.72283,0.01742
4245.69257,0.01724
4244.66231,0.01692
4243.63205,0.01654
4242.60180,0.01644
4241.57154,0.01648
4240.54128,0.01623
4239.51102,0.01602
4238.48076,0.01599
4237.45051,0.01575
4236.42025,0.01534
4235.38999,0.01505
4234.35973,0.01500
4233.32948,0.01522
4232.29922,0.01551
4231.26896,0.01566
4230.23870,0.01616
4229.20844,0.01677
4228.17819,0.01688
4227.14793,0.01707
4226.11767,0.01742
4225.08741,0.01737
4224.05715,0.01695
4223.02690,0.01676
4221.99664,0.01710
4220.96638,0.01722
4219.93612,0.01671
4218.90587,0.01622
4217.87561,0.01597
4216.84535,0.01602
4215.81509,0.01638
4214.78483,0.01667
4213.75458,0.01674
4212.72432,0.01675
4211.69406,0.01675
4210.66380,0.01676
4209.63354,0.01680
4208.60329,0.01665
4207.57303,0.01637
4206.54277,0.01610
4205.51251,0.01579
4204.48226,0.01567
4203.45200,0.01585
4202.42174,0.01606
4201.39148,0.01612
4200.36122,0.01610
4199.33097,0.01625
4198.30071,0.01669
4197.27045,0.01708
4196.24019,0.01717
4195.20994,0.01718
4194.17968,0.01712
4193.14942,0.01678
4192.11916,0.01657
4191.08890,0.01687
4190.05865,0.01725
4189.02839,0.01700
4187.99813,0.01592
4186.96787,0.01500
4185.93761,0.01522
4184.90736,0.01604
4183.87710,0.01674
4182.84684,0.01697
4181.81658,0.01640
4180.78633,0.01584
4179.75607,0.01617
4178.72581,0.01667
4177.69555,0.01664
4176.66529,0.01635
4175.63504,0.01611
4174.60478,0.01609
4173.57452,0.01616
4172.54426,0.01610
4171.51400,0.01633
4170.48375,0.01676
4169.45349,0.01687
4168.42323,0.01690
4167.39297,0.01679
4166.36272,0.01643
4165.33246,0.01615
4164.30220,0.01620
4163.27194,0.01612
4162.24168,0.01563
4161.21143,0.01554
4160.18117,0.01598
4159.15091,0.01607
4158.12065,0.01583
4157.09039,0.01579
4156.06014,0.01591
4155.02988,0.01627
4153.99962,0.01700
4152.96936,0.01727
4151.93911,0.01653
4150.90885,0.01595
4149.87859,0.01638
4148.84833,0.01708
4147.81807,0.01723
4146.78782,0.01681
4145.75756,0.01644
4144.72730,0.01635
4143.69704,0.01621
4142.66679,0.01622
4141.63653,0.01656
4140.60627,0.01679
4139.57601,0.01686
4138.54575,0.01672
4137.51550,0.01655
4136.48524,0.01666
4135.45498,0.01686
4134.42472,0.01698
4133.39446,0.01689
4132.36421,0.01647
4131.33395,0.01607
4130.30369,0.01604
4129.27343,0.01622
4128.24318,0.01625
4127.21292,0.01617
4126.18266,0.01610
4125.15240,0.01600
4124.12214,0.01590
4123.09189,0.01588
4122.06163,0.01607
4121.03137,0.01644
4120.00111,0.01658
4118.97085,0.01631
4117.94060,0.01589
4116.91034,0.01560
4115.88008,0.01563
4114.84982,0.01601
4113.81957,0.01658
4112.78931,0.01702
4111.75905,0.01698
4110.72879,0.01647
4109.69853,0.01588
4108.66828,0.01532
4107.63802,0.01498
4106.60776,0.01528
4105.57750,0.01572
4104.54724,0.01573
4103.51699,0.01576
4102.48673,0.01622
4101.45647,0.01685
4100.42621,0.01708
4099.39596,0.01656
4098.36570,0.01592
4097.33544,0.01570
4096.30518,0.01581
4095.27492,0.01599
4094.24467,0.01596
4093.21441,0.01600
4092.18415,0.01620
4091.15389,0.01594
4090.12364,0.01544
4089.09338,0.01519
4088.06312,0.01519
4087.03286,0.01573
4086.00260,0.01645
4084.97235,0.01658
4083.94209,0.01614
4082.91183,0.01564
4081.88157,0.01544
4080.85131,0.01553
4079.82106,0.01577
4078.79080,0.01595
4077.76054,0.01621
4076.73028,0.01652
4075.70003,0.01653
4074.66977,0.01610
4073.63951,0.01525
4072.60925,0.01481
4071.57899,0.01523
4070.54874,0.01575
4069.51848,0.01620
4068.48822,0.01664
4067.45796,0.01661
4066.42770,0.01617
4065.39745,0.01577
4064.36719,0.01551
4063.33693,0.01514
4062.30667,0.01457
4061.27642,0.01434
4060.24616,0.01474
4059.21590,0.01522
4058.18564,0.01546
4057.15538,0.01551
4056.12513,0.01555
4055.09487,0.01589
4054.06461,0.01634
4053.03435,0.01624
4052.00409,0.01556
4050.97384,0.01502
4049.94358,0.01479
4048.91332,0.01468
4047.88306,0.01482
4046.85281,0.01519
4045.82255,0.01552
4044.79229,0.01550
4043.76203,0.01515
4042.73177,0.01477
4041.70152,0.01465
4040.67126,0.01489
4039.64100,0.01526
4038.61074,0.01548
4037.58049,0.01561
4036.55023,0.01598
4035.51997,0.01617
4034.48971,0.01561
4033.45945,0.01501
4032.42920,0.01488
4031.39894,0.01487
4030.36868,0.01490
4029.33842,0.01501
4028.30816,0.01503
4027.27791,0.01481
4026.24765,0.01461
4025.21739,0.01480
4024.18713,0.01531
4023.15688,0.01573
4022.12662,0.01556
4021.09636,0.01483
4020.06610,0.01426
4019.03584,0.01432
4018.00559,0.01461
4016.97533,0.01476
4015.94507,0.01509
4014.91481,0.01542
4013.88455,0.01537
4012.85430,0.01542
4011.82404,0.01583
4010.79378,0.01601
4009.76352,0.01574
4008.73327,0.01545
4007.70301,0.01529
4006.67275,0.01533
4005.64249,0.01569
4004.61223,0.01601
4003.58198,0.01621
4002.55172,0.01626
4001.52146,0.01612
4000.49120,0.01592
3999.46095,0.01557
3998.43069,0.01532
3997.40043,0.01537
3996.37017,0.01555
3995.33991,0.01577
3994.30966,0.01602
3993.27940,0.01607
3992.24914,0.01578
3991.21888,0.01579
3990.18862,0.01610
3989.15837,0.01603
3988.12811,0.01582
3987.09785,0.01551
3986.06759,0.01504
3985.03734,0.01490
3984.00708,0.01499
3982.97682,0.01505
3981.94656,0.01530
3980.91630,0.01565
3979.88605,0.01574
3978.85579,0.01556
3977.82553,0.01541
3976.79527,0.01527
3975.76501,0.01493
3974.73476,0.01464
3973.70450,0.01458
3972.67424,0.01429
3971.64398,0.01382
3970.61373,0.01395
3969.58347,0.01467
3968.55321,0.01520
3967.52295,0.01530
3966.49269,0.01529
3965.46244,0.01534
3964.43218,0.01526
3963.40192,0.01492
3962.37166,0.01481
3961.34140,0.01533
3960.31115,0.01597
3959.28089,0.01634
3958.25063,0.01635
3957.22037,0.01579
3956.19012,0.01502
3955.15986,0.01474
3954.12960,0.01488
3953.09934,0.01508
3952.06908,0.01526
3951.03883,0.01520
3950.00857,0.01495
3948.97831,0.01521
3947.94805,0.01569
3946.91780,0.01553
3945.88754,0.01496
3944.85728,0.01458
3943.82702,0.01451
3942.79676,0.01447
3941.76651,0.01428
3940.73625,0.01424
3939.70599,0.01468
3938.67573,0.01555
3937.64547,0.01601
3936.61522,0.01568
3935.58496,0.01549
3934.55470,0.01580
3933.52444,0.01580
3932.49419,0.01551
3931.46393,0.01557
3930.43367,0.01563
3929.40341,0.01528
3928.37315,0.01500
3927.34290,0.01490
3926.31264,0.01486
3925.28238,0.01522
3924.25212,0.01579
3923.22186,0.01618
3922.19161,0.01630
3921.16135,0.01594
3920.13109,0.01504
3919.10083,0.01434
3918.07058,0.01445
3917.04032,0.01485
3916.01006,0.01484
3914.97980,0.01458
3913.94954,0.01462
3912.91929,0.01503
3911.88903,0.01553
3910.85877,0.01574
3909.82851,0.01537
3908.79825,0.01488
3907.76800,0.01498
3906.73774,0.01551
3905.70748,0.01560
3904.67722,0.01475
3903.64697,0.01388
3902.61671,0.01391
3901.58645,0.01438
3900.55619,0.01506
3899.52593,0.01565
3898.49568,0.01555
3897.46542,0.01512
3896.43516,0.01491
3895.40490,0.01486
3894.37465,0.01496
3893.34439,0.01493
3892.31413,0.01469
3891.28387,0.01463
3890.25361,0.01468
3889.22336,0.01471
3888.19310,0.01490
3887.16284,0.01535
3886.13258,0.01583
3885.10232,0.01581
3884.07207,0.01544
3883.04181,0.01505
3882.01155,0.01478
3880.98129,0.01483
3879.95104,0.01495
3878.92078,0.01503
3877.89052,0.01519
3876.86026,0.01530
3875.83000,0.01529
3874.79975,0.01537
3873.76949,0.01572
3872.73923,0.01596
3871.70897,0.01601
3870.67871,0.01603
3869.64846,0.01551
3868.61820,0.01466
3867.58794,0.01442
3866.55768,0.01450
3865.52743,0.01449
3864.49717,0.01465
3863.46691,0.01520
3862.43665,0.01570
3861.40639,0.01580
3860.37614,0.01550
3859.34588,0.01507
3858.31562,0.01496
3857.28536,0.01513
3856.25510,0.01534
3855.22485,0.01574
3854.19459,0.01562
3853.16433,0.01458
3852.13407,0.01418
3851.10382,0.01444
3850.07356,0.01500
3849.04330,0.01534
3848.01304,0.01503
3846.98278,0.01462
3845.95253,0.01467
3844.92227,0.01504
3843.89201,0.01525
3842.86175,0.01517
3841.83150,0.01514
3840.80124,0.01499
3839.77098,0.01487
3838.74072,0.01493
3837.71046,0.01465
3836.68021,0.01454
3835.64995,0.01491
3834.61969,0.01535
3833.58943,0.01552
3832.55917,0.01563
3831.52892,0.01591
3830.49866,0.01573
3829.46840,0.01516
3828.43814,0.01496
3827.40789,0.01516
3826.37763,0.01505
3825.34737,0.01436
3824.31711,0.01363
3823.28685,0.01339
3822.25660,0.01406
3821.22634,0.01522
3820.19608,0.01536
3819.16582,0.01488
3818.13556,0.01489
3817.10531,0.01511
3816.07505,0.01483
3815.04479,0.01470
3814.01453,0.01509
3812.98428,0.01508
3811.95402,0.01480
3810.92376,0.01477
3809.89350,0.01483
3808.86324,0.01493
3807.83299,0.01511
3806.80273,0.01508
3805.77247,0.01497
3804.74221,0.01492
3803.71195,0.01474
3802.68170,0.01472
3801.65144,0.01474
3800.62118,0.01467
3799.59092,0.01494
3798.56067,0.01546
3797.53041,0.01600
3796.50015,0.01589
3795.46989,0.01521
3794.43963,0.01518
3793.40938,0.01561
3792.37912,0.01571
3791.34886,0.01581
3790.31860,0.01573
3789.28835,0.01501
3788.25809,0.01450
3787.22783,0.01437
3786.19757,0.01431
3785.16731,0.01448
3784.13706,0.01435
3783.10680,0.01400
3782.07654,0.01413
3781.04628,0.01456
3780.01602,0.01476
3778.98577,0.01468
3777.95551,0.01476
3776.92525,0.01499
3775.89499,0.01489
3774.86474,0.01445
3773.83448,0.01439
3772.80422,0.01493
3771.77396,0.01545
3770.74370,0.01553
3769.71345,0.01536
3768.68319,0.01516
3767.65293,0.01492
3766.62267,0.01471
3765.59241,0.01440
3764.56216,0.01427
3763.53190,0.01459
3762.50164,0.01480
3761.47138,0.01445
3760.44113,0.01397
3759.41087,0.01394
3758.38061,0.01425
3757.35035,0.01462
3756.32009,0.01471
3755.28984,0.01461
3754.25958,0.01476
3753.22932,0.01478
3752.19906,0.01437
3751.16880,0.01394
3750.13855,0.01377
3749.10829,0.01413
3748.07803,0.01502
3747.04777,0.01549
3746.01752,0.01531
3744.98726,0.01485
3743.95700,0.01493
3742.92674,0.01547
3741.89648,0.01561
3740.86623,0.01535
3739.83597,0.01517
3738.80571,0.01563
3737.77545,0.01647
3736.74520,0.01663
3735.71494,0.01609
3734.68468,0.01581
3733.65442,0.01570
3732.62416,0.01536
3731.59391,0.01493
3730.56365,0.01470
3729.53339,0.01468
3728.50313,0.01482
3727.47287,0.01493
3726.44262,0.01500
3725.41236,0.01510
3724.38210,0.01498
3723.35184,0.01481
3722.32159,0.01461
3721.29133,0.01445
3720.26107,0.01478
3719.23081,0.01499
3718.20055,0.01458
3717.17030,0.01418
3716.14004,0.01421
3715.10978,0.01438
3714.07952,0.01420
3713.04926,0.01394
3712.01901,0.01427
3710.98875,0.01472
3709.95849,0.01464
3708.92823,0.01431
3707.89798,0.01424
3706.86772,0.01443
3705.83746,0.01420
3704.80720,0.01390
3703.77694,0.01447
3702.74669,0.01502
3701.71643,0.01517
3700.68617,0.01553
3699.65591,0.01537
3698.62565,0.01468
3697.59540,0.01430
3696.56514,0.01398
3695.53488,0.01312
3694.50462,0.01251
3693.47437,0.01286
3692.44411,0.01384
3691.41385,0.01468
3690.38359,0.01478
3689.35333,0.01478
3688.32308,0.01470
3687.29282,0.01401
3686.26256,0.01323
3685.23230,0.01302
3684.20205,0.01342
3683.17179,0.01369
3682.14153,0.01385
3681.11127,0.01438
3680.08101,0.01475
3679.05076,0.01457
3678.02050,0.01438
3676.99024,0.01456
3675.95998,0.01440
3674.92972,0.01333
3673.89947,0.01346
3672.86921,0.01448
3671.83895,0.01491
3670.80869,0.01455
3669.77844,0.01418
3668.74818,0.01422
3667.71792,0.01408
3666.68766,0.01383
3665.65740,0.01361
3664.62715,0.01327
3663.59689,0.01302
3662.56663,0.01322
3661.53637,0.01357
3660.50611,0.01364
3659.47586,0.01355
3658.44560,0.01340
3657.41534,0.01350
3656.38508,0.01404
3655.35483,0.01441
3654.32457,0.01441
3653.29431,0.01423
3652.26405,0.01418
3651.23379,0.01464
3650.20354,0.01473
3649.17328,0.01400
3648.14302,0.01379
3647.11276,0.01380
3646.08250,0.01396
3645.05225,0.01474
3644.02199,0.01518
3642.99173,0.01507
3641.96147,0.01483
3640.93122,0.01440
3639.90096,0.01399
3638.87070,0.01356
3637.84044,0.01333
3636.81018,0.01371
3635.77993,0.01415
3634.74967,0.01407
3633.71941,0.01396
3632.68915,0.01428
3631.65890,0.01443
3630.62864,0.01436
3629.59838,0.01470
3628.56812,0.01527
3627.53786,0.01547
3626.50761,0.01535
3625.47735,0.01467
3624.44709,0.01382
3623.41683,0.01391
3622.38657,0.01482
3621.35632,0.01522
3620.32606,0.01482
3619.29580,0.01453
3618.26554,0.01464
3617.23529,0.01502
3616.20503,0.01538
3615.17477,0.01499
3614.14451,0.01423
3613.11425,0.01477
3612.08400,0.01602
3611.05374,0.01602
3610.02348,0.01523
3608.99322,0.01465
3607.96296,0.01482
3606.93271,0.01535
3605.90245,0.01566
3604.87219,0.01590
3603.84193,0.01600
3602.81168,0.01565
3601.78142,0.01500
3600.75116,0.01479
3599.72090,0.01519
3598.69064,0.01552
3597.66039,0.01554
3596.63013,0.01544
3595.59987,0.01552
3594.56961,0.01598
3593.53936,0.01627
3592.50910,0.01610
3591.47884,0.01571
3590.44858,0.01547
3589.41832,0.01552
3588.38807,0.01565
3587.35781,0.01567
3586.32755,0.01548
3585.29729,0.01558
3584.26703,0.01612
3583.23678,0.01628
3582.20652,0.01568
3581.17626,0.01502
3580.14600,0.01493
3579.11575,0.01542
3578.08549,0.01604
3577.05523,0.01638
3576.02497,0.01645
3574.99471,0.01635
3573.96446,0.01639
3572.93420,0.01674
3571.90394,0.01716
3570.87368,0.01744
3569.84342,0.01772
3568.81317,0.01805
3567.78291,0.01796
3566.75265,0.01739
3565.72239,0.01720
3564.69214,0.01758
3563.66188,0.01785
3562.63162,0.01776
3561.60136,0.01747
3560.57110,0.01736
3559.54085,0.01765
3558.51059,0.01809
3557.48033,0.01828
3556.45007,0.01807
3555.41981,0.01791
3554.38956,0.01820
3553.35930,0.01858
3552.32904,0.01859
3551.29878,0.01867
3550.26853,0.01904
3549.23827,0.01911
3548.20801,0.01888
3547.17775,0.01883
3546.14749,0.01911
3545.11724,0.01965
3544.08698,0.02034
3543.05672,0.02081
3542.02646,0.02085
3540.99621,0.02071
3539.96595,0.02076
3538.93569,0.02118
3537.90543,0.02174
3536.87517,0.02180
3535.84492,0.02120
3534.81466,0.02089
3533.78440,0.02131
3532.75414,0.02198
3531.72388,0.02256
3530.69363,0.02260
3529.66337,0.02247
3528.63311,0.02290
3527.60285,0.02321
3526.57260,0.02316
3525.54234,0.02318
3524.51208,0.02318
3523.48182,0.02341
3522.45156,0.02368
3521.42131,0.02346
3520.39105,0.02316
3519.36079,0.02327
3518.33053,0.02378
3517.30027,0.02439
3516.27002,0.02455
3515.23976,0.02441
3514.20950,0.02442
3513.17924,0.02452
3512.14899,0.02486
3511.11873,0.02544
3510.08847,0.02587
3509.05821,0.02626
3508.02795,0.02671
3506.99770,0.02688
3505.96744,0.02690
3504.93718,0.02694
3503.90692,0.02701
3502.87666,0.02724
3501.84641,0.02709
3500.81615,0.02680
3499.78589,0.02704
3498.75563,0.02759
3497.72538,0.02815
3496.69512,0.02871
3495.66486,0.02913
3494.63460,0.02926
3493.60434,0.02948
3492.57409,0.03002
3491.54383,0.03031
3490.51357,0.03022
3489.48331,0.03034
3488.45306,0.03077
3487.42280,0.03118
3486.39254,0.03151
3485.36228,0.03202
3484.33202,0.03259
3483.30177,0.03269
3482.27151,0.03250
3481.24125,0.03269
3480.21099,0.03331
3479.18073,0.03381
3478.15048,0.03407
3477.12022,0.03436
3476.08996,0.03481
3475.05970,0.03546
3474.02945,0.03610
3472.99919,0.03647
3471.96893,0.03651
3470.93867,0.03654
3469.90841,0.03688
3468.87816,0.03740
3467.84790,0.03772
3466.81764,0.03788
3465.78738,0.03813
3464.75712,0.03843
3463.72687,0.03864
3462.69661,0.03893
3461.66635,0.03940
3460.63609,0.03980
3459.60584,0.04008
3458.57558,0.04059
3457.54532,0.04151
3456.51506,0.04230
3455.48480,0.04289
3454.45455,0.04369
3453.42429,0.04424
3452.39403,0.04436
3451.36377,0.04478
3450.33351,0.04545
3449.30326,0.04555
3448.27300,0.04554
3447.24274,0.04621
3446.21248,0.04710
3445.18223,0.04770
3444.15197,0.04792
3443.12171,0.04810
3442.09145,0.04896
3441.06119,0.04999
3440.03094,0.05003
3439.00068,0.04977
3437.97042,0.05023
3436.94016,0.05104
3435.90991,0.05195
3434.87965,0.05302
3433.84939,0.05398
3432.81913,0.05444
3431.78887,0.05471
3430.75862,0.05513
3429.72836,0.05559
3428.69810,0.05629
3427.66784,0.05710
3426.63758,0.05784
3425.60733,0.05881
3424.57707,0.05991
3423.54681,0.06078
3422.51655,0.06141
3421.48630,0.06189
3420.45604,0.06235
3419.42578,0.06292
3418.39552,0.06351
3417.36526,0.06420
3416.33501,0.06501
3415.30475,0.06586
3414.27449,0.06681
3413.24423,0.06766
3412.21397,0.06840
3411.18372,0.06957
3410.15346,0.07088
3409.12320,0.07157
3408.09294,0.07198
3407.06269,0.07276
3406.03243,0.07369
3405.00217,0.07463
3403.97191,0.07575
3402.94165,0.07670
3401.91140,0.07741
3400.88114,0.07836
3399.85088,0.07931
3398.82062,0.08003
3397.79036,0.08085
3396.76011,0.08205
3395.72985,0.08335
3394.69959,0.08418
3393.66933,0.08459
3392.63908,0.08521
3391.60882,0.08599
3390.57856,0.08646
3389.54830,0.08690
3388.51804,0.08757
3387.48779,0.08854
3386.45753,0.08977
3385.42727,0.09063
3384.39701,0.09118
3383.36676,0.09208
3382.33650,0.09289
3381.30624,0.09311
3380.27598,0.09342
3379.24572,0.09454
3378.21547,0.09594
3377.18521,0.09651
3376.15495,0.09659
3375.12469,0.09723
3374.09443,0.09802
3373.06418,0.09829
3372.03392,0.09883
3371.00366,0.10001
3369.97340,0.10086
3368.94315,0.10135
3367.91289,0.10184
3366.88263,0.10215
3365.85237,0.10257
3364.82211,0.10316
3363.79186,0.10369
3362.76160,0.10401
3361.73134,0.10405
3360.70108,0.10433
3359.67082,0.10517
3358.64057,0.10619
3357.61031,0.10703
3356.58005,0.10745
3355.54979,0.10749
3354.51954,0.10768
3353.48928,0.10805
3352.45902,0.10812
3351.42876,0.10814
3350.39850,0.10840
3349.36825,0.10850
3348.33799,0.10862
3347.30773,0.10949
3346.27747,0.11050
3345.24721,0.11094
3344.21696,0.11125
3343.18670,0.11157
3342.15644,0.11164
3341.12618,0.11173
3340.09593,0.11200
3339.06567,0.11232
3338.03541,0.11242
3337.00515,0.11227
3335.97489,0.11224
3334.94464,0.11215
3333.91438,0.11187
3332.88412,0.11161
3331.85386,0.11133
3330.82361,0.11124
3329.79335,0.11121
3328.76309,0.11090
3327.73283,0.11085
3326.70257,0.11120
3325.67232,0.11107
3324.64206,0.11044
3323.61180,0.10996
3322.58154,0.10969
3321.55128,0.10917
3320.52103,0.10872
3319.49077,0.10883
3318.46051,0.10879
3317.43025,0.10828
3316.40000,0.10776
3315.36974,0.10718
3314.33948,0.10668
3313.30922,0.10628
3312.27896,0.10548
3311.24871,0.10435
3310.21845,0.10343
3309.18819,0.10310
3308.15793,0.10324
3307.12767,0.10340
3306.09742,0.10346
3305.06716,0.10303
3304.03690,0.10175
3303.00664,0.10021
3301.97639,0.09935
3300.94613,0.09936
3299.91587,0.09951
3298.88561,0.09907
3297.85535,0.09830
3296.82510,0.09780
3295.79484,0.09773
3294.76458,0.09797
3293.73432,0.09777
3292.70406,0.09671
3291.67381,0.09568
3290.64355,0.09526
3289.61329,0.09505
3288.58303,0.09476
3287.55278,0.09446
3286.52252,0.09419
3285.49226,0.09368
3284.46200,0.09328
3283.43174,0.09335
3282.40149,0.09322
3281.37123,0.09260
3280.34097,0.09197
3279.31071,0.09156
3278.28046,0.09112
3277.25020,0.09054
3276.21994,0.09029
3275.18968,0.09036
3274.15942,0.09008
3273.12917,0.08934
3272.09891,0.08869
3271.06865,0.08839
3270.03839,0.08819
3269.00813,0.08812
3267.97788,0.08816
3266.94762,0.08810
3265.91736,0.08786
3264.88710,0.08763
3263.85685,0.08764
3262.82659,0.08776
3261.79633,0.08761
3260.76607,0.08721
3259.73581,0.08699
3258.70556,0.08677
3257.67530,0.08641
3256.64504,0.08646
3255.61478,0.08661
3254.58452,0.08638
3253.55427,0.08629
3252.52401,0.08631
3251.49375,0.08592
3250.46349,0.08544
3249.43324,0.08519
3248.40298,0.08534
3247.37272,0.08569
3246.34246,0.08570
3245.31220,0.08553
3244.28195,0.08536
3243.25169,0.08542
3242.22143,0.08553
3241.19117,0.08515
3240.16092,0.08473
3239.13066,0.08486
3238.10040,0.08532
3237.07014,0.08562
3236.03988,0.08573
3235.00963,0.08569
3233.97937,0.08567
3232.94911,0.08574
3231.91885,0.08577
3230.88859,0.08595
3229.85834,0.08601
3228.82808,0.08571
3227.79782,0.08559
3226.76756,0.08568
3225.73731,0.08558
3224.70705,0.08557
3223.67679,0.08596
3222.64653,0.08631
3221.61627,0.08639
3220.58602,0.08637
3219.55576,0.08608
3218.52550,0.08556
3217.49524,0.08559
3216.46498,0.08634
3215.43473,0.08700
3214.40447,0.08709
3213.37421,0.08669
3212.34395,0.08620
3211.31370,0.08632
3210.28344,0.08685
3209.25318,0.08685
3208.22292,0.08654
3207.19266,0.08661
3206.16241,0.08685
3205.13215,0.08687
3204.10189,0.08687
3203.07163,0.08671
3202.04137,0.08636
3201.01112,0.08620
3199.98086,0.08642
3198.95060,0.08684
3197.92034,0.08703
3196.89009,0.08701
3195.85983,0.08685
3194.82957,0.08650
3193.79931,0.08644
3192.76905,0.08688
3191.73880,0.08739
3190.70854,0.08765
3189.67828,0.08765
3188.64802,0.08743
3187.61777,0.08693
3186.58751,0.08641
3185.55725,0.08636
3184.52699,0.08667
3183.49673,0.08697
3182.46648,0.08704
3181.43622,0.08699
3180.40596,0.08696
3179.37570,0.08692
3178.34544,0.08699
3177.31519,0.08696
3176.28493,0.08663
3175.25467,0.08638
3174.22441,0.08660
3173.19416,0.08692
3172.16390,0.08670
3171.13364,0.08634
3170.10338,0.08660
3169.07312,0.08706
3168.04287,0.08713
3167.01261,0.08695
3165.98235,0.08662
3164.95209,0.08648
3163.92183,0.08664
3162.89158,0.08674
3161.86132,0.08691
3160.83106,0.08713
3159.80080,0.08718
3158.77055,0.08703
3157.74029,0.08690
3156.71003,0.08687
3155.67977,0.08661
3154.64951,0.08646
3153.61926,0.08682
3152.58900,0.08713
3151.55874,0.08687
3150.52848,0.08627
3149.49822,0.08618
3148.46797,0.08658
3147.43771,0.08657
3146.40745,0.08643
3145.37719,0.08693
3144.34694,0.08749
3143.31668,0.08734
3142.28642,0.08691
3141.25616,0.08699
3140.22590,0.08738
3139.19565,0.08728
3138.16539,0.08693
3137.13513,0.08714
3136.10487,0.08752
3135.07462,0.08760
3134.04436,0.08765
3133.01410,0.08762
3131.98384,0.08732
3130.95358,0.08711
3129.92333,0.08737
3128.89307,0.08782
3127.86281,0.08833
3126.83255,0.08872
3125.80229,0.08877
3124.77204,0.08862
3123.74178,0.08845
3122.71152,0.08875
3121.68126,0.08960
3120.65101,0.09009
3119.62075,0.08996
3118.59049,0.08984
3117.56023,0.08990
3116.52997,0.08997
3115.49972,0.09015
3114.46946,0.09052
3113.43920,0.09092
3112.40894,0.09090
3111.37868,0.09058
3110.34843,0.09047
3109.31817,0.09089
3108.28791,0.09155
3107.25765,0.09191
3106.22740,0.09221
3105.19714,0.09282
3104.16688,0.09324
3103.13662,0.09306
3102.10636,0.09277
3101.07611,0.09310
3100.04585,0.09410
3099.01559,0.09496
3097.98533,0.09518
3096.95507,0.09513
3095.92482,0.09515
3094.89456,0.09544
3093.86430,0.09586
3092.83404,0.09644
3091.80379,0.09719
3090.77353,0.09742
3089.74327,0.09704
3088.71301,0.09687
3087.68275,0.09730
3086.65250,0.09802
3085.62224,0.09845
3084.59198,0.09859
3083.56172,0.09880
3082.53147,0.09893
3081.50121,0.09899
3080.47095,0.09933
3079.44069,0.09991
3078.41043,0.10054
3077.38018,0.10126
3076.34992,0.10202
3075.31966,0.10247
3074.28940,0.10256
3073.25914,0.10269
3072.22889,0.10292
3071.19863,0.10314
3070.16837,0.10363
3069.13811,0.10440
3068.10786,0.10508
3067.07760,0.10553
3066.04734,0.10589
3065.01708,0.10631
3063.98682,0.10666
3062.95657,0.10676
3061.92631,0.10704
3060.89605,0.10790
3059.86579,0.10860
3058.83553,0.10863
3057.80528,0.10877
3056.77502,0.10933
3055.74476,0.10968
3054.71450,0.10971
3053.68425,0.10984
3052.65399,0.11043
3051.62373,0.11127
3050.59347,0.11184
3049.56321,0.11231
3048.53296,0.11286
3047.50270,0.11316
3046.47244,0.11340
3045.44218,0.11389
3044.41192,0.11432
3043.38167,0.11463
3042.35141,0.11502
3041.32115,0.11564
3040.29089,0.11648
3039.26064,0.11731
3038.23038,0.11812
3037.20012,0.11878
3036.16986,0.11911
3035.13960,0.11931
3034.10935,0.11934
3033.07909,0.11929
3032.04883,0.11957
3031.01857,0.12016
3029.98832,0.12097
3028.95806,0.12216
3027.92780,0.12339
3026.89754,0.12409
3025.86728,0.12438
3024.83703,0.12496
3023.80677,0.12646
3022.77651,0.12895
3021.74625,0.13179
3020.71599,0.13462
3019.68574,0.13696
3018.65548,0.13839
3017.62522,0.13928
3016.59496,0.13962
3015.56471,0.13921
3014.53445,0.13857
3013.50419,0.13803
3012.47393,0.13730
3011.44367,0.13648
3010.41342,0.13616
3009.38316,0.13617
3008.35290,0.13593
3007.32264,0.13574
3006.29238,0.13626
3005.26213,0.13729
3004.23187,0.13810
3003.20161,0.13843
3002.17135,0.13853
3001.14110,0.13869
3000.11084,0.13869
2999.08058,0.13814
2998.05032,0.13757
2997.02006,0.13773
2995.98981,0.13838
2994.95955,0.13876
2993.92929,0.13859
2992.89903,0.13815
2991.86877,0.13784
2990.83852,0.13797
2989.80826,0.13850
2988.77800,0.13911
2987.74774,0.13968
2986.71749,0.14018
2985.68723,0.14048
2984.65697,0.14057
2983.62671,0.14078
2982.59645,0.14121
2981.56620,0.14173
2980.53594,0.14238
2979.50568,0.14292
2978.47542,0.14331
2977.44517,0.14394
2976.41491,0.14480
2975.38465,0.14564
2974.35439,0.14625
2973.32413,0.14643
2972.29388,0.14633
2971.26362,0.14637
2970.23336,0.14685
2969.20310,0.14763
2968.17284,0.14838
2967.14259,0.14888
2966.11233,0.14896
2965.08207,0.14888
2964.05181,0.14906
2963.02156,0.14941
2961.99130,0.14997
2960.96104,0.15090
2959.93078,0.15196
2958.90052,0.15259
2957.87027,0.15270
2956.84001,0.15277
2955.80975,0.15295
2954.77949,0.15313
2953.74923,0.15347
2952.71898,0.15375
2951.68872,0.15353
2950.65846,0.15303
2949.62820,0.15256
2948.59795,0.15243
2947.56769,0.15261
2946.53743,0.15244
2945.50717,0.15172
2944.47691,0.15097
2943.44666,0.15063
2942.41640,0.15064
2941.38614,0.15073
2940.35588,0.15047
2939.32562,0.14995
2938.29537,0.14912
2937.26511,0.14789
2936.23485,0.14697
2935.20459,0.14664
2934.17434,0.14619
2933.14408,0.14515
2932.11382,0.14399
2931.08356,0.14331
2930.05330,0.14272
2929.02305,0.14167
2927.99279,0.14067
2926.96253,0.14012
2925.93227,0.13945
2924.90202,0.13843
2923.87176,0.13736
2922.84150,0.13653
2921.81124,0.13594
2920.78098,0.13541
2919.75073,0.13481
2918.72047,0.13388
2917.69021,0.13263
2916.65995,0.13164
2915.62969,0.13117
2914.59944,0.13079
2913.56918,0.13029
2912.53892,0.12968
2911.50866,0.12882
2910.47841,0.12804
2909.44815,0.12756
2908.41789,0.12691
2907.38763,0.12609
2906.35737,0.12545
2905.32712,0.12502
2904.29686,0.12458
2903.26660,0.12377
2902.23634,0.12275
2901.20608,0.12210
2900.17583,0.12193
2899.14557,0.12170
2898.11531,0.12100
2897.08505,0.12009
2896.05480,0.11942
2895.02454,0.11913
2893.99428,0.11896
2892.96402,0.11833
2891.93376,0.11744
2890.90351,0.11674
2889.87325,0.11620
2888.84299,0.11595
2887.81273,0.11572
2886.78247,0.11513
2885.75222,0.11451
2884.72196,0.11417
2883.69170,0.11389
2882.66144,0.11331
2881.63119,0.11244
2880.60093,0.11167
2879.57067,0.11119
2878.54041,0.11067
2877.51015,0.11018
2876.47990,0.10982
2875.44964,0.10947
2874.41938,0.10924
2873.38912,0.10907
2872.35887,0.10859
2871.32861,0.10781
2870.29835,0.10722
2869.26809,0.10689
2868.23783,0.10637
2867.20758,0.10564
2866.17732,0.10492
2865.14706,0.10418
2864.11680,0.10388
2863.08654,0.10401
2862.05629,0.10381
2861.02603,0.10300
2859.99577,0.10203
2858.96551,0.10137
2857.93526,0.10098
2856.90500,0.10064
2855.87474,0.10020
2854.84448,0.09980
2853.81422,0.09942
2852.78397,0.09878
2851.75371,0.09807
2850.72345,0.09776
2849.69319,0.09762
2848.66293,0.09726
2847.63268,0.09668
2846.60242,0.09601
2845.57216,0.09549
2844.54190,0.09505
2843.51165,0.09452
2842.48139,0.09412
2841.45113,0.09396
2840.42087,0.09376
2839.39061,0.09344
2838.36036,0.09311
2837.33010,0.09266
2836.29984,0.09207
2835.26958,0.09153
2834.23933,0.09119
2833.20907,0.09100
2832.17881,0.09080
2831.14855,0.09052
2830.11829,0.09011
2829.08804,0.08964
2828.05778,0.08922
2827.02752,0.08871
2825.99726,0.08824
2824.96700,0.08793
2823.93675,0.08743
2822.90649,0.08681
2821.87623,0.08640
2820.84597,0.08616
2819.81572,0.08591
2818.78546,0.08566
2817.75520,0.08559
2816.72494,0.08563
2815.69468,0.08528
2814.66443,0.08443
2813.63417,0.08380
2812.60391,0.08361
2811.57365,0.08345
2810.54339,0.08320
2809.51314,0.08282
2808.48288,0.08240
2807.45262,0.08180
2806.42236,0.08098
2805.39211,0.08047
2804.36185,0.08028
2803.33159,0.07993
2802.30133,0.07959
2801.27107,0.07951
2800.24082,0.07933
2799.21056,0.07864
2798.18030,0.07778
2797.15004,0.07722
2796.11978,0.07706
2795.08953,0.07715
2794.05927,0.07706
2793.02901,0.07670
2791.99875,0.07658
2790.96850,0.07655
2789.93824,0.07621
2788.90798,0.07584
2787.87772,0.07556
2786.84746,0.07516
2785.81721,0.07499
2784.78695,0.07508
2783.75669,0.07467
2782.72643,0.07378
2781.69618,0.07320
2780.66592,0.07317
2779.63566,0.07320
2778.60540,0.07290
2777.57514,0.07247
2776.54489,0.07208
2775.51463,0.07186
2774.48437,0.07182
2773.45411,0.07178
2772.42385,0.07162
2771.39360,0.07129
2770.36334,0.07090
2769.33308,0.07068
2768.30282,0.07054
2767.27257,0.07014
2766.24231,0.06961
2765.21205,0.06922
2764.18179,0.06909
2763.15153,0.06921
2762.12128,0.06914
2761.09102,0.06842
2760.06076,0.06745
2759.03050,0.06692
2758.00024,0.06673
2756.96999,0.06633
2755.93973,0.06586
2754.90947,0.06586
2753.87921,0.06618
2752.84896,0.06616
2751.81870,0.06577
2750.78844,0.06543
2749.75818,0.06515
2748.72792,0.06476
2747.69767,0.06428
2746.66741,0.06379
2745.63715,0.06327
2744.60689,0.06270
2743.57663,0.06239
2742.54638,0.06243
2741.51612,0.06246
2740.48586,0.06236
2739.45560,0.06216
2738.42535,0.06173
2737.39509,0.06132
2736.36483,0.06097
2735.33457,0.06034
2734.30431,0.05970
2733.27406,0.05949
2732.24380,0.05974
2731.21354,0.06005
2730.18328,0.05994
2729.15303,0.05950
2728.12277,0.05917
2727.09251,0.05880
2726.06225,0.05835
2725.03199,0.05818
2724.00174,0.05803
2722.97148,0.05792
2721.94122,0.05788
2720.91096,0.05735
2719.88070,0.05653
2718.85045,0.05599
2717.82019,0.05562
2716.78993,0.05528
2715.75967,0.05517
2714.72942,0.05542
2713.69916,0.05573
2712.66890,0.05563
2711.63864,0.05490
2710.60838,0.05412
2709.57813,0.05396
2708.54787,0.05407
2707.51761,0.05390
2706.48735,0.05363
2705.45709,0.05345
2704.42684,0.05325
2703.39658,0.05302
2702.36632,0.05261
2701.33606,0.05205
2700.30581,0.05166
2699.27555,0.05152
2698.24529,0.05144
2697.21503,0.05135
2696.18477,0.05133
2695.15452,0.05126
2694.12426,0.05083
2693.09400,0.05024
2692.06374,0.04989
2691.03348,0.04962
2690.00323,0.04916
2688.97297,0.04879
2687.94271,0.04861
2686.91245,0.04849
2685.88220,0.04831
2684.85194,0.04807
2683.82168,0.04777
2682.79142,0.04736
2681.76116,0.04697
2680.73091,0.04679
2679.70065,0.04665
2678.67039,0.04653
2677.64013,0.04648
2676.60988,0.04627
2675.57962,0.04598
2674.54936,0.04583
2673.51910,0.04569
2672.48884,0.04552
2671.45859,0.04536
2670.42833,0.04519
2669.39807,0.04484
2668.36781,0.04440
2667.33755,0.04410
2666.30730,0.04387
2665.27704,0.04372
2664.24678,0.04378
2663.21652,0.04384
2662.18627,0.04370
2661.15601,0.04349
2660.12575,0.04325
2659.09549,0.04311
2658.06523,0.04309
2657.03498,0.04292
2656.00472,0.04246
2654.97446,0.04215
2653.94420,0.04229
2652.91394,0.04244
2651.88369,0.04216
2650.85343,0.04153
2649.82317,0.04113
2648.79291,0.04109
2647.76266,0.04106
2646.73240,0.04102
2645.70214,0.04100
2644.67188,0.04083
2643.64162,0.04063
2642.61137,0.04035
2641.58111,0.03992
2640.55085,0.03969
2639.52059,0.03982
2638.49033,0.03994
2637.46008,0.03969
2636.42982,0.03931
2635.39956,0.03915
2634.36930,0.03916
2633.33905,0.03926
2632.30879,0.03913
2631.27853,0.03867
2630.24827,0.03841
2629.21801,0.03845
2628.18776,0.03851
2627.15750,0.03842
2626.12724,0.03831
2625.09698,0.03827
2624.06673,0.03795
2623.03647,0.03742
2622.00621,0.03719
2620.97595,0.03729
2619.94569,0.03747
2618.91544,0.03747
2617.88518,0.03732
2616.85492,0.03728
2615.82466,0.03714
2614.79440,0.03668
2613.76415,0.03624
2612.73389,0.03619
2611.70363,0.03625
2610.67337,0.03581
2609.64312,0.03531
2608.61286,0.03545
2607.58260,0.03573
2606.55234,0.03578
2605.52208,0.03589
2604.49183,0.03596
2603.46157,0.03600
2602.43131,0.03604
2601.40105,0.03571
2600.37079,0.03518
2599.34054,0.03502
2598.31028,0.03512
2597.28002,0.03509
2596.24976,0.03502
2595.21951,0.03516
2594.18925,0.03540
2593.15899,0.03542
2592.12873,0.03511
2591.09847,0.03502
2590.06822,0.03530
2589.03796,0.03540
2588.00770,0.03530
2586.97744,0.03512
2585.94718,0.03489
2584.91693,0.03487
2583.88667,0.03489
2582.85641,0.03484
2581.82615,0.03487
2580.79590,0.03484
2579.76564,0.03465
2578.73538,0.03440
2577.70512,0.03422
2576.67486,0.03400
2575.64461,0.03385
2574.61435,0.03414
2573.58409,0.03458
2572.55383,0.03476
2571.52358,0.03470
2570.49332,0.03442
2569.46306,0.03406
2568.43280,0.03371
2567.40254,0.03345
2566.37229,0.03369
2565.34203,0.03428
2564.31177,0.03437
2563.28151,0.03361
2562.25125,0.03281
2561.22100,0.03275
2560.19074,0.03298
2559.16048,0.03316
2558.13022,0.03314
2557.09997,0.03288
2556.06971,0.03287
2555.03945,0.03327
2554.00919,0.03373
2552.97893,0.03393
2551.94868,0.03366
2550.91842,0.03315
2549.88816,0.03296
2548.85790,0.03321
2547.82764,0.03348
2546.79739,0.03326
2545.76713,0.03267
2544.73687,0.03210
2543.70661,0.03186
2542.67636,0.03220
2541.64610,0.03241
2540.61584,0.03221
2539.58558,0.03226
2538.55532,0.03250
2537.52507,0.03263
2536.49481,0.03274
2535.46455,0.03294
2534.43429,0.03298
2533.40403,0.03250
2532.37378,0.03180
2531.34352,0.03166
2530.31326,0.03216
2529.28300,0.03244
2528.25275,0.03214
2527.22249,0.03197
2526.19223,0.03209
2525.16197,0.03192
2524.13171,0.03154
2523.10146,0.03163
2522.07120,0.03238
2521.04094,0.03290
2520.01068,0.03281
2518.98043,0.03272
2517.95017,0.03294
2516.91991,0.03313
2515.88965,0.03282
2514.85939,0.03231
2513.82914,0.03205
2512.79888,0.03211
2511.76862,0.03208
2510.73836,0.03166
2509.70810,0.03146
2508.67785,0.03172
2507.64759,0.03191
2506.61733,0.03191
2505.58707,0.03163
2504.55682,0.03125
2503.52656,0.03089
2502.49630,0.03029
2501.46604,0.02985
2500.43578,0.02993
2499.40553,0.03021
2498.37527,0.03039
2497.34501,0.03047
2496.31475,0.03044
2495.28449,0.03016
2494.25424,0.02976
2493.22398,0.02963
2492.19372,0.02967
2491.16346,0.02952
2490.13321,0.02939
2489.10295,0.02946
2488.07269,0.02961
2487.04243,0.02977
2486.01217,0.02992
2484.98192,0.03031
2483.95166,0.03063
2482.92140,0.03021
2481.89114,0.02973
2480.86088,0.02966
2479.83063,0.02946
2478.80037,0.02938
2477.77011,0.02960
2476.73985,0.02951
2475.70960,0.02926
2474.67934,0.02906
2473.64908,0.02881
2472.61882,0.02904
2471.58856,0.02945
2470.55831,0.02947
2469.52805,0.02964
2468.49779,0.03008
2467.46753,0.03027
2466.43728,0.03030
2465.40702,0.03048
2464.37676,0.03043
2463.34650,0.03007
2462.31624,0.03011
2461.28599,0.03047
2460.25573,0.03047
2459.22547,0.03036
2458.19521,0.03032
2457.16495,0.03029
2456.13470,0.03056
2455.10444,0.03062
2454.07418,0.03014
2453.04392,0.02978
2452.01367,0.02963
2450.98341,0.02934
2449.95315,0.02914
2448.92289,0.02946
2447.89263,0.02981
2446.86238,0.02953
2445.83212,0.02905
2444.80186,0.02916
2443.77160,0.02982
2442.74134,0.03013
2441.71109,0.02945
2440.68083,0.02870
2439.65057,0.02862
2438.62031,0.02895
2437.59006,0.02933
2436.55980,0.02946
2435.52954,0.02960
2434.49928,0.02992
2433.46902,0.02983
2432.43877,0.02935
2431.40851,0.02929
2430.37825,0.02958
2429.34799,0.02981
2428.31774,0.02970
2427.28748,0.02925
2426.25722,0.02939
2425.22696,0.02998
2424.19670,0.02990
2423.16645,0.02945
2422.13619,0.02938
2421.10593,0.02953
2420.07567,0.02969
2419.04541,0.02965
2418.01516,0.02923
2416.98490,0.02866
2415.95464,0.02840
2414.92438,0.02867
2413.89413,0.02921
2412.86387,0.02963
2411.83361,0.02954
2410.80335,0.02935
2409.77309,0.02945
2408.74284,0.02929
2407.71258,0.02863
2406.68232,0.02832
2405.65206,0.02900
2404.62180,0.02990
2403.59155,0.03033
2402.56129,0.03044
2401.53103,0.03015
2400.50077,0.02959
2399.47052,0.02928
2398.44026,0.02940
2397.41000,0.02958
2396.37974,0.02954
2395.34948,0.02954
2394.31923,0.02991
2393.28897,0.03040
2392.25871,0.03057
2391.22845,0.03063
2390.19819,0.03083
2389.16794,0.03062
2388.13768,0.03005
2387.10742,0.02989
2386.07716,0.03015
2385.04691,0.03047
2384.01665,0.03099
2382.98639,0.03166
2381.95613,0.03203
2380.92587,0.03181
2379.89562,0.03151
2378.86536,0.03176
2377.83510,0.03233
2376.80484,0.03257
2375.77459,0.03255
2374.74433,0.03288
2373.71407,0.03338
2372.68381,0.03367
2371.65355,0.03374
2370.62330,0.03385
2369.59304,0.03495
2368.56278,0.03663
2367.53252,0.03751
2366.50226,0.03792
2365.47201,0.03823
2364.44175,0.03796
2363.41149,0.03728
2362.38123,0.03672
2361.35098,0.03643
2360.32072,0.03634
2359.29046,0.03710
2358.26020,0.03889
2357.22994,0.04055
2356.19969,0.04061
2355.16943,0.03920
2354.13917,0.03832
2353.10891,0.03827
2352.07865,0.03798
2351.04840,0.03767
2350.01814,0.03746
2348.98788,0.03725
2347.95762,0.03770
2346.92737,0.03881
2345.89711,0.03932
2344.86685,0.03945
2343.83659,0.04040
2342.80633,0.04127
2341.77608,0.04110
2340.74582,0.04052
2339.71556,0.04036
2338.68530,0.04104
2337.65504,0.04185
2336.62479,0.04168
2335.59453,0.04095
2334.56427,0.04064
2333.53401,0.04102
2332.50376,0.04136
2331.47350,0.04094
2330.44324,0.04071
2329.41298,0.04106
2328.38272,0.04080
2327.35247,0.04018
2326.32221,0.04039
2325.29195,0.04103
2324.26169,0.04111
2323.23144,0.04063
2322.20118,0.04041
2321.17092,0.04048
2320.14066,0.04020
2319.11040,0.03990
2318.08015,0.04009
2317.04989,0.04035
2316.01963,0.04010
2314.98937,0.03989
2313.95911,0.04009
2312.92886,0.04011
2311.89860,0.04010
2310.86834,0.04037
2309.83808,0.04040
2308.80783,0.04016
2307.77757,0.04026
2306.74731,0.04068
2305.71705,0.04063
2304.68679,0.04015
2303.65654,0.03991
2302.62628,0.03990
2301.59602,0.03984
2300.56576,0.03954
2299.53550,0.03930
2298.50525,0.03971
2297.47499,0.04034
2296.44473,0.04058
2295.41447,0.04030
2294.38422,0.03987
2293.35396,0.03999
2292.32370,0.04055
2291.29344,0.04074
2290.26318,0.04037
2289.23293,0.04001
2288.20267,0.03989
2287.17241,0.04012
2286.14215,0.04039
2285.11189,0.04007
2284.08164,0.03959
2283.05138,0.03941
2282.02112,0.03928
2280.99086,0.03917
2279.96061,0.03926
2278.93035,0.03952
2277.90009,0.03948
2276.86983,0.03930
2275.83957,0.03961
2274.80932,0.03997
2273.77906,0.03996
2272.74880,0.03999
2271.71854,0.03979
2270.68829,0.03865
2269.65803,0.03746
2268.62777,0.03776
2267.59751,0.03895
2266.56725,0.03940
2265.53700,0.03929
2264.50674,0.03899
2263.47648,0.03844
2262.44622,0.03810
2261.41596,0.03757
2260.38571,0.03671
2259.35545,0.03641
2258.32519,0.03715
2257.29493,0.03844
2256.26468,0.03885
2255.23442,0.03831
2254.20416,0.03785
2253.17390,0.03726
2252.14364,0.03648
2251.11339,0.03603
2250.08313,0.03624
2249.05287,0.03704
2248.02261,0.03742
2246.99235,0.03693
2245.96210,0.03662
2244.93184,0.03676
2243.90158,0.03690
2242.87132,0.03688
2241.84107,0.03609
2240.81081,0.03444
2239.78055,0.03356
2238.75029,0.03461
2237.72003,0.03604
2236.68978,0.03641
2235.65952,0.03604
2234.62926,0.03500
2233.59900,0.03377
2232.56874,0.03341
2231.53849,0.03377
2230.50823,0.03382
2229.47797,0.03352
2228.44771,0.03342
2227.41746,0.03336
2226.38720,0.03263
2225.35694,0.03181
2224.32668,0.03222
2223.29642,0.03303
2222.26617,0.03293
2221.23591,0.03231
2220.20565,0.03254
2219.17539,0.03335
2218.14514,0.03368
2217.11488,0.03343
2216.08462,0.03268
2215.05436,0.03273
2214.02410,0.03395
2212.99385,0.03482
2211.96359,0.03445
2210.93333,0.03284
2209.90307,0.03139
2208.87281,0.03127
2207.84256,0.03133
2206.81230,0.03174
2205.78204,0.03253
2204.75178,0.03168
2203.72153,0.03012
2202.69127,0.03014
2201.66101,0.03212
2200.63075,0.03382
2199.60049,0.03306
2198.57024,0.03176
2197.53998,0.03141
2196.50972,0.03166
2195.47946,0.03254
2194.44920,0.03320
2193.41895,0.03354
2192.38869,0.03359
2191.35843,0.03263
2190.32817,0.03151
2189.29792,0.03183
2188.26766,0.03284
2187.23740,0.03377
2186.20714,0.03436
2185.17688,0.03369
2184.14663,0.03226
2183.11637,0.03043
2182.08611,0.02889
2181.05585,0.02866
2180.02559,0.02925
2178.99534,0.03059
2177.96508,0.03246
2176.93482,0.03412
2175.90456,0.03510
2174.87431,0.03393
2173.84405,0.03059
2172.81379,0.02824
2171.78353,0.02838
2170.75327,0.03014
2169.72302,0.03204
2168.69276,0.03161
2167.66250,0.02978
2166.63224,0.03055
2165.60199,0.03286
2164.57173,0.03311
2163.54147,0.03140
2162.51121,0.02988
2161.48095,0.02894
2160.45070,0.02704
2159.42044,0.02486
2158.39018,0.02479
2157.35992,0.02684
2156.32966,0.02840
2155.29941,0.02873
2154.26915,0.02881
2153.23889,0.02884
2152.20863,0.02935
2151.17838,0.03075
2150.14812,0.03172
2149.11786,0.03095
2148.08760,0.03041
2147.05734,0.03119
2146.02709,0.03100
2144.99683,0.02952
2143.96657,0.02829
2142.93631,0.02773
2141.90605,0.02764
2140.87580,0.02751
2139.84554,0.02684
2138.81528,0.02686
2137.78502,0.02802
2136.75477,0.02863
2135.72451,0.02784
2134.69425,0.02689
2133.66399,0.02730
2132.63373,0.02832
2131.60348,0.02891
2130.57322,0.02918
2129.54296,0.02872
2128.51270,0.02746
2127.48244,0.02673
2126.45219,0.02675
2125.42193,0.02636
2124.39167,0.02619
2123.36141,0.02639
2122.33116,0.02579
2121.30090,0.02565
2120.27064,0.02691
2119.24038,0.02790
2118.21012,0.02799
2117.17987,0.02785
2116.14961,0.02743
2115.11935,0.02672
2114.08909,0.02632
2113.05884,0.02652
2112.02858,0.02710
2110.99832,0.02783
2109.96806,0.02825
2108.93780,0.02823
2107.90755,0.02805
2106.87729,0.02768
2105.84703,0.02781
2104.81677,0.02880
2103.78651,0.02960
2102.75626,0.02936
2101.72600,0.02860
2100.69574,0.02798
2099.66548,0.02755
2098.63523,0.02785
2097.60497,0.02909
2096.57471,0.02958
2095.54445,0.02847
2094.51419,0.02794
2093.48394,0.02810
2092.45368,0.02736
2091.42342,0.02671
2090.39316,0.02698
2089.36290,0.02756
2088.33265,0.02778
2087.30239,0.02782
2086.27213,0.02815
2085.24187,0.02812
2084.21162,0.02759
2083.18136,0.02746
2082.15110,0.02772
2081.12084,0.02778
2080.09058,0.02721
2079.06033,0.02640
2078.03007,0.02675
2076.99981,0.02757
2075.96955,0.02674
2074.93930,0.02546
2073.90904,0.02527
2072.87878,0.02537
2071.84852,0.02581
2070.81826,0.02656
2069.78801,0.02692
2068.75775,0.02685
2067.72749,0.02695
2066.69723,0.02658
2065.66697,0.02520
2064.63672,0.02496
2063.60646,0.02619
2062.57620,0.02730
2061.54594,0.02743
2060.51569,0.02627
2059.48543,0.02501
2058.45517,0.02435
2057.42491,0.02442
2056.39465,0.02578
2055.36440,0.02702
2054.33414,0.02670
2053.30388,0.02648
2052.27362,0.02774
2051.24336,0.02866
2050.21311,0.02751
2049.18285,0.02584
2048.15259,0.02527
2047.12233,0.02515
2046.09208,0.02518
2045.06182,0.02545
2044.03156,0.02606
2043.00130,0.02682
2041.97104,0.02676
2040.94079,0.02545
2039.91053,0.02422
2038.88027,0.02435
2037.85001,0.02510
2036.81975,0.02554
2035.78950,0.02535
2034.75924,0.02470
2033.72898,0.02489
2032.69872,0.02540
2031.66847,0.02576
2030.63821,0.02704
2029.60795,0.02696
2028.57769,0.02396
2027.54743,0.02091
2026.51718,0.02068
2025.48692,0.02360
2024.45666,0.02701
2023.42640,0.02818
2022.39615,0.02794
2021.36589,0.02857
2020.33563,0.02936
2019.30537,0.02846
2018.27511,0.02689
2017.24486,0.02611
2016.21460,0.02528
2015.18434,0.02405
2014.15408,0.02317
2013.12382,0.02180
2012.09357,0.02038
2011.06331,0.02083
2010.03305,0.02193
2009.00279,0.02202
2007.97254,0.02244
2006.94228,0.02348
2005.91202,0.02384
2004.88176,0.02390
2003.85150,0.02379
2002.82125,0.02334
2001.79099,0.02322
2000.76073,0.02322
1999.73047,0.02362
1998.70021,0.02403
1997.66996,0.02303
1996.63970,0.02230
1995.60944,0.02402
1994.57918,0.02628
1993.54893,0.02708
1992.51867,0.02773
1991.48841,0.02846
1990.45815,0.02786
1989.42789,0.02660
1988.39764,0.02529
1987.36738,0.02390
1986.33712,0.02323
1985.30686,0.02396
1984.27660,0.02491
1983.24635,0.02399
1982.21609,0.02214
1981.18583,0.02208
1980.15557,0.02361
1979.12532,0.02526
1978.09506,0.02608
1977.06480,0.02516
1976.03454,0.02317
1975.00428,0.02213
1973.97403,0.02237
1972.94377,0.02237
1971.91351,0.02222
1970.88325,0.02237
1969.85300,0.02170
1968.82274,0.02018
1967.79248,0.01966
1966.76222,0.02071
1965.73196,0.02170
1964.70171,0.02210
1963.67145,0.02255
1962.64119,0.02218
1961.61093,0.02046
1960.58067,0.01976
1959.55042,0.02134
1958.52016,0.02296
1957.48990,0.02319
1956.45964,0.02300
1955.42939,0.02326
1954.39913,0.02361
1953.36887,0.02392
1952.33861,0.02395
1951.30835,0.02306
1950.27810,0.02215
1949.24784,0.02202
1948.21758,0.02151
1947.18732,0.02059
1946.15706,0.02116
1945.12681,0.02330
1944.09655,0.02492
1943.06629,0.02478
1942.03603,0.02377
1941.00578,0.02338
1939.97552,0.02375
1938.94526,0.02398
1937.91500,0.02351
1936.88474,0.02316
1935.85449,0.02358
1934.82423,0.02402
1933.79397,0.02386
1932.76371,0.02364
1931.73345,0.02342
1930.70320,0.02285
1929.67294,0.02249
1928.64268,0.02275
1927.61242,0.02357
1926.58217,0.02493
1925.55191,0.02607
1924.52165,0.02605
1923.49139,0.02513
1922.46113,0.02459
1921.43088,0.02497
1920.40062,0.02519
1919.37036,0.02469
1918.34010,0.02402
1917.30985,0.02319
1916.27959,0.02243
1915.24933,0.02272
1914.21907,0.02344
1913.18881,0.02351
1912.15856,0.02322
1911.12830,0.02321
1910.09804,0.02369
1909.06778,0.02427
1908.03752,0.02445
1907.00727,0.02435
1905.97701,0.02450
1904.94675,0.02462
1903.91649,0.02414
1902.88624,0.02365
1901.85598,0.02374
1900.82572,0.02416
1899.79546,0.02490
1898.76520,0.02525
1897.73495,0.02433
1896.70469,0.02382
1895.67443,0.02501
1894.64417,0.02640
1893.61391,0.02681
1892.58366,0.02694
1891.55340,0.02720
1890.52314,0.02705
1889.49288,0.02644
1888.46263,0.02589
1887.43237,0.02605
1886.40211,0.02681
1885.37185,0.02761
1884.34159,0.02850
1883.31134,0.02895
1882.28108,0.02877
1881.25082,0.02923
1880.22056,0.03032
1879.19030,0.03054
1878.16005,0.02977
1877.12979,0.02906
1876.09953,0.02865
1875.06927,0.02833
1874.03902,0.02864
1873.00876,0.02942
1871.97850,0.02961
1870.94824,0.02902
1869.91798,0.02827
1868.88773,0.02793
1867.85747,0.02788
1866.82721,0.02767
1865.79695,0.02774
1864.76670,0.02854
1863.73644,0.02888
1862.70618,0.02797
1861.67592,0.02724
1860.64566,0.02732
1859.61541,0.02729
1858.58515,0.02732
1857.55489,0.02757
1856.52463,0.02734
1855.49437,0.02685
1854.46412,0.02674
1853.43386,0.02700
1852.40360,0.02711
1851.37334,0.02676
1850.34309,0.02645
1849.31283,0.02665
1848.28257,0.02710
1847.25231,0.02726
1846.22205,0.02723
1845.19180,0.02716
1844.16154,0.02646
1843.13128,0.02588
1842.10102,0.02627
1841.07076,0.02678
1840.04051,0.02682
1839.01025,0.02666
1837.97999,0.02679
1836.94973,0.02710
1835.91948,0.02705
1834.88922,0.02659
1833.85896,0.02633
1832.82870,0.02674
1831.79844,0.02731
1830.76819,0.02738
1829.73793,0.02697
1828.70767,0.02670
1827.67741,0.02682
1826.64715,0.02711
1825.61690,0.02742
1824.58664,0.02770
1823.55638,0.02786
1822.52612,0.02786
1821.49587,0.02770
1820.46561,0.02752
1819.43535,0.02751
1818.40509,0.02728
1817.37483,0.02688
1816.34458,0.02687
1815.31432,0.02717
1814.28406,0.02747
1813.25380,0.02767
1812.22355,0.02779
1811.19329,0.02783
1810.16303,0.02783
1809.13277,0.02777
1808.10251,0.02788
1807.07226,0.02819
1806.04200,0.02838
1805.01174,0.02846
1803.98148,0.02866
1802.95122,0.02899
1801.92097,0.02929
1800.89071,0.02929
1799.86045,0.02920
1798.83019,0.02932
1797.79994,0.02946
1796.76968,0.02949
1795.73942,0.02955
1794.70916,0.02966
1793.67890,0.02976
1792.64865,0.03001
1791.61839,0.03034
1790.58813,0.03040
1789.55787,0.03028
1788.52761,0.02998
1787.49736,0.02959
1786.46710,0.02954
1785.43684,0.02993
1784.40658,0.03048
1783.37633,0.03092
1782.34607,0.03126
1781.31581,0.03149
1780.28555,0.03147
1779.25529,0.03139
1778.22504,0.03138
1777.19478,0.03156
1776.16452,0.03172
1775.13426,0.03154
1774.10400,0.03154
1773.07375,0.03192
1772.04349,0.03215
1771.01323,0.03214
1769.98297,0.03216
1768.95272,0.03228
1767.92246,0.03246
1766.89220,0.03257
1765.86194,0.03255
1764.83168,0.03257
1763.80143,0.03285
1762.77117,0.03311
1761.74091,0.03305
1760.71065,0.03299
1759.68040,0.03299
1758.65014,0.03314
1757.61988,0.03362
1756.58962,0.03394
1755.55936,0.03397
1754.52911,0.03408
1753.49885,0.03436
1752.46859,0.03494
1751.43833,0.03535
1750.40807,0.03500
1749.37782,0.03483
1748.34756,0.03507
1747.31730,0.03520
1746.28704,0.03510
1745.25679,0.03495
1744.22653,0.03509
1743.19627,0.03562
1742.16601,0.03612
1741.13575,0.03630
1740.10550,0.03619
1739.07524,0.03612
1738.04498,0.03649
1737.01472,0.03695
1735.98446,0.03732
1734.95421,0.03739
1733.92395,0.03693
1732.89369,0.03709
1731.86343,0.03776
1730.83318,0.03815
1729.80292,0.03828
1728.77266,0.03847
1727.74240,0.03878
1726.71214,0.03913
1725.68189,0.03941
1724.65163,0.03960
1723.62137,0.03974
1722.59111,0.04002
1721.56085,0.04045
1720.53060,0.04068
1719.50034,0.04081
1718.47008,0.04102
1717.43982,0.04102
1716.40957,0.04108
1715.37931,0.04141
1714.34905,0.04193
1713.31879,0.04237
1712.28853,0.04255
1711.25828,0.04294
1710.22802,0.04362
1709.19776,0.04405
1708.16750,0.04429
1707.13725,0.04455
1706.10699,0.04466
1705.07673,0.04472
1704.04647,0.04495
1703.01621,0.04529
1701.98596,0.04569
1700.95570,0.04587
1699.92544,0.04588
1698.89518,0.04654
1697.86492,0.04715
1696.83467,0.04739
1695.80441,0.04742
1694.77415,0.04754
1693.74389,0.04782
1692.71364,0.04815
1691.68338,0.04845
1690.65312,0.04855
1689.62286,0.04837
1688.59260,0.04829
1687.56235,0.04863
1686.53209,0.04927
1685.50183,0.04980
1684.47157,0.04953
1683.44131,0.04863
1682.41106,0.04831
1681.38080,0.04809
1680.35054,0.04781
1679.32028,0.04783
1678.29003,0.04793
1677.25977,0.04799
1676.22951,0.04811
1675.19925,0.04753
1674.16899,0.04660
1673.13874,0.04635
1672.10848,0.04626
1671.07822,0.04623
1670.04796,0.04625
1669.01771,0.04575
1667.98745,0.04503
1666.95719,0.04474
1665.92693,0.04464
1664.89667,0.04462
1663.86642,0.04472
1662.83616,0.04453
1661.80590,0.04385
1660.77564,0.04340
1659.74538,0.04336
1658.71513,0.04332
1657.68487,0.04295
1656.65461,0.04270
1655.62435,0.04306
1654.59410,0.04374
1653.56384,0.04378
1652.53358,0.04210
1651.50332,0.04121
1650.47306,0.04126
1649.44281,0.04144
1648.41255,0.04148
1647.38229,0.04141
1646.35203,0.04122
1645.32177,0.04079
1644.29152,0.04053
1643.26126,0.04046
1642.23100,0.04034
1641.20074,0.04013
1640.17049,0.03995
1639.14023,0.03999
1638.10997,0.04024
1637.07971,0.04037
1636.04945,0.04012
1635.01920,0.03978
1633.98894,0.03979
1632.95868,0.03977
1631.92842,0.03966
1630.89816,0.03958
1629.86791,0.03963
1628.83765,0.03971
1627.80739,0.03944
1626.77713,0.03904
1625.74688,0.03894
1624.71662,0.03904
1623.68636,0.03903
1622.65610,0.03878
1621.62584,0.03860
1620.59559,0.03861
1619.56533,0.03873
1618.53507,0.03893
1617.50481,0.03912
1616.47456,0.03902
1615.44430,0.03868
1614.41404,0.03852
1613.38378,0.03834
1612.35352,0.03819
1611.32327,0.03830
1610.29301,0.03838
1609.26275,0.03831
1608.23249,0.03827
1607.20223,0.03821
1606.17198,0.03809
1605.14172,0.03799
1604.11146,0.03801
1603.08120,0.03802
1602.05095,0.03794
1601.02069,0.03791
1599.99043,0.03807
1598.96017,0.03836
1597.92991,0.03847
1596.89966,0.03839
1595.86940,0.03839
1594.83914,0.03840
1593.80888,0.03838
1592.77862,0.03847
1591.74837,0.03857
1590.71811,0.03850
1589.68785,0.03819
1588.65759,0.03788
1587.62734,0.03793
1586.59708,0.03825
1585.56682,0.03851
1584.53656,0.03854
1583.50630,0.03847
1582.47605,0.03857
1581.44579,0.03853
1580.41553,0.03831
1579.38527,0.03834
1578.35501,0.03865
1577.32476,0.03888
1576.29450,0.03873
1575.26424,0.03856
1574.23398,0.03861
1573.20373,0.03856
1572.17347,0.03854
1571.14321,0.03868
1570.11295,0.03868
1569.08269,0.03814
1568.05244,0.03768
1567.02218,0.03761
1565.99192,0.03771
1564.96166,0.03787
1563.93141,0.03793
1562.90115,0.03800
1561.87089,0.03823
1560.84063,0.03849
1559.81037,0.03859
1558.78012,0.03853
1557.74986,0.03847
1556.71960,0.03849
1555.68934,0.03846
1554.65908,0.03809
1553.62883,0.03768
1552.59857,0.03774
1551.56831,0.03793
1550.53805,0.03800
1549.50780,0.03792
1548.47754,0.03791
1547.44728,0.03798
1546.41702,0.03802
1545.38676,0.03801
1544.35651,0.03803
1543.32625,0.03797
1542.29599,0.03770
1541.26573,0.03789
1540.23547,0.03874
1539.20522,0.03910
1538.17496,0.03874
1537.14470,0.03857
1536.11444,0.03855
1535.08419,0.03863
1534.05393,0.03873
1533.02367,0.03855
1531.99341,0.03848
1530.96315,0.03867
1529.93290,0.03878
1528.90264,0.03866
1527.87238,0.03857
1526.84212,0.03879
1525.81186,0.03885
1524.78161,0.03864
1523.75135,0.03886
1522.72109,0.03954
1521.69083,0.03994
1520.66058,0.03945
1519.63032,0.03907
1518.60006,0.03934
1517.56980,0.03958
1516.53954,0.03938
1515.50929,0.03920
1514.47903,0.03926
1513.44877,0.03954
1512.41851,0.03992
1511.38826,0.04014
1510.35800,0.04021
1509.32774,0.04034
1508.29748,0.04065
1507.26722,0.04071
1506.23697,0.04007
1505.20671,0.03972
1504.17645,0.03969
1503.14619,0.03969
1502.11593,0.03983
1501.08568,0.04009
1500.05542,0.04038
1499.02516,0.04058
1497.99490,0.04076
1496.96465,0.04116
1495.93439,0.04201
1494.90413,0.04296
1493.87387,0.04395
1492.84361,0.04544
1491.81336,0.04772
1490.78310,0.05145
1489.75284,0.05786
1488.72258,0.06577
1487.69232,0.07407
1486.66207,0.08265
1485.63181,0.08989
1484.60155,0.09586
1483.57129,0.10197
1482.54104,0.10986
1481.51078,0.12066
1480.48052,0.13118
1479.45026,0.13457
1478.42000,0.12961
1477.38975,0.12146
1476.35949,0.11498
1475.32923,0.11344
1474.29897,0.11650
1473.26871,0.12276
1472.23846,0.13089
1471.20820,0.13775
1470.17794,0.14073
1469.14768,0.13923
1468.11743,0.13364
1467.08717,0.12636
1466.05691,0.11955
1465.02665,0.11322
1463.99639,0.10920
1462.96614,0.10878
1461.93588,0.10990
1460.90562,0.11102
1459.87536,0.11133
1458.84511,0.11016
1457.81485,0.10733
1456.78459,0.10235
1455.75433,0.09781
1454.72407,0.09548
1453.69382,0.09423
1452.66356,0.09364
1451.63330,0.09271
1450.60304,0.09090
1449.57278,0.08958
1448.54253,0.08946
1447.51227,0.08878
1446.48201,0.08603
1445.45175,0.08235
1444.42150,0.07920
1443.39124,0.07714
1442.36098,0.07607
1441.33072,0.07564
1440.30046,0.07507
1439.27021,0.07371
1438.23995,0.07174
1437.20969,0.06875
1436.17943,0.06453
1435.14917,0.06187
1434.11892,0.06049
1433.08866,0.05942
1432.05840,0.05876
1431.02814,0.05833
1429.99789,0.05748
1428.96763,0.05584
1427.93737,0.05374
1426.90711,0.05144
1425.87685,0.04950
1424.84660,0.04823
1423.81634,0.04711
1422.78608,0.04589
1421.75582,0.04502
1420.72556,0.04456
1419.69531,0.04401
1418.66505,0.04314
1417.63479,0.04230
1416.60453,0.04150
1415.57428,0.04084
1414.54402,0.04055
1413.51376,0.04057
1412.48350,0.04060
1411.45324,0.04044
1410.42299,0.04036
1409.39273,0.04056
1408.36247,0.04107
1407.33221,0.04219
1406.30196,0.04421
1405.27170,0.04738
1404.24144,0.05103
1403.21118,0.05334
1402.18092,0.05419
1401.15067,0.05544
1400.12041,0.05970
1399.09015,0.06828
1398.05989,0.07663
1397.02963,0.08073
1395.99938,0.08226
1394.96912,0.07994
1393.93886,0.07184
1392.90860,0.06316
1391.87835,0.05712
1390.84809,0.05393
1389.81783,0.05394
1388.78757,0.05514
1387.75731,0.05373
1386.72706,0.04922
1385.69680,0.04537
1384.66654,0.04316
1383.63628,0.04178
1382.60602,0.04084
1381.57577,0.04008
1380.54551,0.03935
1379.51525,0.03878
1378.48499,0.03845
1377.45474,0.03820
1376.42448,0.03799
1375.39422,0.03787
1374.36396,0.03764
1373.33370,0.03724
1372.30345,0.03702
1371.27319,0.03697
1370.24293,0.03684
1369.21267,0.03665
1368.18241,0.03645
1367.15216,0.03619
1366.12190,0.03590
1365.09164,0.03567
1364.06138,0.03556
1363.03113,0.03555
1362.00087,0.03566
1360.97061,0.03561
1359.94035,0.03531
1358.91009,0.03507
1357.87984,0.03501
1356.84958,0.03502
1355.81932,0.03498
1354.78906,0.03485
1353.75881,0.03469
1352.72855,0.03462
1351.69829,0.03450
1350.66803,0.03431
1349.63777,0.03420
1348.60752,0.03414
1347.57726,0.03406
1346.54700,0.03402
1345.51674,0.03395
1344.48648,0.03386
1343.45623,0.03380
1342.42597,0.03371
1341.39571,0.03373
1340.36545,0.03388
1339.33520,0.03398
1338.30494,0.03406
1337.27468,0.03405
1336.24442,0.03388
1335.21416,0.03358
1334.18391,0.03322
1333.15365,0.03305
1332.12339,0.03318
1331.09313,0.03337
1330.06287,0.03347
1329.03262,0.03353
1328.00236,0.03340
1326.97210,0.03314
1325.94184,0.03307
1324.91159,0.03319
1323.88133,0.03327
1322.85107,0.03303
1321.82081,0.03254
1320.79055,0.03233
1319.76030,0.03258
1318.73004,0.03285
1317.69978,0.03280
1316.66952,0.03257
1315.63927,0.03240
1314.60901,0.03236
1313.57875,0.03225
1312.54849,0.03206
1311.51823,0.03198
1310.48798,0.03199
1309.45772,0.03196
1308.42746,0.03190
1307.39720,0.03187
1306.36694,0.03174
1305.33669,0.03155
1304.30643,0.03145
1303.27617,0.03134
1302.24591,0.03118
1301.21566,0.03109
1300.18540,0.03112
1299.15514,0.03120
1298.12488,0.03118
1297.09462,0.03100
1296.06437,0.03092
1295.03411,0.03103
1294.00385,0.03112
1292.97359,0.03114
1291.94333,0.03112
1290.91308,0.03101
1289.88282,0.03091
1288.85256,0.03092
1287.82230,0.03084
1286.79205,0.03070
1285.76179,0.03078
1284.73153,0.03096
1283.70127,0.03115
1282.67101,0.03130
1281.64076,0.03154
1280.61050,0.03192
1279.58024,0.03219
1278.54998,0.03233
1277.51972,0.03259
1276.48947,0.03294
1275.45921,0.03314
1274.42895,0.03320
1273.39869,0.03329
1272.36844,0.03334
1271.33818,0.03337
1270.30792,0.03353
1269.27766,0.03368
1268.24740,0.03368
1267.21715,0.03384
1266.18689,0.03436
1265.15663,0.03496
1264.12637,0.03553
1263.09612,0.03642
1262.06586,0.03783
1261.03560,0.03999
1260.00534,0.04345
1258.97508,0.04920
1257.94483,0.05814
1256.91457,0.06958
1255.88431,0.07967
1254.85405,0.08287
1253.82379,0.07784
1252.79354,0.06895
1251.76328,0.06127
1250.73302,0.05706
1249.70276,0.05626
1248.67251,0.05822
1247.64225,0.06216
1246.61199,0.06740
1245.58173,0.07393
1244.55147,0.08253
1243.52122,0.09392
1242.49096,0.10641
1241.46070,0.11570
1240.43044,0.11848
1239.40018,0.11421
1238.36993,0.10449
1237.33967,0.09229
1236.30941,0.08039
1235.27915,0.07027
1234.24890,0.06229
1233.21864,0.05618
1232.18838,0.05168
1231.15812,0.04858
1230.12786,0.04627
1229.09761,0.04440
1228.06735,0.04304
1227.03709,0.04193
1226.00683,0.04076
1224.97657,0.03958
1223.94632,0.03868
1222.91606,0.03824
1221.88580,0.03811
1220.85554,0.03795
1219.82529,0.03752
1218.79503,0.03703
1217.76477,0.03691
1216.73451,0.03704
1215.70425,0.03695
1214.67400,0.03647
1213.64374,0.03578
1212.61348,0.03532
1211.58322,0.03526
1210.55297,0.03526
1209.52271,0.03517
1208.49245,0.03499
1207.46219,0.03469
1206.43193,0.03443
1205.40168,0.03440
1204.37142,0.03443
1203.34116,0.03437
1202.31090,0.03429
1201.28064,0.03416
1200.25039,0.03387
1199.22013,0.03364
1198.18987,0.03347
1197.15961,0.03311
1196.12936,0.03289
1195.09910,0.03298
1194.06884,0.03299
1193.03858,0.03288
1192.00832,0.03277
1190.97807,0.03271
1189.94781,0.03253
1188.91755,0.03214
1187.88729,0.03182
1186.85703,0.03159
1185.82678,0.03139
1184.79652,0.03137
1183.76626,0.03150
1182.73600,0.03156
1181.70575,0.03145
1180.67549,0.03140
1179.64523,0.03136
1178.61497,0.03132
1177.58471,0.03134
1176.55446,0.03125
1175.52420,0.03095
1174.49394,0.03065
1173.46368,0.03057
1172.43342,0.03058
1171.40317,0.03048
1170.37291,0.03031
1169.34265,0.03010
1168.31239,0.02977
1167.28214,0.02936
1166.25188,0.02910
1165.22162,0.02905
1164.19136,0.02909
1163.16110,0.02904
1162.13085,0.02891
1161.10059,0.02881
1160.07033,0.02878
1159.04007,0.02882
1158.00982,0.02876
1156.97956,0.02850
1155.94930,0.02819
1154.91904,0.02806
1153.88878,0.02802
1152.85853,0.02786
1151.82827,0.02751
1150.79801,0.02736
1149.76775,0.02762
1148.73749,0.02771
1147.70724,0.02729
1146.67698,0.02681
1145.64672,0.02674
1144.61646,0.02700
1143.58621,0.02719
1142.55595,0.02706
1141.52569,0.02674
1140.49543,0.02652
1139.46517,0.02668
1138.43492,0.02697
1137.40466,0.02699
1136.37440,0.02701
1135.34414,0.02744
1134.31388,0.02807
1133.28363,0.02825
1132.25337,0.02794
1131.22311,0.02760
1130.19285,0.02741
1129.16260,0.02768
1128.13234,0.02898
1127.10208,0.03173
1126.07182,0.03547
1125.04156,0.03877
1124.01131,0.03989
1122.98105,0.03832
1121.95079,0.03550
1120.92053,0.03268
1119.89027,0.03035
1118.86002,0.02882
1117.82976,0.02774
1116.79950,0.02678
1115.76924,0.02622
1114.73899,0.02611
1113.70873,0.02613
1112.67847,0.02589
1111.64821,0.02550
1110.61795,0.02523
1109.58770,0.02488
1108.55744,0.02455
1107.52718,0.02437
1106.49692,0.02419
1105.46667,0.02411
1104.43641,0.02401
1103.40615,0.02375
1102.37589,0.02352
1101.34563,0.02349
1100.31538,0.02377
1099.28512,0.02403
1098.25486,0.02399
1097.22460,0.02394
1096.19434,0.02401
1095.16409,0.02421
1094.13383,0.02431
1093.10357,0.02414
1092.07331,0.02414
1091.04306,0.02435
1090.01280,0.02439
1088.98254,0.02413
1087.95228,0.02374
1086.92202,0.02358
1085.89177,0.02367
1084.86151,0.02360
1083.83125,0.02341
1082.80099,0.02340
1081.77073,0.02351
1080.74048,0.02373
1079.71022,0.02414
1078.67996,0.02444
1077.64970,0.02429
1076.61945,0.02381
1075.58919,0.02347
1074.55893,0.02358
1073.52867,0.02378
1072.49841,0.02368
1071.46816,0.02359
1070.43790,0.02380
1069.40764,0.02402
1068.37738,0.02407
1067.34712,0.02408
1066.31687,0.02422
1065.28661,0.02451
1064.25635,0.02470
1063.22609,0.02481
1062.19584,0.02482
1061.16558,0.02456
1060.13532,0.02439
1059.10506,0.02442
1058.07480,0.02429
1057.04455,0.02400
1056.01429,0.02403
1054.98403,0.02436
1053.95377,0.02441
1052.92352,0.02436
1051.89326,0.02457
1050.86300,0.02455
1049.83274,0.02429
1048.80248,0.02411
1047.77223,0.02396
1046.74197,0.02401
1045.71171,0.02412
1044.68145,0.02406
1043.65119,0.02416
1042.62094,0.02442
1041.59068,0.02454
1040.56042,0.02454
1039.53016,0.02442
1038.49991,0.02424
1037.46965,0.02431
1036.43939,0.02462
1035.40913,0.02493
1034.37887,0.02520
1033.34862,0.02532
1032.31836,0.02524
1031.28810,0.02518
1030.25784,0.02535
1029.22758,0.02550
1028.19733,0.02534
1027.16707,0.02494
1026.13681,0.02481
1025.10655,0.02518
1024.07630,0.02543
1023.04604,0.02523
1022.01578,0.02507
1020.98552,0.02529
1019.95526,0.02557
1018.92501,0.02572
1017.89475,0.02582
1016.86449,0.02571
1015.83423,0.02550
1014.80397,0.02562
1013.77372,0.02606
1012.74346,0.02661
1011.71320,0.02698
1010.68294,0.02710
1009.65269,0.02730
1008.62243,0.02761
1007.59217,0.02762
1006.56191,0.02734
1005.53165,0.02726
1004.50140,0.02759
1003.47114,0.02802
1002.44088,0.02824
1001.41062,0.02818
1000.38037,0.02806
999.35011,0.02819
998.31985,0.02834
997.28959,0.02842
996.25933,0.02878
995.22908,0.02923
994.19882,0.02950
993.16856,0.02968
992.13830,0.02971
991.10804,0.02980
990.07779,0.03016
989.04753,0.03057
988.01727,0.03088
986.98701,0.03113
985.95676,0.03142
984.92650,0.03161
983.89624,0.03197
982.86598,0.03271
981.83572,0.03328
980.80547,0.03362
979.77521,0.03404
978.74495,0.03427
977.71469,0.03426
976.68443,0.03444
975.65418,0.03493
974.62392,0.03573
973.59366,0.03678
972.56340,0.03772
971.53315,0.03853
970.50289,0.03937
969.47263,0.04023
968.44237,0.04120
967.41211,0.04212
966.38186,0.04290
965.35160,0.04400
964.32134,0.04595
963.29108,0.04855
962.26082,0.05113
961.23057,0.05386
960.20031,0.05734
959.17005,0.06184
958.13979,0.06782
957.10954,0.07602
956.07928,0.08703
955.04902,0.10148
954.01876,0.12063
952.98850,0.14459
951.95825,0.16985
950.92799,0.19152
949.89773,0.20800
948.86747,0.22122
947.83722,0.23292
946.80696,0.24178
945.77670,0.24229
944.74644,0.23002
943.71618,0.20906
942.68593,0.18802
941.65567,0.17187
940.62541,0.16127
939.59515,0.15546
938.56489,0.15332
937.53464,0.15276
936.50438,0.15181
935.47412,0.14952
934.44386,0.14508
933.41361,0.13783
932.38335,0.12812
931.35309,0.11724
930.32283,0.10680
929.29257,0.09793
928.26232,0.09093
927.23206,0.08544
926.20180,0.08143
925.17154,0.07885
924.14128,0.07709
923.11103,0.07599
922.08077,0.07562
921.05051,0.07547
920.02025,0.07553
918.99000,0.07619
917.95974,0.07742
916.92948,0.07900
915.89922,0.08070
914.86896,0.08250
913.83871,0.08452
912.80845,0.08665
911.77819,0.08890
910.74793,0.09113
909.71768,0.09316
908.68742,0.09523
907.65716,0.09758
906.62690,0.10013
905.59664,0.10252
904.56639,0.10469
903.53613,0.10697
902.50587,0.10919
901.47561,0.11102
900.44535,0.11291
899.41510,0.11509
898.38484,0.11661
897.35458,0.11711
896.32432,0.11756
895.29407,0.11859
894.26381,0.11986
893.23355,0.12075
892.20329,0.12123
891.17303,0.12160
890.14278,0.12173
889.11252,0.12159
888.08226,0.12144
887.05200,0.12126
886.02174,0.12106
884.99149,0.12099
883.96123,0.12101
882.93097,0.12113
881.90071,0.12134
880.87046,0.12146
879.84020,0.12131
878.80994,0.12094
877.77968,0.12077
876.74942,0.12111
875.71917,0.12174
874.68891,0.12227
873.65865,0.12249
872.62839,0.12253
871.59813,0.12279
870.56788,0.12346
869.53762,0.12429
868.50736,0.12473
867.47710,0.12473
866.44685,0.12485
865.41659,0.12530
864.38633,0.12583
863.35607,0.12615
862.32581,0.12641
861.29556,0.12710
860.26530,0.12829
859.23504,0.12936
858.20478,0.12958
857.17453,0.12938
856.14427,0.12980
855.11401,0.13068
854.08375,0.13107
853.05349,0.13092
852.02324,0.13088
850.99298,0.13082
849.96272,0.13056
848.93246,0.13057
847.90220,0.13063
846.87195,0.13051
845.84169,0.13037
844.81143,0.12998
843.78117,0.12907
842.75092,0.12775
841.72066,0.12690
840.69040,0.12709
839.66014,0.12709
838.62988,0.12574
837.59963,0.12380
836.56937,0.12223
835.53911,0.12126
834.50885,0.12058
833.47859,0.11971
832.44834,0.11894
831.41808,0.11818
830.38782,0.11686
829.35756,0.11562
828.32731,0.11469
827.29705,0.11356
826.26679,0.11246
825.23653,0.11116
824.20627,0.10956
823.17602,0.10852
822.14576,0.10819
821.11550,0.10778
820.08524,0.10673
819.05498,0.10565
818.02473,0.10497
816.99447,0.10425
815.96421,0.10341
814.93395,0.10281
813.90370,0.10255
812.87344,0.10210
811.84318,0.10114
810.81292,0.10012
809.78266,0.09941
808.75241,0.09907
807.72215,0.09900
806.69189,0.09885
805.66163,0.09856
804.63138,0.09824
803.60112,0.09840
802.57086,0.09923
801.54060,0.09975
800.51034,0.09920
799.48009,0.09834
798.44983,0.09853
797.41957,0.09961
796.38931,0.10022
795.35905,0.10024
794.32880,0.10040
793.29854,0.10094
792.26828,0.10201
791.23802,0.10348
790.20777,0.10467
789.17751,0.10524
788.14725,0.10577
787.11699,0.10701
786.08673,0.10897
785.05648,0.11073
784.02622,0.11144
782.99596,0.11181
781.96570,0.11299
780.93544,0.11492
779.90519,0.11696
778.87493,0.11874
777.84467,0.12077
776.81441,0.12368
775.78416,0.12689
774.75390,0.12983
773.72364,0.13284
772.69338,0.13607
771.66312,0.13964
770.63287,0.14402
769.60261,0.14902
768.57235,0.15409
767.54209,0.15887
766.51183,0.16266
765.48158,0.16546
764.45132,0.16809
763.42106,0.17094
762.39080,0.17423
761.36055,0.17909
760.33029,0.18673
759.30003,0.19706
758.26977,0.20835
757.23951,0.21754
756.20926,0.22180
755.17900,0.22098
754.14874,0.21700
753.11848,0.21130
752.08823,0.20510
751.05797,0.19923
750.02771,0.19393
748.99745,0.18912
747.96719,0.18441
746.93694,0.18016
745.90668,0.17706
744.87642,0.17469
743.84616,0.17233
742.81590,0.17040
741.78565,0.16893
740.75539,0.16711
739.72513,0.16526
738.69487,0.16369
737.66462,0.16179
736.63436,0.15945
735.60410,0.15776
734.57384,0.15694
733.54358,0.15555
732.51333,0.15339
731.48307,0.15163
730.45281,0.15050
729.42255,0.14924
728.39229,0.14773
727.36204,0.14665
726.33178,0.14624
725.30152,0.14597
724.27126,0.14538
723.24101,0.14439
722.21075,0.14326
721.18049,0.14271
720.15023,0.14243
719.11997,0.14166
718.08972,0.14094
717.05946,0.14046
716.02920,0.14001
714.99894,0.13948
713.96868,0.13885
712.93843,0.13866
711.90817,0.13860
710.87791,0.13824
709.84765,0.13803
708.81740,0.13783
707.78714,0.13758
706.75688,0.13782
705.72662,0.13827
704.69636,0.13828
703.66611,0.13781
702.63585,0.13732
701.60559,0.13739
700.57533,0.13771
699.54508,0.13776
698.51482,0.13802
697.48456,0.13816
696.45430,0.13795
695.42404,0.13817
694.39379,0.13877
693.36353,0.13921
692.33327,0.13931
691.30301,0.13923
690.27275,0.13926
689.24250,0.13973
688.21224,0.14084
687.18198,0.14227
686.15172,0.14348
685.12147,0.14419
684.09121,0.14434
683.06095,0.14434
682.03069,0.14493
681.00043,0.14588
679.97018,0.14653
678.93992,0.14725
677.90966,0.14850
676.87940,0.14998
675.84914,0.15101
674.81889,0.15161
673.78863,0.15224
672.75837,0.15297
671.72811,0.15381
670.69786,0.15441
669.66760,0.15419
668.63734,0.15247
667.60708,0.14987
666.57682,0.15016
665.54657,0.15164
664.51631,0.15290
663.48605,0.15327
662.45579,0.15327
661.42553,0.15343
660.39528,0.15348
659.36502,0.15392
658.33476,0.15540
657.30450,0.15765
656.27425,0.16015
655.24399,0.16238
654.21373,0.16491
653.18347,0.16833
652.15321,0.17171
651.12296,0.17484
650.09270,0.17796
649.06244,0.18149
648.03218,0.18659
647.00193,0.19316
645.97167,0.19969
644.94141,0.20533
643.91115,0.21084
642.88089,0.21748
641.85064,0.22468
640.82038,0.23115
639.79012,0.23813
638.75986,0.24688
637.72960,0.25613
636.69935,0.26509
635.66909,0.27363
634.63883,0.28141
633.60857,0.28936
632.57832,0.29773
631.54806,0.30483
630.51780,0.31120
629.48754,0.31910
628.45728,0.32734
627.42703,0.33330
626.39677,0.33744
625.36651,0.34184
624.33625,0.34545
623.30599,0.34692
622.27574,0.34795
621.24548,0.34939
620.21522,0.35085
619.18496,0.35200
618.15471,0.35156
617.12445,0.34926
616.09419,0.34669
615.06393,0.34300
614.03367,0.33713
613.00342,0.33152
611.97316,0.32826
610.94290,0.32562
609.91264,0.32230
608.88238,0.31889
607.85213,0.31559
606.82187,0.31318
605.79161,0.31073
604.76135,0.30664
603.73110,0.30106
602.70084,0.29460
601.67058,0.28924
600.64032,0.28578
599.61006,0.28209
598.57981,0.27777
597.54955,0.27403
596.51929,0.27002
595.48903,0.26519
594.45878,0.26056
593.42852,0.25656
592.39826,0.25235
591.36800,0.24776
590.33774,0.24371
589.30749,0.23917
588.27723,0.23424
587.24697,0.23107
586.21671,0.22848
585.18645,0.22450
584.15620,0.21987
583.12594,0.21575
582.09568,0.21231
581.06542,0.20859
580.03517,0.20507
579.00491,0.20284
577.97465,0.19985
576.94439,0.19462
575.91413,0.18877
574.88388,0.18450
573.85362,0.18213
572.82336,0.17967
571.79310,0.17557
570.76284,0.17123
569.73259,0.16780
568.70233,0.16440
567.67207,0.16127
566.64181,0.15872
565.61156,0.15550
564.58130,0.15131
563.55104,0.14807
562.52078,0.14657
561.49052,0.14552
560.46027,0.14383
559.43001,0.14134
558.39975,0.13913
557.36949,0.13716
556.33924,0.13434
555.30898,0.13196
554.27872,0.13107
553.24846,0.12976
552.21820,0.12727
551.18795,0.12474
550.15769,0.12139
549.12743,0.11712
548.09717,0.11451
547.06691,0.11422
546.03666,0.11393
545.00640,0.11263
543.97614,0.11121
542.94588,0.11031
541.91563,0.11008
540.88537,0.10857
539.85511,0.10496
538.82485,0.10246
537.79459,0.10214
536.76434,0.10201
535.73408,0.10086
534.70382,0.09898
533.67356,0.09724
532.64330,0.09608
531.61305,0.09564
530.58279,0.09510
529.55253,0.09421
528.52227,0.09412
527.49202,0.09522
526.46176,0.09726
525.43150,0.10025
524.40124,0.10376
523.37098,0.10777
522.34073,0.11319
521.31047,0.12004
520.28021,0.12836
519.24995,0.14004
518.21969,0.15606
517.18944,0.17553
516.15918,0.19792
515.12892,0.22306
514.09866,0.24754
513.06841,0.26391
512.03815,0.26795
511.00789,0.26121
509.97763,0.24896
508.94737,0.23492
507.91712,0.21799
506.88686,0.19849
505.85660,0.18176
504.82634,0.17046
503.79609,0.16170
502.76583,0.15492
501.73557,0.15259
500.70531,0.15497
499.67505,0.16159
498.64480,0.17238
497.61454,0.18755
496.58428,0.20860
495.55402,0.23715
494.52376,0.27297
493.49351,0.30882
492.46325,0.33061
491.43299,0.32819
490.40273,0.30489
489.37248,0.27195
488.34222,0.23903
487.31196,0.21101
486.28170,0.18878
485.25144,0.17183
484.22119,0.15704
483.19093,0.14353
482.16067,0.13604
481.13041,0.13452
480.10015,0.13516
479.06990,0.13880
478.03964,0.14625
477.00938,0.15622
475.97912,0.16773
474.94887,0.17835
473.91861,0.18682
472.88835,0.19964
471.85809,0.22355
470.82783,0.25344
469.79758,0.28605
468.76732,0.32248
467.73706,0.36026
466.70680,0.38748
465.67654,0.39254
464.64629,0.37471
463.61603,0.33931
462.58577,0.29781
461.55551,0.25992
460.52526,0.23029
459.49500,0.20932
458.46474,0.19211
457.43448,0.17367
456.40422,0.15543
455.37397,0.14061
454.34371,0.13070
453.31345,0.12432
452.28319,0.11889
451.25294,0.11487
450.22268,0.11109
449.19242,0.10654
448.16216,0.10246
447.13190,0.09827
446.10165,0.09301
445.07139,0.08899
444.04113,0.08759
443.01087,0.08653
441.98061,0.08479
440.95036,0.08263
439.92010,0.08063
438.88984,0.07898
437.85958,0.07622
436.82933,0.07239
435.79907,0.07021
434.76881,0.07159
433.73855,0.07229
432.70829,0.06864
431.67804,0.06419
430.64778,0.06247
429.61752,0.06430
428.58726,0.06807
427.55700,0.06837
426.52675,0.06434
425.49649,0.06012
424.46623,0.05743
423.43597,0.05835
422.40572,0.06214
421.37546,0.06355
420.34520,0.06140
419.31494,0.05764
418.28468,0.05628
417.25443,0.05542
416.22417,0.05363
415.19391,0.05369
414.16365,0.05532
413.13339,0.05887
412.10314,0.06410
411.07288,0.06785
410.04262,0.06986
409.01236,0.07060
407.98211,0.06969
406.95185,0.06860
405.92159,0.07060
404.89133,0.07534
403.86107,0.07854
402.83082,0.08055
401.80056,0.08335
400.77030,0.08721
399.74004,0.09767
