4998.81105,0.00220
4997.78079,0.00233
4996.75054,0.00202
4995.72028,0.00152
4994.69002,0.00165
4993.65976,0.00231
4992.62951,0.00211
4991.59925,0.00145
4990.56899,0.00138
4989.53873,0.00124
4988.50847,0.00052
4987.47822,-0.00031
4986.44796,-0.00030
4985.41770,0.00072
4984.38744,0.00112
4983.35718,0.00078
4982.32693,0.00111
4981.29667,0.00216
4980.26641,0.00271
4979.23615,0.00235
4978.20590,0.00183
4977.17564,0.00083
4976.14538,-0.00051
4975.11512,-0.00011
4974.08486,0.00165
4973.05461,0.00239
4972.02435,0.00193
4970.99409,0.00121
4969.96383,0.00103
4968.93357,0.00174
4967.90332,0.00300
4966.87306,0.00381
4965.84280,0.00318
4964.81254,0.00185
4963.78229,0.00130
4962.75203,0.00172
4961.72177,0.00194
4960.69151,0.00172
4959.66125,0.00147
4958.63100,0.00080
4957.60074,0.00047
4956.57048,0.00137
4955.54022,0.00238
4954.50997,0.00247
4953.47971,0.00222
4952.44945,0.00227
4951.41919,0.00227
4950.38893,0.00199
4949.35868,0.00195
4948.32842,0.00199
4947.29816,0.00190
4946.26790,0.00178
4945.23764,0.00101
4944.20739,-0.00007
4943.17713,-0.00017
4942.14687,0.00031
4941.11661,0.00037
4940.08636,0.00048
4939.05610,0.00068
4938.02584,0.00057
4936.99558,0.00046
4935.96532,0.00003
4934.93507,-0.00083
4933.90481,-0.00116
4932.87455,-0.00043
4931.84429,0.00078
4930.81403,0.00176
4929.78378,0.00222
4928.75352,0.00170
4927.72326,0.00068
4926.69300,0.00082
4925.66275,0.00180
4924.63249,0.00215
4923.60223,0.00151
4922.57197,0.00065
4921.54171,0.00074
4920.51146,0.00154
4919.48120,0.00248
4918.45094,0.00324
4917.42068,0.00283
4916.39042,0.00189
4915.36017,0.00195
4914.32991,0.00232
4913.29965,0.00192
4912.26939,0.00151
4911.23914,0.00171
4910.20888,0.00185
4909.17862,0.00159
4908.14836,0.00117
4907.11810,0.00087
4906.08785,0.00081
4905.05759,0.00107
4904.02733,0.00177
4902.99707,0.00249
4901.96682,0.00274
4900.93656,0.00202
4899.90630,0.00063
4898.87604,-0.00031
4897.84578,-0.00049
4896.81553,-0.00044
4895.78527,-0.00035
4894.75501,0.00044
4893.72475,0.00151
4892.69449,0.00143
4891.66424,0.00066
4890.63398,0.00085
4889.60372,0.00203
4888.57346,0.00295
4887.54321,0.00286
4886.51295,0.00220
4885.48269,0.00188
4884.45243,0.00192
4883.42217,0.00197
4882.39192,0.00146
4881.36166,0.00042
4880.33140,-0.00014
4879.30114,0.00016
4878.27088,0.00081
4877.24063,0.00128
4876.21037,0.00120
4875.18011,0.00054
4874.14985,0.00029
4873.11960,0.00083
4872.08934,0.00095
4871.05908,0.00061
4870.02882,0.00038
4868.99856,-0.00040
4867.96831,-0.00131
4866.93805,-0.00095
4865.90779,0.00014
4864.87753,0.00117
4863.84727,0.00215
4862.81702,0.00247
4861.78676,0.00208
4860.75650,0.00175
4859.72624,0.00157
4858.69599,0.00105
4857.66573,0.00012
4856.63547,0.00001
4855.60521,0.00106
4854.57495,0.00155
4853.54470,0.00097
4852.51444,0.00051
4851.48418,0.00062
4850.45392,0.00077
4849.42367,0.00037
4848.39341,-0.00021
4847.36315,-0.00054
4846.33289,-0.00095
4845.30263,-0.00097
4844.27238,0.00004
4843.24212,0.00118
4842.21186,0.00138
4841.18160,0.00102
4840.15134,0.00076
4839.12109,0.00083
4838.09083,0.00090
4837.06057,0.00067
4836.03031,0.00096
4835.00006,0.00172
4833.96980,0.00140
4832.93954,0.00040
4831.90928,0.00057
4830.87902,0.00161
4829.84877,0.00185
4828.81851,0.00110
4827.78825,0.00049
4826.75799,0.00055
4825.72773,0.00083
4824.69748,0.00077
4823.66722,0.00042
4822.63696,0.00024
4821.60670,0.00061
4820.57645,0.00088
4819.54619,0.00065
4818.51593,0.00064
4817.48567,0.00037
4816.45541,-0.00043
4815.42516,-0.00072
4814.39490,-0.00028
4813.36464,0.00049
4812.33438,0.00158
4811.30412,0.00242
4810.27387,0.00227
4809.24361,0.00152
4808.21335,0.00076
4807.18309,0.00001
4806.15284,-0.00041
4805.12258,0.00002
4804.09232,0.00117
4803.06206,0.00210
4802.03180,0.00172
4801.00155,0.00070
4799.97129,0.00035
4798.94103,0.00061
4797.91077,0.00115
4796.88052,0.00122
4795.85026,0.00062
4794.82000,0.00064
4793.78974,0.00136
4792.75948,0.00182
4791.72923,0.00180
4790.69897,0.00107
4789.66871,0.00005
4788.63845,-0.00038
4787.60819,-0.00050
4786.57794,-0.00092
4785.54768,-0.00121
4784.51742,-0.00068
4783.48716,0.00007
4782.45691,0.00003
4781.42665,-0.00022
4780.39639,0.00021
4779.36613,0.00098
4778.33587,0.00184
4777.30562,0.00213
4776.27536,0.00161
4775.24510,0.00141
4774.21484,0.00168
4773.18458,0.00188
4772.15433,0.00170
4771.12407,0.00124
4770.09381,0.00090
4769.06355,0.00042
4768.03330,-0.00010
4767.00304,-0.00014
4765.97278,-0.00001
4764.94252,-0.00039
4763.91226,-0.00108
4762.88201,-0.00113
4761.85175,-0.00068
4760.82149,-0.00047
4759.79123,-0.00009
4758.76098,0.00052
4757.73072,0.00089
4756.70046,0.00086
4755.67020,0.00032
4754.63994,-0.00004
4753.60969,0.00039
4752.57943,0.00101
4751.54917,0.00128
4750.51891,0.00133
4749.48865,0.00131
4748.45840,0.00133
4747.42814,0.00158
4746.39788,0.00175
4745.36762,0.00123
4744.33737,0.00051
4743.30711,0.00036
4742.27685,0.00054
4741.24659,0.00034
4740.21633,-0.00006
4739.18608,-0.00002
4738.15582,-0.00000
4737.12556,-0.00037
4736.09530,-0.00093
4735.06504,-0.00141
4734.03479,-0.00139
4733.00453,-0.00096
4731.97427,-0.00044
4730.94401,0.00009
4729.91376,0.00035
4728.88350,0.00015
4727.85324,-0.00008
4726.82298,0.00009
4725.79272,0.00013
4724.76247,-0.00038
4723.73221,-0.00045
4722.70195,0.00013
4721.67169,0.00034
4720.64143,0.00005
4719.61118,-0.00038
4718.58092,-0.00017
4717.55066,0.00103
4716.52040,0.00233
4715.49015,0.00304
4714.45989,0.00267
4713.42963,0.00165
4712.39937,0.00113
4711.36911,0.00103
4710.33886,0.00108
4709.30860,0.00136
4708.27834,0.00137
4707.24808,0.00062
4706.21783,-0.00027
4705.18757,-0.00059
4704.15731,-0.00065
4703.12705,-0.00073
4702.09679,-0.00077
4701.06654,-0.00045
4700.03628,-0.00022
4699.00602,-0.00048
4697.97576,-0.00043
4696.94550,0.00014
4695.91525,0.00090
4694.88499,0.00115
4693.85473,0.00029
4692.82447,-0.00079
4691.79422,-0.00087
4690.76396,0.00027
4689.73370,0.00129
4688.70344,0.00123
4687.67318,0.00113
4686.64293,0.00132
4685.61267,0.00109
4684.58241,0.00077
4683.55215,0.00067
4682.52189,0.00047
4681.49164,0.00050
4680.46138,0.00093
4679.43112,0.00075
4678.40086,0.00006
4677.37061,-0.00010
4676.34035,0.00023
4675.31009,0.00026
4674.27983,0.00040
4673.24957,0.00145
4672.21932,0.00226
4671.18906,0.00225
4670.15880,0.00193
4669.12854,0.00096
4668.09828,0.00036
4667.06803,0.00076
4666.03777,0.00077
4665.00751,0.00038
4663.97725,0.00083
4662.94700,0.00158
4661.91674,0.00127
4660.88648,0.00067
4659.85622,0.00113
4658.82596,0.00184
4657.79571,0.00167
4656.76545,0.00098
4655.73519,0.00056
4654.70493,0.00046
4653.67468,0.00041
4652.64442,0.00058
4651.61416,0.00065
4650.58390,0.00036
4649.55364,0.00013
4648.52339,-0.00005
4647.49313,0.00022
4646.46287,0.00073
4645.43261,0.00038
4644.40235,-0.00061
4643.37210,-0.00118
4642.34184,-0.00055
4641.31158,0.00067
4640.28132,0.00123
4639.25107,0.00101
4638.22081,0.00074
4637.19055,0.00089
4636.16029,0.00089
4635.13003,0.00038
4634.09978,0.00016
4633.06952,0.00051
4632.03926,0.00098
4631.00900,0.00147
4629.97874,0.00155
4628.94849,0.00115
4627.91823,0.00077
4626.88797,0.00038
4625.85771,-0.00000
4624.82746,-0.00013
4623.79720,0.00005
4622.76694,0.00059
4621.73668,0.00070
4620.70642,0.00013
4619.67617,0.00014
4618.64591,0.00074
4617.61565,0.00099
4616.58539,0.00092
4615.55513,0.00062
4614.52488,0.00028
4613.49462,0.00029
4612.46436,0.00053
4611.43410,0.00052
4610.40385,-0.00010
4609.37359,-0.00068
4608.34333,-0.00028
4607.31307,0.00068
4606.28281,0.00120
4605.25256,0.00077
4604.22230,0.00003
4603.19204,0.00019
4602.16178,0.00107
4601.13153,0.00149
4600.10127,0.00123
4599.07101,0.00076
4598.04075,0.00053
4597.01049,0.00057
4595.98024,0.00016
4594.94998,-0.00068
4593.91972,-0.00115
4592.88946,-0.00081
4591.85920,0.00009
4590.82895,0.00075
4589.79869,0.00093
4588.76843,0.00097
4587.73817,0.00086
4586.70792,0.00071
4585.67766,0.00071
4584.64740,0.00053
4583.61714,0.00026
4582.58688,0.00031
4581.55663,0.00047
4580.52637,0.00029
4579.49611,0.00002
4578.46585,0.00010
4577.43559,0.00022
4576.40534,0.00019
4575.37508,0.00034
4574.34482,0.00088
4573.31456,0.00126
4572.28431,0.00096
4571.25405,0.00069
4570.22379,0.00061
4569.19353,0.00038
4568.16327,0.00017
4567.13302,0.00019
4566.10276,0.00043
4565.07250,0.00062
4564.04224,0.00048
4563.01198,-0.00023
4561.98173,-0.00073
4560.95147,-0.00040
4559.92121,0.00021
4558.89095,0.00065
4557.86070,0.00095
4556.83044,0.00097
4555.80018,0.00055
4554.76992,0.00036
4553.73966,0.00063
4552.70941,0.00088
4551.67915,0.00073
4550.64889,-0.00006
4549.61863,-0.00044
4548.58838,0.00013
4547.55812,0.00081
4546.52786,0.00164
4545.49760,0.00188
4544.46734,0.00072
4543.43709,-0.00017
4542.40683,-0.00023
4541.37657,-0.00046
4540.34631,-0.00046
4539.31605,0.00017
4538.28580,0.00054
4537.25554,0.00066
4536.22528,0.00119
4535.19502,0.00134
4534.16477,0.00094
4533.13451,0.00090
4532.10425,0.00089
4531.07399,0.00048
4530.04373,0.00012
4529.01348,0.00032
4527.98322,0.00107
4526.95296,0.00164
4525.92270,0.00163
4524.89244,0.00153
4523.86219,0.00157
4522.83193,0.00154
4521.80167,0.00169
4520.77141,0.00200
4519.74116,0.00180
4518.71090,0.00112
4517.68064,0.00039
4516.65038,0.00012
4515.62012,0.00047
4514.58987,0.00096
4513.55961,0.00100
4512.52935,0.00019
4511.49909,-0.00081
4510.46883,-0.00081
4509.43858,-0.00033
4508.40832,-0.00013
4507.37806,0.00026
4506.34780,0.00044
4505.31755,0.00004
4504.28729,-0.00011
4503.25703,-0.00006
4502.22677,-0.00023
4501.19651,-0.00036
4500.16626,-0.00042
4499.13600,-0.00050
4498.10574,-0.00035
4497.07548,-0.00041
4496.04523,-0.00063
4495.01497,-0.00005
4493.98471,0.00050
4492.95445,0.00026
4491.92419,0.00009
4490.89394,0.00005
4489.86368,-0.00008
4488.83342,-0.00002
4487.80316,0.00036
4486.77290,0.00044
4485.74265,0.00045
4484.71239,0.00081
4483.68213,0.00086
4482.65187,0.00074
4481.62162,0.00060
4480.59136,0.00003
4479.56110,-0.00047
4478.53084,-0.00016
4477.50058,0.00075
4476.47033,0.00160
4475.44007,0.00174
4474.40981,0.00128
4473.37955,0.00120
4472.34929,0.00110
4471.31904,0.00062
4470.28878,0.00072
4469.25852,0.00121
4468.22826,0.00141
4467.19801,0.00091
4466.16775,-0.00027
4465.13749,-0.00076
4464.10723,-0.00001
4463.07697,0.00048
4462.04672,0.00028
4461.01646,0.00030
4459.98620,0.00028
4458.95594,-0.00020
4457.92568,-0.00037
4456.89543,0.00006
4455.86517,0.00031
4454.83491,0.00032
4453.80465,0.00033
4452.77440,0.00024
4451.74414,0.00012
4450.71388,-0.00016
4449.68362,-0.00035
4448.65336,0.00033
4447.62311,0.00140
4446.59285,0.00169
4445.56259,0.00144
4444.53233,0.00139
4443.50208,0.00122
4442.47182,0.00052
4441.44156,-0.00014
4440.41130,-0.00029
4439.38104,-0.00004
4438.35079,0.00026
4437.32053,0.00014
4436.29027,-0.00014
4435.26001,-0.00033
4434.22975,-0.00061
4433.19950,-0.00055
4432.16924,0.00015
4431.13898,0.00103
4430.10872,0.00133
4429.07847,0.00103
4428.04821,0.00092
4427.01795,0.00097
4425.98769,0.00065
4424.95743,0.00030
4423.92718,0.00046
4422.89692,0.00091
4421.86666,0.00108
4420.83640,0.00088
4419.80614,0.00054
4418.77589,0.00043
4417.74563,0.00077
4416.71537,0.00136
4415.68511,0.00148
4414.65486,0.00089
4413.62460,0.00067
4412.59434,0.00086
4411.56408,0.00087
4410.53382,0.00081
4409.50357,0.00074
4408.47331,0.00081
4407.44305,0.00076
4406.41279,0.00052
4405.38253,0.00035
4404.35228,0.00006
4403.32202,-0.00009
4402.29176,0.00032
4401.26150,0.00080
4400.23125,0.00079
4399.20099,0.00053
4398.17073,0.00026
4397.14047,-0.00005
4396.11021,0.00014
4395.07996,0.00116
4394.04970,0.00159
4393.01944,0.00084
4391.98918,0.00021
4390.95893,0.00020
4389.92867,0.00040
4388.89841,0.00077
4387.86815,0.00097
4386.83789,0.00086
4385.80764,0.00094
4384.77738,0.00133
4383.74712,0.00177
4382.71686,0.00163
4381.68660,0.00103
4380.65635,0.00079
4379.62609,0.00094
4378.59583,0.00100
4377.56557,0.00069
4376.53532,0.00023
4375.50506,0.00003
4374.47480,0.00017
4373.44454,0.00034
4372.41428,0.00026
4371.38403,0.00018
4370.35377,0.00029
4369.32351,0.00052
4368.29325,0.00084
4367.26299,0.00108
4366.23274,0.00103
4365.20248,0.00069
4364.17222,0.00065
4363.14196,0.00106
4362.11171,0.00133
4361.08145,0.00140
4360.05119,0.00159
4359.02093,0.00188
4357.99067,0.00194
4356.96042,0.00156
4355.93016,0.00079
4354.89990,0.00004
4353.86964,0.00002
4352.83939,0.00087
4351.80913,0.00153
4350.77887,0.00114
4349.74861,0.00071
4348.71835,0.00069
4347.68810,0.00015
4346.65784,-0.00044
4345.62758,-0.00001
4344.59732,0.00101
4343.56706,0.00145
4342.53681,0.00102
4341.50655,0.00030
4340.47629,0.00003
4339.44603,0.00033
4338.41578,0.00056
4337.38552,0.00036
4336.35526,0.00022
4335.32500,0.00046
4334.29474,0.00069
4333.26449,0.00052
4332.23423,0.00001
4331.20397,-0.00004
4330.17371,0.00034
4329.14345,0.00063
4328.11320,0.00089
4327.08294,0.00097
4326.05268,0.00087
4325.02242,0.00096
4323.99217,0.00094
4322.96191,0.00085
4321.93165,0.00097
4320.90139,0.00090
4319.87113,0.00061
4318.84088,0.00055
4317.81062,0.00079
4316.78036,0.00099
4315.75010,0.00096
4314.71984,0.00071
4313.68959,0.00060
4312.65933,0.00076
4311.62907,0.00062
4310.59881,0.00054
4309.56856,0.00111
4308.53830,0.00149
4307.50804,0.00104
4306.47778,0.00029
4305.44752,-0.00011
4304.41727,0.00012
4303.38701,0.00065
4302.35675,0.00104
4301.32649,0.00128
4300.29624,0.00118
4299.26598,0.00074
4298.23572,0.00067
4297.20546,0.00104
4296.17520,0.00125
4295.14495,0.00147
4294.11469,0.00162
4293.08443,0.00133
4292.05417,0.00103
4291.02391,0.00086
4289.99366,0.00054
4288.96340,0.00032
4287.93314,0.00011
4286.90288,-0.00032
4285.87263,-0.00040
4284.84237,-0.00009
4283.81211,0.00018
4282.78185,0.00036
4281.75159,0.00052
4280.72134,0.00056
4279.69108,0.00035
4278.66082,0.00031
4277.63056,0.00076
4276.60030,0.00100
4275.57005,0.00054
4274.53979,0.00003
4273.50953,0.00010
4272.47927,0.00058
4271.44902,0.00118
4270.41876,0.00171
4269.38850,0.00175
4268.35824,0.00108
4267.32798,0.00043
4266.29773,0.00042
4265.26747,0.00058
4264.23721,0.00078
4263.20695,0.00122
4262.17669,0.00151
4261.14644,0.00141
4260.11618,0.00119
4259.08592,0.00115
4258.05566,0.00091
4257.02541,0.00052
4255.99515,0.00058
4254.96489,0.00081
4253.93463,0.00092
4252.90437,0.00133
4251.87412,0.00174
4250.84386,0.00161
4249.81360,0.00128
4248.78334,0.00122
4247.75309,0.00158
4246.72283,0.00205
4245.69257,0.00219
4244.66231,0.00210
4243.63205,0.00164
4242.60180,0.00106
4241.57154,0.00093
4240.54128,0.00097
4239.51102,0.00090
4238.48076,0.00103
4237.45051,0.00112
4236.42025,0.00099
4235.38999,0.00122
4234.35973,0.00167
4233.32948,0.00184
4232.29922,0.00176
4231.26896,0.00172
4230.23870,0.00186
4229.20844,0.00168
4228.17819,0.00102
4227.14793,0.00064
4226.11767,0.00075
4225.08741,0.00080
4224.05715,0.00080
4223.02690,0.00107
4221.99664,0.00141
4220.96638,0.00149
4219.93612,0.00155
4218.90587,0.00171
4217.87561,0.00145
4216.84535,0.00109
4215.81509,0.00110
4214.78483,0.00124
4213.75458,0.00142
4212.72432,0.00143
4211.69406,0.00115
4210.66380,0.00079
4209.63354,0.00054
4208.60329,0.00041
4207.57303,0.00043
4206.54277,0.00080
4205.51251,0.00110
4204.48226,0.00100
4203.45200,0.00105
4202.42174,0.00111
4201.39148,0.00084
4200.36122,0.00094
4199.33097,0.00109
4198.30071,0.00069
4197.27045,0.00073
4196.24019,0.00126
4195.20994,0.00119
4194.17968,0.00062
4193.14942,0.00029
4192.11916,0.00024
4191.08890,0.00034
4190.05865,0.00059
4189.02839,0.00076
4187.99813,0.00083
4186.96787,0.00094
4185.93761,0.00103
4184.90736,0.00110
4183.87710,0.00149
4182.84684,0.00179
4181.81658,0.00131
4180.78633,0.00092
4179.75607,0.00116
4178.72581,0.00121
4177.69555,0.00099
4176.66529,0.00103
4175.63504,0.00126
4174.60478,0.00119
4173.57452,0.00082
4172.54426,0.00070
4171.51400,0.00125
4170.48375,0.00185
4169.45349,0.00170
4168.42323,0.00128
4167.39297,0.00144
4166.36272,0.00169
4165.33246,0.00140
4164.30220,0.00111
4163.27194,0.00124
4162.24168,0.00146
4161.21143,0.00141
4160.18117,0.00142
4159.15091,0.00161
4158.12065,0.00132
4157.09039,0.00067
4156.06014,0.00027
4155.02988,0.00031
4153.99962,0.00072
4152.96936,0.00125
4151.93911,0.00170
4150.90885,0.00177
4149.87859,0.00143
4148.84833,0.00131
4147.81807,0.00174
4146.78782,0.00218
4145.75756,0.00211
4144.72730,0.00175
4143.69704,0.00155
4142.66679,0.00155
4141.63653,0.00153
4140.60627,0.00147
4139.57601,0.00136
4138.54575,0.00138
4137.51550,0.00176
4136.48524,0.00202
4135.45498,0.00179
4134.42472,0.00173
4133.39446,0.00171
4132.36421,0.00124
4131.33395,0.00111
4130.30369,0.00164
4129.27343,0.00198
4128.24318,0.00177
4127.21292,0.00143
4126.18266,0.00108
4125.15240,0.00089
4124.12214,0.00092
4123.09189,0.00102
4122.06163,0.00137
4121.03137,0.00184
4120.00111,0.00212
4118.97085,0.00214
4117.94060,0.00189
4116.91034,0.00142
4115.88008,0.00088
4114.84982,0.00066
4113.81957,0.00091
4112.78931,0.00113
4111.75905,0.00110
4110.72879,0.00090
4109.69853,0.00074
4108.66828,0.00090
4107.63802,0.00124
4106.60776,0.00163
4105.57750,0.00186
4104.54724,0.00155
4103.51699,0.00112
4102.48673,0.00135
4101.45647,0.00184
4100.42621,0.00189
4099.39596,0.00198
4098.36570,0.00243
4097.33544,0.00243
4096.30518,0.00193
4095.27492,0.00174
4094.24467,0.00182
4093.21441,0.00158
4092.18415,0.00125
4091.15389,0.00119
4090.12364,0.00125
4089.09338,0.00147
4088.06312,0.00161
4087.03286,0.00142
4086.00260,0.00158
4084.97235,0.00224
4083.94209,0.00233
4082.91183,0.00162
4081.88157,0.00127
4080.85131,0.00156
4079.82106,0.00161
4078.79080,0.00124
4077.76054,0.00108
4076.73028,0.00105
4075.70003,0.00113
4074.66977,0.00158
4073.63951,0.00151
4072.60925,0.00092
4071.57899,0.00093
4070.54874,0.00170
4069.51848,0.00257
4068.48822,0.00280
4067.45796,0.00245
4066.42770,0.00224
4065.39745,0.00226
4064.36719,0.00228
4063.33693,0.00237
4062.30667,0.00236
4061.27642,0.00208
4060.24616,0.00165
4059.21590,0.00162
4058.18564,0.00204
4057.15538,0.00219
4056.12513,0.00193
4055.09487,0.00174
4054.06461,0.00184
4053.03435,0.00201
4052.00409,0.00222
4050.97384,0.00246
4049.94358,0.00243
4048.91332,0.00224
4047.88306,0.00223
4046.85281,0.00250
4045.82255,0.00255
4044.79229,0.00225
4043.76203,0.00190
4042.73177,0.00160
4041.70152,0.00181
4040.67126,0.00231
4039.64100,0.00230
4038.61074,0.00193
4037.58049,0.00167
4036.55023,0.00164
4035.51997,0.00168
4034.48971,0.00155
4033.45945,0.00173
4032.42920,0.00239
4031.39894,0.00278
4030.36868,0.00264
4029.33842,0.00219
4028.30816,0.00195
4027.27791,0.00225
4026.24765,0.00253
4025.21739,0.00250
4024.18713,0.00244
4023.15688,0.00223
4022.12662,0.00177
4021.09636,0.00184
4020.06610,0.00254
4019.03584,0.00283
4018.00559,0.00248
4016.97533,0.00224
4015.94507,0.00247
4014.91481,0.00298
4013.88455,0.00352
4012.85430,0.00374
4011.82404,0.00333
4010.79378,0.00263
4009.76352,0.00234
4008.73327,0.00233
4007.70301,0.00196
4006.67275,0.00165
4005.64249,0.00183
4004.61223,0.00237
4003.58198,0.00282
4002.55172,0.00247
4001.52146,0.00196
4000.49120,0.00224
3999.46095,0.00271
3998.43069,0.00271
3997.40043,0.00243
3996.37017,0.00216
3995.33991,0.00216
3994.30966,0.00254
3993.27940,0.00263
3992.24914,0.00213
3991.21888,0.00177
3990.18862,0.00175
3989.15837,0.00179
3988.12811,0.00202
3987.09785,0.00224
3986.06759,0.00208
3985.03734,0.00202
3984.00708,0.00256
3982.97682,0.00300
3981.94656,0.00286
3980.91630,0.00267
3979.88605,0.00253
3978.85579,0.00243
3977.82553,0.00254
3976.79527,0.00268
3975.76501,0.00259
3974.73476,0.00217
3973.70450,0.00196
3972.67424,0.00246
3971.64398,0.00313
3970.61373,0.00359
3969.58347,0.00383
3968.55321,0.00340
3967.52295,0.00235
3966.49269,0.00170
3965.46244,0.00171
3964.43218,0.00178
3963.40192,0.00181
3962.37166,0.00203
3961.34140,0.00217
3960.31115,0.00205
3959.28089,0.00199
3958.25063,0.00205
3957.22037,0.00215
3956.19012,0.00242
3955.15986,0.00267
3954.12960,0.00254
3953.09934,0.00228
3952.06908,0.00228
3951.03883,0.00225
3950.00857,0.00206
3948.97831,0.00203
3947.94805,0.00190
3946.91780,0.00172
3945.88754,0.00187
3944.85728,0.00203
3943.82702,0.00176
3942.79676,0.00137
3941.76651,0.00169
3940.73625,0.00229
3939.70599,0.00254
3938.67573,0.00275
3937.64547,0.00255
3936.61522,0.00199
3935.58496,0.00186
3934.55470,0.00188
3933.52444,0.00175
3932.49419,0.00157
3931.46393,0.00165
3930.43367,0.00215
3929.40341,0.00254
3928.37315,0.00241
3927.34290,0.00215
3926.31264,0.00207
3925.28238,0.00179
3924.25212,0.00147
3923.22186,0.00170
3922.19161,0.00203
3921.16135,0.00197
3920.13109,0.00150
3919.10083,0.00089
3918.07058,0.00068
3917.04032,0.00115
3916.01006,0.00170
3914.97980,0.00198
3913.94954,0.00252
3912.91929,0.00283
3911.88903,0.00231
3910.85877,0.00196
3909.82851,0.00213
3908.79825,0.00193
3907.76800,0.00148
3906.73774,0.00139
3905.70748,0.00167
3904.67722,0.00194
3903.64697,0.00176
3902.61671,0.00155
3901.58645,0.00197
3900.55619,0.00246
3899.52593,0.00241
3898.49568,0.00208
3897.46542,0.00179
3896.43516,0.00172
3895.40490,0.00175
3894.37465,0.00163
3893.34439,0.00194
3892.31413,0.00238
3891.28387,0.00202
3890.25361,0.00183
3889.22336,0.00202
3888.19310,0.00181
3887.16284,0.00127
3886.13258,0.00080
3885.10232,0.00098
3884.07207,0.00134
3883.04181,0.00132
3882.01155,0.00128
3880.98129,0.00135
3879.95104,0.00184
3878.92078,0.00226
3877.89052,0.00200
3876.86026,0.00192
3875.83000,0.00208
3874.79975,0.00170
3873.76949,0.00156
3872.73923,0.00223
3871.70897,0.00281
3870.67871,0.00295
3869.64846,0.00285
3868.61820,0.00273
3867.58794,0.00235
3866.55768,0.00181
3865.52743,0.00144
3864.49717,0.00125
3863.46691,0.00111
3862.43665,0.00123
3861.40639,0.00172
3860.37614,0.00222
3859.34588,0.00234
3858.31562,0.00196
3857.28536,0.00127
3856.25510,0.00090
3855.22485,0.00136
3854.19459,0.00201
3853.16433,0.00181
3852.13407,0.00210
3851.10382,0.00260
3850.07356,0.00236
3849.04330,0.00175
3848.01304,0.00152
3846.98278,0.00184
3845.95253,0.00212
3844.92227,0.00188
3843.89201,0.00137
3842.86175,0.00119
3841.83150,0.00130
3840.80124,0.00177
3839.77098,0.00254
3838.74072,0.00305
3837.71046,0.00297
3836.68021,0.00217
3835.64995,0.00122
3834.61969,0.00110
3833.58943,0.00179
3832.55917,0.00214
3831.52892,0.00196
3830.49866,0.00197
3829.46840,0.00216
3828.43814,0.00194
3827.40789,0.00143
3826.37763,0.00134
3825.34737,0.00179
3824.31711,0.00203
3823.28685,0.00175
3822.25660,0.00156
3821.22634,0.00195
3820.19608,0.00239
3819.16582,0.00236
3818.13556,0.00218
3817.10531,0.00203
3816.07505,0.00149
3815.04479,0.00075
3814.01453,0.00101
3812.98428,0.00201
3811.95402,0.00273
3810.92376,0.00278
3809.89350,0.00237
3808.86324,0.00203
3807.83299,0.00209
3806.80273,0.00215
3805.77247,0.00212
3804.74221,0.00227
3803.71195,0.00240
3802.68170,0.00226
3801.65144,0.00182
3800.62118,0.00222
3799.59092,0.00331
3798.56067,0.00362
3797.53041,0.00318
3796.50015,0.00279
3795.46989,0.00283
3794.43963,0.00276
3793.40938,0.00244
3792.37912,0.00231
3791.34886,0.00238
3790.31860,0.00246
3789.28835,0.00253
3788.25809,0.00240
3787.22783,0.00200
3786.19757,0.00175
3785.16731,0.00190
3784.13706,0.00225
3783.10680,0.00236
3782.07654,0.00208
3781.04628,0.00202
3780.01602,0.00255
3778.98577,0.00298
3777.95551,0.00272
3776.92525,0.00240
3775.89499,0.00222
3774.86474,0.00204
3773.83448,0.00205
3772.80422,0.00236
3771.77396,0.00267
3770.74370,0.00283
3769.71345,0.00286
3768.68319,0.00277
3767.65293,0.00256
3766.62267,0.00217
3765.59241,0.00183
3764.56216,0.00204
3763.53190,0.00251
3762.50164,0.00272
3761.47138,0.00242
3760.44113,0.00153
3759.41087,0.00112
3758.38061,0.00219
3757.35035,0.00320
3756.32009,0.00326
3755.28984,0.00321
3754.25958,0.00330
3753.22932,0.00336
3752.19906,0.00342
3751.16880,0.00321
3750.13855,0.00263
3749.10829,0.00222
3748.07803,0.00250
3747.04777,0.00297
3746.01752,0.00342
3744.98726,0.00317
3743.95700,0.00190
3742.92674,0.00231
3741.89648,0.00343
3740.86623,0.00403
3739.83597,0.00416
3738.80571,0.00403
3737.77545,0.00398
3736.74520,0.00429
3735.71494,0.00473
3734.68468,0.00538
3733.65442,0.00588
3732.62416,0.00545
3731.59391,0.00468
3730.56365,0.00474
3729.53339,0.00512
3728.50313,0.00508
3727.47287,0.00466
3726.44262,0.00423
3725.41236,0.00440
3724.38210,0.00532
3723.35184,0.00592
3722.32159,0.00573
3721.29133,0.00543
3720.26107,0.00539
3719.23081,0.00577
3718.20055,0.00647
3717.17030,0.00665
3716.14004,0.00606
3715.10978,0.00543
3714.07952,0.00535
3713.04926,0.00576
3712.01901,0.00658
3710.98875,0.00707
3709.95849,0.00687
3708.92823,0.00699
3707.89798,0.00739
3706.86772,0.00750
3705.83746,0.00779
3704.80720,0.00812
3703.77694,0.00789
3702.74669,0.00761
3701.71643,0.00772
3700.68617,0.00764
3699.65591,0.00762
3698.62565,0.00817
3697.59540,0.00899
3696.56514,0.00928
3695.53488,0.00903
3694.50462,0.00893
3693.47437,0.00891
3692.44411,0.00883
3691.41385,0.00934
3690.38359,0.01035
3689.35333,0.01108
3688.32308,0.01185
3687.29282,0.01247
3686.26256,0.01206
3685.23230,0.01142
3684.20205,0.01166
3683.17179,0.01231
3682.14153,0.01278
3681.11127,0.01349
3680.08101,0.01434
3679.05076,0.01479
3678.02050,0.01501
3676.99024,0.01530
3675.95998,0.01543
3674.92972,0.01562
3673.89947,0.01674
3672.86921,0.01803
3671.83895,0.01879
3670.80869,0.01918
3669.77844,0.01987
3668.74818,0.02076
3667.71792,0.02116
3666.68766,0.02128
3665.65740,0.02177
3664.62715,0.02303
3663.59689,0.02432
3662.56663,0.02487
3661.53637,0.02537
3660.50611,0.02611
3659.47586,0.02677
3658.44560,0.02759
3657.41534,0.02828
3656.38508,0.02843
3655.35483,0.02901
3654.32457,0.03036
3653.29431,0.03152
3652.26405,0.03199
3651.23379,0.03226
3650.20354,0.03354
3649.17328,0.03516
3648.14302,0.03591
3647.11276,0.03604
3646.08250,0.03624
3645.05225,0.03705
3644.02199,0.03796
3642.99173,0.03869
3641.96147,0.03979
3640.93122,0.04115
3639.90096,0.04193
3638.87070,0.04209
3637.84044,0.04241
3636.81018,0.04338
3635.77993,0.04476
3634.74967,0.04585
3633.71941,0.04615
3632.68915,0.04636
3631.65890,0.04718
3630.62864,0.04818
3629.59838,0.04900
3628.56812,0.04970
3627.53786,0.05045
3626.50761,0.05123
3625.47735,0.05178
3624.44709,0.05249
3623.41683,0.05399
3622.38657,0.05553
3621.35632,0.05603
3620.32606,0.05603
3619.29580,0.05682
3618.26554,0.05848
3617.23529,0.05968
3616.20503,0.06007
3615.17477,0.06063
3614.14451,0.06142
3613.11425,0.06185
3612.08400,0.06235
3611.05374,0.06355
3610.02348,0.06477
3608.99322,0.06527
3607.96296,0.06581
3606.93271,0.06689
3605.90245,0.06808
3604.87219,0.06932
3603.84193,0.07033
3602.81168,0.07054
3601.78142,0.07066
3600.75116,0.07151
3599.72090,0.07260
3598.69064,0.07356
3597.66039,0.07466
3596.63013,0.07588
3595.59987,0.07659
3594.56961,0.07722
3593.53936,0.07851
3592.50910,0.08005
3591.47884,0.08131
3590.44858,0.08208
3589.41832,0.08260
3588.38807,0.08336
3587.35781,0.08415
3586.32755,0.08479
3585.29729,0.08570
3584.26703,0.08692
3583.23678,0.08837
3582.20652,0.08961
3581.17626,0.09032
3580.14600,0.09086
3579.11575,0.09177
3578.08549,0.09320
3577.05523,0.09456
3576.02497,0.09557
3574.99471,0.09645
3573.96446,0.09723
3572.93420,0.09828
3571.90394,0.09984
3570.87368,0.10116
3569.84342,0.10176
3568.81317,0.10218
3567.78291,0.10312
3566.75265,0.10458
3565.72239,0.10620
3564.69214,0.10784
3563.66188,0.10912
3562.63162,0.10978
3561.60136,0.10992
3560.57110,0.11026
3559.54085,0.11163
3558.51059,0.11345
3557.48033,0.11472
3556.45007,0.11582
3555.41981,0.11708
3554.38956,0.11788
3553.35930,0.11846
3552.32904,0.11921
3551.29878,0.12025
3550.26853,0.12189
3549.23827,0.12361
3548.20801,0.12518
3547.17775,0.12663
3546.14749,0.12761
3545.11724,0.12853
3544.08698,0.12957
3543.05672,0.13049
3542.02646,0.13166
3540.99621,0.13303
3539.96595,0.13432
3538.93569,0.13559
3537.90543,0.13665
3536.87517,0.13785
3535.84492,0.13934
3534.81466,0.14016
3533.78440,0.14056
3532.75414,0.14161
3531.72388,0.14305
3530.69363,0.14420
3529.66337,0.14509
3528.63311,0.14600
3527.60285,0.14726
3526.57260,0.14872
3525.54234,0.15002
3524.51208,0.15115
3523.48182,0.15211
3522.45156,0.15320
3521.42131,0.15459
3520.39105,0.15619
3519.36079,0.15811
3518.33053,0.15970
3517.30027,0.16023
3516.27002,0.16050
3515.23976,0.16139
3514.20950,0.16240
3513.17924,0.16320
3512.14899,0.16417
3511.11873,0.16495
3510.08847,0.16562
3509.05821,0.16695
3508.02795,0.16853
3506.99770,0.16992
3505.96744,0.17094
3504.93718,0.17155
3503.90692,0.17248
3502.87666,0.17364
3501.84641,0.17452
3500.81615,0.17539
3499.78589,0.17633
3498.75563,0.17749
3497.72538,0.17898
3496.69512,0.18032
3495.66486,0.18117
3494.63460,0.18197
3493.60434,0.18300
3492.57409,0.18441
3491.54383,0.18601
3490.51357,0.18703
3489.48331,0.18771
3488.45306,0.18861
3487.42280,0.18921
3486.39254,0.18969
3485.36228,0.19071
3484.33202,0.19224
3483.30177,0.19354
3482.27151,0.19421
3481.24125,0.19495
3480.21099,0.19624
3479.18073,0.19765
3478.15048,0.19889
3477.12022,0.20045
3476.08996,0.20230
3475.05970,0.20361
3474.02945,0.20421
3472.99919,0.20487
3471.96893,0.20581
3470.93867,0.20645
3469.90841,0.20688
3468.87816,0.20776
3467.84790,0.20903
3466.81764,0.21054
3465.78738,0.21216
3464.75712,0.21332
3463.72687,0.21407
3462.69661,0.21520
3461.66635,0.21659
3460.63609,0.21741
3459.60584,0.21775
3458.57558,0.21866
3457.54532,0.22053
3456.51506,0.22197
3455.48480,0.22253
3454.45455,0.22343
3453.42429,0.22468
3452.39403,0.22572
3451.36377,0.22649
3450.33351,0.22710
3449.30326,0.22797
3448.27300,0.22956
3447.24274,0.23159
3446.21248,0.23294
3445.18223,0.23343
3444.15197,0.23411
3443.12171,0.23511
3442.09145,0.23586
3441.06119,0.23645
3440.03094,0.23711
3439.00068,0.23833
3437.97042,0.23986
3436.94016,0.24097
3435.90991,0.24172
3434.87965,0.24216
3433.84939,0.24271
3432.81913,0.24390
3431.78887,0.24534
3430.75862,0.24649
3429.72836,0.24742
3428.69810,0.24838
3427.66784,0.24947
3426.63758,0.25068
3425.60733,0.25198
3424.57707,0.25311
3423.54681,0.25387
3422.51655,0.25480
3421.48630,0.25570
3420.45604,0.25603
3419.42578,0.25661
3418.39552,0.25771
3417.36526,0.25909
3416.33501,0.26069
3415.30475,0.26151
3414.27449,0.26156
3413.24423,0.26216
3412.21397,0.26343
3411.18372,0.26459
3410.15346,0.26547
3409.12320,0.26635
3408.09294,0.26706
3407.06269,0.26771
3406.03243,0.26837
3405.00217,0.26875
3403.97191,0.26910
3402.94165,0.26963
3401.91140,0.27003
3400.88114,0.27007
3399.85088,0.27011
3398.82062,0.27089
3397.79036,0.27250
3396.76011,0.27376
3395.72985,0.27404
3394.69959,0.27445
3393.66933,0.27537
3392.63908,0.27612
3391.60882,0.27666
3390.57856,0.27707
3389.54830,0.27749
3388.51804,0.27818
3387.48779,0.27888
3386.45753,0.27903
3385.42727,0.27903
3384.39701,0.27939
3383.36676,0.27982
3382.33650,0.28054
3381.30624,0.28140
3380.27598,0.28181
3379.24572,0.28188
3378.21547,0.28153
3377.18521,0.28116
3376.15495,0.28145
3375.12469,0.28209
3374.09443,0.28263
3373.06418,0.28281
3372.03392,0.28270
3371.00366,0.28265
3369.97340,0.28232
3368.94315,0.28148
3367.91289,0.28089
3366.88263,0.28146
3365.85237,0.28272
3364.82211,0.28348
3363.79186,0.28358
3362.76160,0.28367
3361.73134,0.28397
3360.70108,0.28409
3359.67082,0.28388
3358.64057,0.28403
3357.61031,0.28499
3356.58005,0.28557
3355.54979,0.28499
3354.51954,0.28376
3353.48928,0.28263
3352.45902,0.28216
3351.42876,0.28212
3350.39850,0.28271
3349.36825,0.28415
3348.33799,0.28511
3347.30773,0.28469
3346.27747,0.28348
3345.24721,0.28258
3344.21696,0.28263
3343.18670,0.28279
3342.15644,0.28243
3341.12618,0.28212
3340.09593,0.28212
3339.06567,0.28218
3338.03541,0.28179
3337.00515,0.28103
3335.97489,0.28082
3334.94464,0.28111
3333.91438,0.28132
3332.88412,0.28130
3331.85386,0.28099
3330.82361,0.28078
3329.79335,0.28071
3328.76309,0.28048
3327.73283,0.28024
3326.70257,0.27980
3325.67232,0.27935
3324.64206,0.27932
3323.61180,0.27929
3322.58154,0.27897
3321.55128,0.27860
3320.52103,0.27815
3319.49077,0.27751
3318.46051,0.27691
3317.43025,0.27665
3316.40000,0.27674
3315.36974,0.27708
3314.33948,0.27733
3313.30922,0.27723
3312.27896,0.27687
3311.24871,0.27621
3310.21845,0.27558
3309.18819,0.27587
3308.15793,0.27700
3307.12767,0.27729
3306.09742,0.27620
3305.06716,0.27506
3304.03690,0.27455
3303.00664,0.27441
3301.97639,0.27462
3300.94613,0.27518
3299.91587,0.27578
3298.88561,0.27602
3297.85535,0.27576
3296.82510,0.27539
3295.79484,0.27538
3294.76458,0.27592
3293.73432,0.27631
3292.70406,0.27595
3291.67381,0.27551
3290.64355,0.27540
3289.61329,0.27508
3288.58303,0.27413
3287.55278,0.27327
3286.52252,0.27316
3285.49226,0.27339
3284.46200,0.27368
3283.43174,0.27405
3282.40149,0.27437
3281.37123,0.27434
3280.34097,0.27401
3279.31071,0.27357
3278.28046,0.27322
3277.25020,0.27311
3276.21994,0.27311
3275.18968,0.27341
3274.15942,0.27378
3273.12917,0.27348
3272.09891,0.27272
3271.06865,0.27213
3270.03839,0.27193
3269.00813,0.27188
3267.97788,0.27184
3266.94762,0.27194
3265.91736,0.27182
3264.88710,0.27146
3263.85685,0.27133
3262.82659,0.27148
3261.79633,0.27173
3260.76607,0.27138
3259.73581,0.27053
3258.70556,0.27050
3257.67530,0.27104
3256.64504,0.27100
3255.61478,0.27058
3254.58452,0.27015
3253.55427,0.26956
3252.52401,0.26916
3251.49375,0.26911
3250.46349,0.26880
3249.43324,0.26826
3248.40298,0.26790
3247.37272,0.26743
3246.34246,0.26674
3245.31220,0.26594
3244.28195,0.26536
3243.25169,0.26545
3242.22143,0.26558
3241.19117,0.26491
3240.16092,0.26407
3239.13066,0.26390
3238.10040,0.26379
3237.07014,0.26285
3236.03988,0.26161
3235.00963,0.26063
3233.97937,0.25993
3232.94911,0.25972
3231.91885,0.25968
3230.88859,0.25941
3229.85834,0.25896
3228.82808,0.25831
3227.79782,0.25760
3226.76756,0.25688
3225.73731,0.25612
3224.70705,0.25543
3223.67679,0.25477
3222.64653,0.25420
3221.61627,0.25394
3220.58602,0.25378
3219.55576,0.25325
3218.52550,0.25232
3217.49524,0.25103
3216.46498,0.24963
3215.43473,0.24877
3214.40447,0.24787
3213.37421,0.24646
3212.34395,0.24564
3211.31370,0.24560
3210.28344,0.24531
3209.25318,0.24437
3208.22292,0.24331
3207.19266,0.24229
3206.16241,0.24116
3205.13215,0.24009
3204.10189,0.23917
3203.07163,0.23820
3202.04137,0.23714
3201.01112,0.23640
3199.98086,0.23581
3198.95060,0.23477
3197.92034,0.23354
3196.89009,0.23289
3195.85983,0.23262
3194.82957,0.23153
3193.79931,0.22951
3192.76905,0.22782
3191.73880,0.22670
3190.70854,0.22542
3189.67828,0.22412
3188.64802,0.22328
3187.61777,0.22257
3186.58751,0.22200
3185.55725,0.22170
3184.52699,0.22094
3183.49673,0.21949
3182.46648,0.21783
3181.43622,0.21643
3180.40596,0.21539
3179.37570,0.21413
3178.34544,0.21253
3177.31519,0.21127
3176.28493,0.21065
3175.25467,0.20997
3174.22441,0.20898
3173.19416,0.20784
3172.16390,0.20643
3171.13364,0.20482
3170.10338,0.20332
3169.07312,0.20223
3168.04287,0.20137
3167.01261,0.20035
3165.98235,0.19901
3164.95209,0.19757
3163.92183,0.19656
3162.89158,0.19569
3161.86132,0.19426
3160.83106,0.19264
3159.80080,0.19164
3158.77055,0.19115
3157.74029,0.19033
3156.71003,0.18910
3155.67977,0.18753
3154.64951,0.18584
3153.61926,0.18485
3152.58900,0.18443
3151.55874,0.18371
3150.52848,0.18243
3149.49822,0.18098
3148.46797,0.17977
3147.43771,0.17906
3146.40745,0.17871
3145.37719,0.17787
3144.34694,0.17608
3143.31668,0.17402
3142.28642,0.17245
3141.25616,0.17137
3140.22590,0.17063
3139.19565,0.17013
3138.16539,0.16913
3137.13513,0.16738
3136.10487,0.16562
3135.07462,0.16442
3134.04436,0.16376
3133.01410,0.16320
3131.98384,0.16227
3130.95358,0.16128
3129.92333,0.16043
3128.89307,0.15935
3127.86281,0.15818
3126.83255,0.15708
3125.80229,0.15591
3124.77204,0.15451
3123.74178,0.15298
3122.71152,0.15183
3121.68126,0.15099
3120.65101,0.14997
3119.62075,0.14882
3118.59049,0.14758
3117.56023,0.14637
3116.52997,0.14539
3115.49972,0.14454
3114.46946,0.14382
3113.43920,0.14296
3112.40894,0.14168
3111.37868,0.14038
3110.34843,0.13943
3109.31817,0.13859
3108.28791,0.13766
3107.25765,0.13661
3106.22740,0.13546
3105.19714,0.13428
3104.16688,0.13329
3103.13662,0.13269
3102.10636,0.13221
3101.07611,0.13161
3100.04585,0.13086
3099.01559,0.12965
3097.98533,0.12812
3096.95507,0.12660
3095.92482,0.12550
3094.89456,0.12526
3093.86430,0.12496
3092.83404,0.12392
3091.80379,0.12284
3090.77353,0.12181
3089.74327,0.12066
3088.71301,0.11979
3087.68275,0.11905
3086.65250,0.11829
3085.62224,0.11753
3084.59198,0.11656
3083.56172,0.11563
3082.53147,0.11491
3081.50121,0.11431
3080.47095,0.11379
3079.44069,0.11312
3078.41043,0.11231
3077.38018,0.11157
3076.34992,0.11083
3075.31966,0.10993
3074.28940,0.10897
3073.25914,0.10808
3072.22889,0.10737
3071.19863,0.10659
3070.16837,0.10568
3069.13811,0.10484
3068.10786,0.10409
3067.07760,0.10341
3066.04734,0.10262
3065.01708,0.10153
3063.98682,0.10040
3062.95657,0.09955
3061.92631,0.09889
3060.89605,0.09844
3059.86579,0.09821
3058.83553,0.09752
3057.80528,0.09642
3056.77502,0.09563
3055.74476,0.09502
3054.71450,0.09443
3053.68425,0.09405
3052.65399,0.09369
3051.62373,0.09287
3050.59347,0.09156
3049.56321,0.09037
3048.53296,0.08968
3047.50270,0.08949
3046.47244,0.08960
3045.44218,0.08941
3044.41192,0.08883
3043.38167,0.08810
3042.35141,0.08725
3041.32115,0.08646
3040.29089,0.08580
3039.26064,0.08516
3038.23038,0.08456
3037.20012,0.08407
3036.16986,0.08352
3035.13960,0.08275
3034.10935,0.08234
3033.07909,0.08231
3032.04883,0.08181
3031.01857,0.08096
3029.98832,0.08032
3028.95806,0.07974
3027.92780,0.07889
3026.89754,0.07777
3025.86728,0.07682
3024.83703,0.07649
3023.80677,0.07649
3022.77651,0.07622
3021.74625,0.07555
3020.71599,0.07478
3019.68574,0.07418
3018.65548,0.07393
3017.62522,0.07372
3016.59496,0.07328
3015.56471,0.07284
3014.53445,0.07230
3013.50419,0.07135
3012.47393,0.07028
3011.44367,0.06969
3010.41342,0.06940
3009.38316,0.06892
3008.35290,0.06844
3007.32264,0.06811
3006.29238,0.06782
3005.26213,0.06742
3004.23187,0.06689
3003.20161,0.06636
3002.17135,0.06583
3001.14110,0.06548
3000.11084,0.06531
2999.08058,0.06487
2998.05032,0.06413
2997.02006,0.06340
2995.98981,0.06299
2994.95955,0.06293
2993.92929,0.06312
2992.89903,0.06303
2991.86877,0.06239
2990.83852,0.06211
2989.80826,0.06240
2988.77800,0.06248
2987.74774,0.06213
2986.71749,0.06179
2985.68723,0.06158
2984.65697,0.06144
2983.62671,0.06144
2982.59645,0.06145
2981.56620,0.06136
2980.53594,0.06142
2979.50568,0.06152
2978.47542,0.06159
2977.44517,0.06187
2976.41491,0.06243
2975.38465,0.06318
2974.35439,0.06359
2973.32413,0.06360
2972.29388,0.06384
2971.26362,0.06415
2970.23336,0.06427
2969.20310,0.06469
2968.17284,0.06528
2967.14259,0.06560
2966.11233,0.06615
2965.08207,0.06699
2964.05181,0.06765
2963.02156,0.06778
2961.99130,0.06729
2960.96104,0.06686
2959.93078,0.06712
2958.90052,0.06783
2957.87027,0.06838
2956.84001,0.06844
2955.80975,0.06832
2954.77949,0.06822
2953.74923,0.06819
2952.71898,0.06842
2951.68872,0.06870
2950.65846,0.06865
2949.62820,0.06849
2948.59795,0.06840
2947.56769,0.06815
2946.53743,0.06799
2945.50717,0.06833
2944.47691,0.06898
2943.44666,0.06939
2942.41640,0.06934
2941.38614,0.06918
2940.35588,0.06908
2939.32562,0.06898
2938.29537,0.06909
2937.26511,0.06940
2936.23485,0.06972
2935.20459,0.07002
2934.17434,0.07019
2933.14408,0.07024
2932.11382,0.07055
2931.08356,0.07089
2930.05330,0.07088
2929.02305,0.07093
2927.99279,0.07120
2926.96253,0.07136
2925.93227,0.07142
2924.90202,0.07173
2923.87176,0.07204
2922.84150,0.07194
2921.81124,0.07192
2920.78098,0.07236
2919.75073,0.07275
2918.72047,0.07241
2917.69021,0.07135
2916.65995,0.07061
2915.62969,0.07082
2914.59944,0.07097
2913.56918,0.07040
2912.53892,0.06978
2911.50866,0.06929
2910.47841,0.06875
2909.44815,0.06818
2908.41789,0.06758
2907.38763,0.06706
2906.35737,0.06666
2905.32712,0.06625
2904.29686,0.06575
2903.26660,0.06527
2902.23634,0.06490
2901.20608,0.06434
2900.17583,0.06353
2899.14557,0.06300
2898.11531,0.06288
2897.08505,0.06296
2896.05480,0.06301
2895.02454,0.06293
2893.99428,0.06278
2892.96402,0.06265
2891.93376,0.06265
2890.90351,0.06276
2889.87325,0.06296
2888.84299,0.06322
2887.81273,0.06329
2886.78247,0.06316
2885.75222,0.06328
2884.72196,0.06366
2883.69170,0.06389
2882.66144,0.06406
2881.63119,0.06420
2880.60093,0.06394
2879.57067,0.06323
2878.54041,0.06258
2877.51015,0.06225
2876.47990,0.06187
2875.44964,0.06121
2874.41938,0.06014
2873.38912,0.05878
2872.35887,0.05777
2871.32861,0.05711
2870.29835,0.05629
2869.26809,0.05528
2868.23783,0.05422
2867.20758,0.05323
2866.17732,0.05223
2865.14706,0.05105
2864.11680,0.04977
2863.08654,0.04846
2862.05629,0.04724
2861.02603,0.04624
2859.99577,0.04539
2858.96551,0.04456
2857.93526,0.04349
2856.90500,0.04242
2855.87474,0.04171
2854.84448,0.04097
2853.81422,0.03985
2852.78397,0.03861
2851.75371,0.03765
2850.72345,0.03710
2849.69319,0.03681
2848.66293,0.03666
2847.63268,0.03639
2846.60242,0.03579
2845.57216,0.03510
2844.54190,0.03460
2843.51165,0.03429
2842.48139,0.03398
2841.45113,0.03340
2840.42087,0.03283
2839.39061,0.03246
2838.36036,0.03197
2837.33010,0.03141
2836.29984,0.03108
2835.26958,0.03092
2834.23933,0.03067
2833.20907,0.03053
2832.17881,0.03067
2831.14855,0.03069
2830.11829,0.03049
2829.08804,0.03032
2828.05778,0.03006
2827.02752,0.02945
2825.99726,0.02878
2824.96700,0.02837
2823.93675,0.02795
2822.90649,0.02746
2821.87623,0.02717
2820.84597,0.02709
2819.81572,0.02711
2818.78546,0.02699
2817.75520,0.02673
2816.72494,0.02638
2815.69468,0.02588
2814.66443,0.02555
2813.63417,0.02548
2812.60391,0.02537
2811.57365,0.02525
2810.54339,0.02510
2809.51314,0.02458
2808.48288,0.02397
2807.45262,0.02373
2806.42236,0.02376
2805.39211,0.02369
2804.36185,0.02344
2803.33159,0.02330
2802.30133,0.02323
2801.27107,0.02299
2800.24082,0.02268
2799.21056,0.02227
2798.18030,0.02189
2797.15004,0.02176
2796.11978,0.02178
2795.08953,0.02166
2794.05927,0.02119
2793.02901,0.02068
2791.99875,0.02068
2790.96850,0.02082
2789.93824,0.02067
2788.90798,0.02048
2787.87772,0.02014
2786.84746,0.01970
2785.81721,0.01938
2784.78695,0.01892
2783.75669,0.01859
2782.72643,0.01873
2781.69618,0.01887
2780.66592,0.01874
2779.63566,0.01852
2778.60540,0.01839
2777.57514,0.01842
2776.54489,0.01828
2775.51463,0.01778
2774.48437,0.01736
2773.45411,0.01734
2772.42385,0.01744
2771.39360,0.01725
2770.36334,0.01694
2769.33308,0.01696
2768.30282,0.01715
2767.27257,0.01722
2766.24231,0.01716
2765.21205,0.01696
2764.18179,0.01677
2763.15153,0.01676
2762.12128,0.01681
2761.09102,0.01666
2760.06076,0.01634
2759.03050,0.01616
2758.00024,0.01608
2756.96999,0.01596
2755.93973,0.01597
2754.90947,0.01610
2753.87921,0.01603
2752.84896,0.01583
2751.81870,0.01573
2750.78844,0.01571
2749.75818,0.01563
2748.72792,0.01565
2747.69767,0.01577
2746.66741,0.01566
2745.63715,0.01524
2744.60689,0.01488
2743.57663,0.01483
2742.54638,0.01477
2741.51612,0.01458
2740.48586,0.01459
2739.45560,0.01471
2738.42535,0.01448
2737.39509,0.01409
2736.36483,0.01405
2735.33457,0.01424
2734.30431,0.01422
2733.27406,0.01399
2732.24380,0.01375
2731.21354,0.01355
2730.18328,0.01329
2729.15303,0.01325
2728.12277,0.01345
2727.09251,0.01342
2726.06225,0.01319
2725.03199,0.01304
2724.00174,0.01300
2722.97148,0.01308
2721.94122,0.01304
2720.91096,0.01278
2719.88070,0.01248
2718.85045,0.01223
2717.82019,0.01214
2716.78993,0.01218
2715.75967,0.01214
2714.72942,0.01199
2713.69916,0.01191
2712.66890,0.01201
2711.63864,0.01223
2710.60838,0.01227
2709.57813,0.01198
2708.54787,0.01186
2707.51761,0.01207
2706.48735,0.01205
2705.45709,0.01176
2704.42684,0.01150
2703.39658,0.01145
2702.36632,0.01160
2701.33606,0.01160
2700.30581,0.01137
2699.27555,0.01123
2698.24529,0.01116
2697.21503,0.01091
2696.18477,0.01070
2695.15452,0.01068
2694.12426,0.01078
2693.09400,0.01091
2692.06374,0.01084
2691.03348,0.01058
2690.00323,0.01037
2688.97297,0.01033
2687.94271,0.01027
2686.91245,0.01000
2685.88220,0.00983
2684.85194,0.00990
2683.82168,0.00983
2682.79142,0.00960
2681.76116,0.00954
2680.73091,0.00975
2679.70065,0.00989
2678.67039,0.00968
2677.64013,0.00925
2676.60988,0.00896
2675.57962,0.00891
2674.54936,0.00909
2673.51910,0.00937
2672.48884,0.00948
2671.45859,0.00946
2670.42833,0.00962
2669.39807,0.00981
2668.36781,0.00962
2667.33755,0.00932
2666.30730,0.00917
2665.27704,0.00904
2664.24678,0.00902
2663.21652,0.00900
2662.18627,0.00886
2661.15601,0.00884
2660.12575,0.00903
2659.09549,0.00909
2658.06523,0.00889
2657.03498,0.00877
2656.00472,0.00880
2654.97446,0.00881
2653.94420,0.00861
2652.91394,0.00816
2651.88369,0.00789
2650.85343,0.00814
2649.82317,0.00840
2648.79291,0.00827
2647.76266,0.00804
2646.73240,0.00796
2645.70214,0.00796
2644.67188,0.00800
2643.64162,0.00815
2642.61137,0.00822
2641.58111,0.00786
2640.55085,0.00747
2639.52059,0.00750
2638.49033,0.00778
2637.46008,0.00796
2636.42982,0.00781
2635.39956,0.00758
2634.36930,0.00768
2633.33905,0.00780
2632.30879,0.00764
2631.27853,0.00744
2630.24827,0.00747
2629.21801,0.00764
2628.18776,0.00762
2627.15750,0.00744
2626.12724,0.00741
2625.09698,0.00758
2624.06673,0.00770
2623.03647,0.00768
2622.00621,0.00756
2620.97595,0.00731
2619.94569,0.00723
2618.91544,0.00759
2617.88518,0.00784
2616.85492,0.00754
2615.82466,0.00715
2614.79440,0.00727
2613.76415,0.00761
2612.73389,0.00734
2611.70363,0.00671
2610.67337,0.00656
2609.64312,0.00695
2608.61286,0.00726
2607.58260,0.00717
2606.55234,0.00697
2605.52208,0.00688
2604.49183,0.00670
2603.46157,0.00658
2602.43131,0.00672
2601.40105,0.00667
2600.37079,0.00647
2599.34054,0.00651
2598.31028,0.00658
2597.28002,0.00643
2596.24976,0.00625
2595.21951,0.00637
2594.18925,0.00666
2593.15899,0.00660
2592.12873,0.00604
2591.09847,0.00582
2590.06822,0.00657
2589.03796,0.00724
2588.00770,0.00693
2586.97744,0.00649
2585.94718,0.00646
2584.91693,0.00651
2583.88667,0.00637
2582.85641,0.00604
2581.82615,0.00599
2580.79590,0.00644
2579.76564,0.00681
2578.73538,0.00667
2577.70512,0.00635
2576.67486,0.00629
2575.64461,0.00651
2574.61435,0.00661
2573.58409,0.00639
2572.55383,0.00640
2571.52358,0.00674
2570.49332,0.00706
2569.46306,0.00718
2568.43280,0.00685
2567.40254,0.00632
2566.37229,0.00625
2565.34203,0.00666
2564.31177,0.00695
2563.28151,0.00670
2562.25125,0.00639
2561.22100,0.00663
2560.19074,0.00688
2559.16048,0.00684
2558.13022,0.00687
2557.09997,0.00685
2556.06971,0.00659
2555.03945,0.00630
2554.00919,0.00612
2552.97893,0.00590
2551.94868,0.00578
2550.91842,0.00603
2549.88816,0.00641
2548.85790,0.00657
2547.82764,0.00650
2546.79739,0.00615
2545.76713,0.00574
2544.73687,0.00559
2543.70661,0.00564
2542.67636,0.00578
2541.64610,0.00587
2540.61584,0.00594
2539.58558,0.00619
2538.55532,0.00651
2537.52507,0.00650
2536.49481,0.00631
2535.46455,0.00625
2534.43429,0.00628
2533.40403,0.00643
2532.37378,0.00669
2531.34352,0.00684
2530.31326,0.00673
2529.28300,0.00644
2528.25275,0.00644
2527.22249,0.00673
2526.19223,0.00689
2525.16197,0.00684
2524.13171,0.00664
2523.10146,0.00662
2522.07120,0.00704
2521.04094,0.00740
2520.01068,0.00715
2518.98043,0.00648
2517.95017,0.00611
2516.91991,0.00630
2515.88965,0.00684
2514.85939,0.00711
2513.82914,0.00651
2512.79888,0.00574
2511.76862,0.00579
2510.73836,0.00624
2509.70810,0.00649
2508.67785,0.00669
2507.64759,0.00644
2506.61733,0.00571
2505.58707,0.00549
2504.55682,0.00586
2503.52656,0.00606
2502.49630,0.00584
2501.46604,0.00584
2500.43578,0.00639
2499.40553,0.00704
2498.37527,0.00756
2497.34501,0.00777
2496.31475,0.00731
2495.28449,0.00679
2494.25424,0.00681
2493.22398,0.00683
2492.19372,0.00674
2491.16346,0.00687
2490.13321,0.00680
2489.10295,0.00644
2488.07269,0.00623
2487.04243,0.00629
2486.01217,0.00616
2484.98192,0.00597
2483.95166,0.00617
2482.92140,0.00635
2481.89114,0.00648
2480.86088,0.00664
2479.83063,0.00669
2478.80037,0.00706
2477.77011,0.00749
2476.73985,0.00737
2475.70960,0.00731
2474.67934,0.00753
2473.64908,0.00746
2472.61882,0.00752
2471.58856,0.00796
2470.55831,0.00802
2469.52805,0.00758
2468.49779,0.00711
2467.46753,0.00665
2466.43728,0.00642
2465.40702,0.00655
2464.37676,0.00636
2463.34650,0.00586
2462.31624,0.00606
2461.28599,0.00695
2460.25573,0.00755
2459.22547,0.00748
2458.19521,0.00727
2457.16495,0.00743
2456.13470,0.00761
2455.10444,0.00732
2454.07418,0.00709
2453.04392,0.00726
2452.01367,0.00740
2450.98341,0.00734
2449.95315,0.00736
2448.92289,0.00727
2447.89263,0.00695
2446.86238,0.00699
2445.83212,0.00738
2444.80186,0.00759
2443.77160,0.00754
2442.74134,0.00736
2441.71109,0.00715
2440.68083,0.00699
2439.65057,0.00685
2438.62031,0.00694
2437.59006,0.00759
2436.55980,0.00840
2435.52954,0.00864
2434.49928,0.00830
2433.46902,0.00783
2432.43877,0.00773
2431.40851,0.00794
2430.37825,0.00788
2429.34799,0.00766
2428.31774,0.00765
2427.28748,0.00774
2426.25722,0.00759
2425.22696,0.00714
2424.19670,0.00695
2423.16645,0.00721
2422.13619,0.00745
2421.10593,0.00759
2420.07567,0.00780
2419.04541,0.00794
2418.01516,0.00794
2416.98490,0.00791
2415.95464,0.00769
2414.92438,0.00729
2413.89413,0.00713
2412.86387,0.00756
2411.83361,0.00826
2410.80335,0.00857
2409.77309,0.00846
2408.74284,0.00831
2407.71258,0.00820
2406.68232,0.00800
2405.65206,0.00776
2404.62180,0.00769
2403.59155,0.00799
2402.56129,0.00857
2401.53103,0.00907
2400.50077,0.00897
2399.47052,0.00845
2398.44026,0.00807
2397.41000,0.00796
2396.37974,0.00831
2395.34948,0.00890
2394.31923,0.00920
2393.28897,0.00910
2392.25871,0.00875
2391.22845,0.00846
2390.19819,0.00853
2389.16794,0.00877
2388.13768,0.00904
2387.10742,0.00929
2386.07716,0.00945
2385.04691,0.00974
2384.01665,0.01007
2382.98639,0.01023
2381.95613,0.01048
2380.92587,0.01098
2379.89562,0.01136
2378.86536,0.01140
2377.83510,0.01171
2376.80484,0.01253
2375.77459,0.01311
2374.74433,0.01334
2373.71407,0.01398
2372.68381,0.01519
2371.65355,0.01610
2370.62330,0.01598
2369.59304,0.01582
2368.56278,0.01672
2367.53252,0.01777
2366.50226,0.01842
2365.47201,0.01947
2364.44175,0.02090
2363.41149,0.02194
2362.38123,0.02184
2361.35098,0.02070
2360.32072,0.01935
2359.29046,0.01805
2358.26020,0.01702
2357.22994,0.01699
2356.19969,0.01793
2355.16943,0.01865
2354.13917,0.01844
2353.10891,0.01782
2352.07865,0.01752
2351.04840,0.01733
2350.01814,0.01651
2348.98788,0.01571
2347.95762,0.01574
2346.92737,0.01629
2345.89711,0.01693
2344.86685,0.01749
2343.83659,0.01763
2342.80633,0.01717
2341.77608,0.01684
2340.74582,0.01719
2339.71556,0.01767
2338.68530,0.01782
2337.65504,0.01797
2336.62479,0.01823
2335.59453,0.01768
2334.56427,0.01647
2333.53401,0.01585
2332.50376,0.01618
2331.47350,0.01701
2330.44324,0.01760
2329.41298,0.01743
2328.38272,0.01692
2327.35247,0.01659
2326.32221,0.01608
2325.29195,0.01567
2324.26169,0.01577
2323.23144,0.01631
2322.20118,0.01710
2321.17092,0.01698
2320.14066,0.01608
2319.11040,0.01560
2318.08015,0.01528
2317.04989,0.01488
2316.01963,0.01460
2314.98937,0.01441
2313.95911,0.01433
2312.92886,0.01405
2311.89860,0.01365
2310.86834,0.01331
2309.83808,0.01312
2308.80783,0.01363
2307.77757,0.01432
2306.74731,0.01412
2305.71705,0.01324
2304.68679,0.01249
2303.65654,0.01207
2302.62628,0.01206
2301.59602,0.01242
2300.56576,0.01276
2299.53550,0.01276
2298.50525,0.01258
2297.47499,0.01233
2296.44473,0.01233
2295.41447,0.01290
2294.38422,0.01335
2293.35396,0.01313
2292.32370,0.01258
2291.29344,0.01234
2290.26318,0.01272
2289.23293,0.01306
2288.20267,0.01257
2287.17241,0.01202
2286.14215,0.01225
2285.11189,0.01263
2284.08164,0.01243
2283.05138,0.01198
2282.02112,0.01218
2280.99086,0.01226
2279.96061,0.01175
2278.93035,0.01195
2277.90009,0.01262
2276.86983,0.01265
2275.83957,0.01210
2274.80932,0.01178
2273.77906,0.01212
2272.74880,0.01261
2271.71854,0.01278
2270.68829,0.01269
2269.65803,0.01232
2268.62777,0.01209
2267.59751,0.01260
2266.56725,0.01341
2265.53700,0.01379
2264.50674,0.01329
2263.47648,0.01221
2262.44622,0.01188
2261.41596,0.01254
2260.38571,0.01289
2259.35545,0.01268
2258.32519,0.01248
2257.29493,0.01279
2256.26468,0.01305
2255.23442,0.01237
2254.20416,0.01125
2253.17390,0.01056
2252.14364,0.01106
2251.11339,0.01265
2250.08313,0.01398
2249.05287,0.01387
2248.02261,0.01294
2246.99235,0.01278
2245.96210,0.01376
2244.93184,0.01493
2243.90158,0.01507
2242.87132,0.01436
2241.84107,0.01398
2240.81081,0.01382
2239.78055,0.01348
2238.75029,0.01345
2237.72003,0.01344
2236.68978,0.01265
2235.65952,0.01166
2234.62926,0.01175
2233.59900,0.01315
2232.56874,0.01430
2231.53849,0.01425
2230.50823,0.01419
2229.47797,0.01449
2228.44771,0.01451
2227.41746,0.01436
2226.38720,0.01415
2225.35694,0.01386
2224.32668,0.01307
2223.29642,0.01196
2222.26617,0.01159
2221.23591,0.01204
2220.20565,0.01322
2219.17539,0.01455
2218.14514,0.01486
2217.11488,0.01483
2216.08462,0.01543
2215.05436,0.01542
2214.02410,0.01423
2212.99385,0.01392
2211.96359,0.01448
2210.93333,0.01435
2209.90307,0.01386
2208.87281,0.01381
2207.84256,0.01478
2206.81230,0.01615
2205.78204,0.01639
2204.75178,0.01534
2203.72153,0.01421
2202.69127,0.01393
2201.66101,0.01425
2200.63075,0.01491
2199.60049,0.01559
2198.57024,0.01519
2197.53998,0.01355
2196.50972,0.01216
2195.47946,0.01241
2194.44920,0.01395
2193.41895,0.01516
2192.38869,0.01546
2191.35843,0.01517
2190.32817,0.01566
2189.29792,0.01765
2188.26766,0.01830
2187.23740,0.01651
2186.20714,0.01488
2185.17688,0.01410
2184.14663,0.01345
2183.11637,0.01409
2182.08611,0.01548
2181.05585,0.01610
2180.02559,0.01684
2178.99534,0.01814
2177.96508,0.01890
2176.93482,0.01808
2175.90456,0.01677
2174.87431,0.01643
2173.84405,0.01610
2172.81379,0.01474
2171.78353,0.01257
2170.75327,0.01169
2169.72302,0.01332
2168.69276,0.01524
2167.66250,0.01610
2166.63224,0.01552
2165.60199,0.01411
2164.57173,0.01457
2163.54147,0.01465
2162.51121,0.01199
2161.48095,0.01152
2160.45070,0.01482
2159.42044,0.01781
2158.39018,0.01814
2157.35992,0.01643
2156.32966,0.01476
2155.29941,0.01403
2154.26915,0.01461
2153.23889,0.01629
2152.20863,0.01764
2151.17838,0.01835
2150.14812,0.01817
2149.11786,0.01665
2148.08760,0.01528
2147.05734,0.01529
2146.02709,0.01548
2144.99683,0.01472
2143.96657,0.01406
2142.93631,0.01445
2141.90605,0.01532
2140.87580,0.01631
2139.84554,0.01737
2138.81528,0.01830
2137.78502,0.01866
2136.75477,0.01805
2135.72451,0.01714
2134.69425,0.01651
2133.66399,0.01611
2132.63373,0.01596
2131.60348,0.01616
2130.57322,0.01681
2129.54296,0.01753
2128.51270,0.01777
2127.48244,0.01812
2126.45219,0.01877
2125.42193,0.01903
2124.39167,0.01892
2123.36141,0.01837
2122.33116,0.01778
2121.30090,0.01768
2120.27064,0.01741
2119.24038,0.01733
2118.21012,0.01852
2117.17987,0.01980
2116.14961,0.01940
2115.11935,0.01815
2114.08909,0.01829
2113.05884,0.01937
2112.02858,0.01921
2110.99832,0.01809
2109.96806,0.01697
2108.93780,0.01648
2107.90755,0.01747
2106.87729,0.01845
2105.84703,0.01780
2104.81677,0.01703
2103.78651,0.01726
2102.75626,0.01734
2101.72600,0.01712
2100.69574,0.01744
2099.66548,0.01795
2098.63523,0.01779
2097.60497,0.01699
2096.57471,0.01653
2095.54445,0.01641
2094.51419,0.01634
2093.48394,0.01657
2092.45368,0.01666
2091.42342,0.01637
2090.39316,0.01603
2089.36290,0.01575
2088.33265,0.01550
2087.30239,0.01551
2086.27213,0.01526
2085.24187,0.01464
2084.21162,0.01508
2083.18136,0.01626
2082.15110,0.01686
2081.12084,0.01677
2080.09058,0.01670
2079.06033,0.01683
2078.03007,0.01682
2076.99981,0.01653
2075.96955,0.01610
2074.93930,0.01600
2073.90904,0.01643
2072.87878,0.01716
2071.84852,0.01721
2070.81826,0.01666
2069.78801,0.01658
2068.75775,0.01644
2067.72749,0.01567
2066.69723,0.01514
2065.66697,0.01565
2064.63672,0.01601
2063.60646,0.01538
2062.57620,0.01525
2061.54594,0.01598
2060.51569,0.01660
2059.48543,0.01645
2058.45517,0.01586
2057.42491,0.01582
2056.39465,0.01528
2055.36440,0.01409
2054.33414,0.01408
2053.30388,0.01450
2052.27362,0.01445
2051.24336,0.01470
2050.21311,0.01519
2049.18285,0.01559
2048.15259,0.01591
2047.12233,0.01567
2046.09208,0.01492
2045.06182,0.01433
2044.03156,0.01447
2043.00130,0.01535
2041.97104,0.01569
2040.94079,0.01506
2039.91053,0.01450
2038.88027,0.01441
2037.85001,0.01421
2036.81975,0.01297
2035.78950,0.01179
2034.75924,0.01214
2033.72898,0.01234
2032.69872,0.01180
2031.66847,0.01228
2030.63821,0.01428
2029.60795,0.01586
2028.57769,0.01533
2027.54743,0.01458
2026.51718,0.01507
2025.48692,0.01464
2024.45666,0.01178
2023.42640,0.00884
2022.39615,0.00822
2021.36589,0.00915
2020.33563,0.01000
2019.30537,0.01001
2018.27511,0.01028
2017.24486,0.01174
2016.21460,0.01277
2015.18434,0.01297
2014.15408,0.01302
2013.12382,0.01273
2012.09357,0.01309
2011.06331,0.01402
2010.03305,0.01354
2009.00279,0.01171
2007.97254,0.01032
2006.94228,0.01043
2005.91202,0.01131
2004.88176,0.01185
2003.85150,0.01233
2002.82125,0.01251
2001.79099,0.01200
2000.76073,0.01176
1999.73047,0.01159
1998.70021,0.01070
1997.66996,0.00953
1996.63970,0.00917
1995.60944,0.01005
1994.57918,0.01133
1993.54893,0.01173
1992.51867,0.01130
1991.48841,0.01144
1990.45815,0.01195
1989.42789,0.01120
1988.39764,0.00989
1987.36738,0.00979
1986.33712,0.01053
1985.30686,0.01164
1984.27660,0.01267
1983.24635,0.01276
1982.21609,0.01230
1981.18583,0.01162
1980.15557,0.01011
1979.12532,0.00793
1978.09506,0.00754
1977.06480,0.01043
1976.03454,0.01265
1975.00428,0.01107
1973.97403,0.00956
1972.94377,0.01061
1971.91351,0.01176
1970.88325,0.01146
1969.85300,0.00984
1968.82274,0.00891
1967.79248,0.00996
1966.76222,0.01124
1965.73196,0.01153
1964.70171,0.01143
1963.67145,0.01196
1962.64119,0.01333
1961.61093,0.01395
1960.58067,0.01315
1959.55042,0.01245
1958.52016,0.01191
1957.48990,0.01044
1956.45964,0.00885
1955.42939,0.00812
1954.39913,0.00772
1953.36887,0.00759
1952.33861,0.00823
1951.30835,0.00948
1950.27810,0.01042
1949.24784,0.01014
1948.21758,0.00955
1947.18732,0.01007
1946.15706,0.01075
1945.12681,0.01085
1944.09655,0.01120
1943.06629,0.01131
1942.03603,0.01067
1941.00578,0.00986
1939.97552,0.00933
1938.94526,0.00939
1937.91500,0.00998
1936.88474,0.01074
1935.85449,0.01095
1934.82423,0.01132
1933.79397,0.01233
1932.76371,0.01266
1931.73345,0.01226
1930.70320,0.01151
1929.67294,0.01034
1928.64268,0.00970
1927.61242,0.00992
1926.58217,0.01041
1925.55191,0.01087
1924.52165,0.01082
1923.49139,0.01046
1922.46113,0.01077
1921.43088,0.01129
1920.40062,0.01089
1919.37036,0.00969
1918.34010,0.00899
1917.30985,0.00954
1916.27959,0.01019
1915.24933,0.01065
1914.21907,0.01128
1913.18881,0.01120
1912.15856,0.01050
1911.12830,0.01012
1910.09804,0.00993
1909.06778,0.01010
1908.03752,0.01061
1907.00727,0.01053
1905.97701,0.00978
1904.94675,0.00922
1903.91649,0.00917
1902.88624,0.00908
1901.85598,0.00875
1900.82572,0.00871
1899.79546,0.00909
1898.76520,0.00938
1897.73495,0.00932
1896.70469,0.00926
1895.67443,0.00958
1894.64417,0.00975
1893.61391,0.00958
1892.58366,0.00993
1891.55340,0.01025
1890.52314,0.00971
1889.49288,0.00941
1888.46263,0.00971
1887.43237,0.00968
1886.40211,0.00959
1885.37185,0.00959
1884.34159,0.00966
1883.31134,0.00985
1882.28108,0.00966
1881.25082,0.00931
1880.22056,0.00983
1879.19030,0.01068
1878.16005,0.01038
1877.12979,0.00943
1876.09953,0.00908
1875.06927,0.00937
1874.03902,0.00965
1873.00876,0.00950
1871.97850,0.00902
1870.94824,0.00902
1869.91798,0.00942
1868.88773,0.00909
1867.85747,0.00832
1866.82721,0.00848
1865.79695,0.00934
1864.76670,0.00999
1863.73644,0.01039
1862.70618,0.01066
1861.67592,0.01037
1860.64566,0.00980
1859.61541,0.00979
1858.58515,0.00989
1857.55489,0.00953
1856.52463,0.00938
1855.49437,0.00981
1854.46412,0.01046
1853.43386,0.01070
1852.40360,0.01046
1851.37334,0.00999
1850.34309,0.00959
1849.31283,0.00979
1848.28257,0.01029
1847.25231,0.01048
1846.22205,0.01031
1845.19180,0.00989
1844.16154,0.00965
1843.13128,0.00998
1842.10102,0.01016
1841.07076,0.01010
1840.04051,0.01031
1839.01025,0.01059
1837.97999,0.01050
1836.94973,0.01023
1835.91948,0.00997
1834.88922,0.01001
1833.85896,0.01063
1832.82870,0.01129
1831.79844,0.01137
1830.76819,0.01059
1829.73793,0.00951
1828.70767,0.00960
1827.67741,0.01051
1826.64715,0.01113
1825.61690,0.01109
1824.58664,0.01076
1823.55638,0.01076
1822.52612,0.01104
1821.49587,0.01125
1820.46561,0.01124
1819.43535,0.01114
1818.40509,0.01115
1817.37483,0.01128
1816.34458,0.01134
1815.31432,0.01136
1814.28406,0.01163
1813.25380,0.01187
1812.22355,0.01171
1811.19329,0.01162
1810.16303,0.01185
1809.13277,0.01193
1808.10251,0.01187
1807.07226,0.01193
1806.04200,0.01207
1805.01174,0.01239
1803.98148,0.01283
1802.95122,0.01278
1801.92097,0.01236
1800.89071,0.01237
1799.86045,0.01271
1798.83019,0.01304
1797.79994,0.01315
1796.76968,0.01299
1795.73942,0.01305
1794.70916,0.01334
1793.67890,0.01349
1792.64865,0.01363
1791.61839,0.01391
1790.58813,0.01401
1789.55787,0.01386
1788.52761,0.01379
1787.49736,0.01393
1786.46710,0.01412
1785.43684,0.01410
1784.40658,0.01383
1783.37633,0.01383
1782.34607,0.01410
1781.31581,0.01439
1780.28555,0.01472
1779.25529,0.01515
1778.22504,0.01548
1777.19478,0.01549
1776.16452,0.01534
1775.13426,0.01545
1774.10400,0.01567
1773.07375,0.01568
1772.04349,0.01547
1771.01323,0.01530
1769.98297,0.01531
1768.95272,0.01536
1767.92246,0.01558
1766.89220,0.01627
1765.86194,0.01693
1764.83168,0.01717
1763.80143,0.01711
1762.77117,0.01687
1761.74091,0.01669
1760.71065,0.01723
1759.68040,0.01818
1758.65014,0.01876
1757.61988,0.01888
1756.58962,0.01892
1755.55936,0.01910
1754.52911,0.01945
1753.49885,0.01988
1752.46859,0.02007
1751.43833,0.01999
1750.40807,0.02009
1749.37782,0.02035
1748.34756,0.02069
1747.31730,0.02103
1746.28704,0.02130
1745.25679,0.02182
1744.22653,0.02248
1743.19627,0.02264
1742.16601,0.02257
1741.13575,0.02294
1740.10550,0.02365
1739.07524,0.02438
1738.04498,0.02495
1737.01472,0.02523
1735.98446,0.02523
1734.95421,0.02510
1733.92395,0.02528
1732.89369,0.02613
1731.86343,0.02702
1730.83318,0.02782
1729.80292,0.02854
1728.77266,0.02915
1727.74240,0.02967
1726.71214,0.03024
1725.68189,0.03107
1724.65163,0.03185
1723.62137,0.03217
1722.59111,0.03258
1721.56085,0.03334
1720.53060,0.03407
1719.50034,0.03470
1718.47008,0.03507
1717.43982,0.03548
1716.40957,0.03642
1715.37931,0.03755
1714.34905,0.03889
1713.31879,0.04020
1712.28853,0.04113
1711.25828,0.04185
1710.22802,0.04263
1709.19776,0.04352
1708.16750,0.04441
1707.13725,0.04538
1706.10699,0.04657
1705.07673,0.04795
1704.04647,0.04960
1703.01621,0.05104
1701.98596,0.05202
1700.95570,0.05284
1699.92544,0.05414
1698.89518,0.05586
1697.86492,0.05728
1696.83467,0.05826
1695.80441,0.05913
1694.77415,0.06075
1693.74389,0.06274
1692.71364,0.06479
1691.68338,0.06672
1690.65312,0.06836
1689.62286,0.06967
1688.59260,0.07105
1687.56235,0.07289
1686.53209,0.07475
1685.50183,0.07629
1684.47157,0.07798
1683.44131,0.07999
1682.41106,0.08170
1681.38080,0.08346
1680.35054,0.08554
1679.32028,0.08781
1678.29003,0.08986
1677.25977,0.09163
1676.22951,0.09332
1675.19925,0.09529
1674.16899,0.09717
1673.13874,0.09867
1672.10848,0.10029
1671.07822,0.10218
1670.04796,0.10413
1669.01771,0.10627
1667.98745,0.10846
1666.95719,0.11026
1665.92693,0.11196
1664.89667,0.11381
1663.86642,0.11578
1662.83616,0.11768
1661.80590,0.11941
1660.77564,0.12108
1659.74538,0.12286
1658.71513,0.12464
1657.68487,0.12635
1656.65461,0.12788
1655.62435,0.12912
1654.59410,0.13002
1653.56384,0.13029
1652.53358,0.13087
1651.50332,0.13263
1650.47306,0.13426
1649.44281,0.13552
1648.41255,0.13632
1647.38229,0.13681
1646.35203,0.13737
1645.32177,0.13807
1644.29152,0.13881
1643.26126,0.13928
1642.23100,0.13940
1641.20074,0.13946
1640.17049,0.13950
1639.14023,0.13924
1638.10997,0.13862
1637.07971,0.13808
1636.04945,0.13739
1635.01920,0.13586
1633.98894,0.13488
1632.95868,0.13436
1631.92842,0.13352
1630.89816,0.13248
1629.86791,0.13124
1628.83765,0.12970
1627.80739,0.12768
1626.77713,0.12557
1625.74688,0.12386
1624.71662,0.12216
1623.68636,0.11956
1622.65610,0.11660
1621.62584,0.11466
1620.59559,0.11275
1619.56533,0.11069
1618.53507,0.10917
1617.50481,0.10744
1616.47456,0.10399
1615.44430,0.10115
1614.41404,0.09966
1613.38378,0.09799
1612.35352,0.09605
1611.32327,0.09395
1610.29301,0.09162
1609.26275,0.08948
1608.23249,0.08772
1607.20223,0.08583
1606.17198,0.08383
1605.14172,0.08204
1604.11146,0.08044
1603.08120,0.07892
1602.05095,0.07741
1601.02069,0.07581
1599.99043,0.07432
1598.96017,0.07310
1597.92991,0.07188
1596.89966,0.07055
1595.86940,0.06928
1594.83914,0.06821
1593.80888,0.06732
1592.77862,0.06639
1591.74837,0.06528
1590.71811,0.06416
1589.68785,0.06308
1588.65759,0.06215
1587.62734,0.06128
1586.59708,0.06022
1585.56682,0.05921
1584.53656,0.05858
1583.50630,0.05811
1582.47605,0.05745
1581.44579,0.05663
1580.41553,0.05585
1579.38527,0.05521
1578.35501,0.05465
1577.32476,0.05420
1576.29450,0.05345
1575.26424,0.05237
1574.23398,0.05179
1573.20373,0.05144
1572.17347,0.05117
1571.14321,0.05091
1570.11295,0.05021
1569.08269,0.04922
1568.05244,0.04881
1567.02218,0.04866
1565.99192,0.04844
1564.96166,0.04806
1563.93141,0.04761
1562.90115,0.04724
1561.87089,0.04694
1560.84063,0.04663
1559.81037,0.04642
1558.78012,0.04614
1557.74986,0.04524
1556.71960,0.04477
1555.68934,0.04468
1554.65908,0.04447
1553.62883,0.04410
1552.59857,0.04382
1551.56831,0.04355
1550.53805,0.04319
1549.50780,0.04301
1548.47754,0.04301
1547.44728,0.04289
1546.41702,0.04254
1545.38676,0.04192
1544.35651,0.04160
1543.32625,0.04169
1542.29599,0.04148
1541.26573,0.04107
1540.23547,0.04069
1539.20522,0.04052
1538.17496,0.04069
1537.14470,0.04066
1536.11444,0.04045
1535.08419,0.04020
1534.05393,0.03985
1533.02367,0.03963
1531.99341,0.03969
1530.96315,0.03974
1529.93290,0.03975
1528.90264,0.03965
1527.87238,0.03952
1526.84212,0.03951
1525.81186,0.03923
1524.78161,0.03873
1523.75135,0.03860
1522.72109,0.03853
1521.69083,0.03799
1520.66058,0.03741
1519.63032,0.03779
1518.60006,0.03851
1517.56980,0.03868
1516.53954,0.03833
1515.50929,0.03818
1514.47903,0.03807
1513.44877,0.03799
1512.41851,0.03804
1511.38826,0.03808
1510.35800,0.03794
1509.32774,0.03774
1508.29748,0.03763
1507.26722,0.03753
1506.23697,0.03751
1505.20671,0.03801
1504.17645,0.03851
1503.14619,0.03871
1502.11593,0.03869
1501.08568,0.03863
1500.05542,0.03863
1499.02516,0.03860
1497.99490,0.03863
1496.96465,0.03883
1495.93439,0.03909
1494.90413,0.03950
1493.87387,0.04009
1492.84361,0.04082
1491.81336,0.04167
1490.78310,0.04243
1489.75284,0.04325
1488.72258,0.04425
1487.69232,0.04543
1486.66207,0.04749
1485.63181,0.05044
1484.60155,0.05380
1483.57129,0.05730
1482.54104,0.06052
1481.51078,0.06263
1480.48052,0.06298
1479.45026,0.06231
1478.42000,0.06173
1477.38975,0.06166
1476.35949,0.06220
1475.32923,0.06317
1474.29897,0.06411
1473.26871,0.06509
1472.23846,0.06631
1471.20820,0.06770
1470.17794,0.06902
1469.14768,0.07015
1468.11743,0.07104
1467.08717,0.07179
1466.05691,0.07230
1465.02665,0.07236
1463.99639,0.07234
1462.96614,0.07225
1461.93588,0.07169
1460.90562,0.07101
1459.87536,0.07063
1458.84511,0.07044
1457.81485,0.07031
1456.78459,0.06975
1455.75433,0.06894
1454.72407,0.06835
1453.69382,0.06747
1452.66356,0.06609
1451.63330,0.06455
1450.60304,0.06329
1449.57278,0.06223
1448.54253,0.06114
1447.51227,0.06005
1446.48201,0.05911
1445.45175,0.05833
1444.42150,0.05757
1443.39124,0.05647
1442.36098,0.05509
1441.33072,0.05389
1440.30046,0.05301
1439.27021,0.05221
1438.23995,0.05124
1437.20969,0.04971
1436.17943,0.04791
1435.14917,0.04734
1434.11892,0.04715
1433.08866,0.04659
1432.05840,0.04596
1431.02814,0.04545
1429.99789,0.04498
1428.96763,0.04472
1427.93737,0.04458
1426.90711,0.04449
1425.87685,0.04451
1424.84660,0.04426
1423.81634,0.04369
1422.78608,0.04331
1421.75582,0.04309
1420.72556,0.04292
1419.69531,0.04289
1418.66505,0.04303
1417.63479,0.04310
1416.60453,0.04296
1415.57428,0.04290
1414.54402,0.04306
1413.51376,0.04323
1412.48350,0.04324
1411.45324,0.04319
1410.42299,0.04332
1409.39273,0.04362
1408.36247,0.04406
1407.33221,0.04459
1406.30196,0.04518
1405.27170,0.04590
1404.24144,0.04657
1403.21118,0.04682
1402.18092,0.04658
1401.15067,0.04612
1400.12041,0.04570
1399.09015,0.04511
1398.05989,0.04442
1397.02963,0.04405
1395.99938,0.04378
1394.96912,0.04341
1393.93886,0.04325
1392.90860,0.04324
1391.87835,0.04315
1390.84809,0.04299
1389.81783,0.04281
1388.78757,0.04265
1387.75731,0.04262
1386.72706,0.04283
1385.69680,0.04308
1384.66654,0.04313
1383.63628,0.04309
1382.60602,0.04327
1381.57577,0.04366
1380.54551,0.04394
1379.51525,0.04400
1378.48499,0.04401
1377.45474,0.04401
1376.42448,0.04403
1375.39422,0.04425
1374.36396,0.04469
1373.33370,0.04518
1372.30345,0.04574
1371.27319,0.04632
1370.24293,0.04685
1369.21267,0.04760
1368.18241,0.04859
1367.15216,0.04951
1366.12190,0.05049
1365.09164,0.05162
1364.06138,0.05250
1363.03113,0.05319
1362.00087,0.05428
1360.97061,0.05604
1359.94035,0.05807
1358.91009,0.05990
1357.87984,0.06165
1356.84958,0.06365
1355.81932,0.06591
1354.78906,0.06818
1353.75881,0.07038
1352.72855,0.07257
1351.69829,0.07461
1350.66803,0.07615
1349.63777,0.07676
1348.60752,0.07599
1347.57726,0.07366
1346.54700,0.06975
1345.51674,0.06458
1344.48648,0.05927
1343.45623,0.05499
1342.42597,0.05209
1341.39571,0.05007
1340.36545,0.04859
1339.33520,0.04782
1338.30494,0.04758
1337.27468,0.04763
1336.24442,0.04783
1335.21416,0.04789
1334.18391,0.04774
1333.15365,0.04757
1332.12339,0.04746
1331.09313,0.04731
1330.06287,0.04712
1329.03262,0.04674
1328.00236,0.04606
1326.97210,0.04537
1325.94184,0.04508
1324.91159,0.04522
1323.88133,0.04526
1322.85107,0.04496
1321.82081,0.04469
1320.79055,0.04473
1319.76030,0.04498
1318.73004,0.04535
1317.69978,0.04572
1316.66952,0.04624
1315.63927,0.04698
1314.60901,0.04775
1313.57875,0.04854
1312.54849,0.04940
1311.51823,0.05033
1310.48798,0.05135
1309.45772,0.05243
1308.42746,0.05347
1307.39720,0.05445
1306.36694,0.05535
1305.33669,0.05606
1304.30643,0.05653
1303.27617,0.05691
1302.24591,0.05730
1301.21566,0.05771
1300.18540,0.05806
1299.15514,0.05819
1298.12488,0.05798
1297.09462,0.05763
1296.06437,0.05769
1295.03411,0.05809
1294.00385,0.05836
1292.97359,0.05832
1291.94333,0.05790
1290.91308,0.05749
1289.88282,0.05748
1288.85256,0.05759
1287.82230,0.05752
1286.79205,0.05732
1285.76179,0.05703
1284.73153,0.05660
1283.70127,0.05605
1282.67101,0.05549
1281.64076,0.05491
1280.61050,0.05442
1279.58024,0.05404
1278.54998,0.05355
1277.51972,0.05286
1276.48947,0.05227
1275.45921,0.05188
1274.42895,0.05138
1273.39869,0.05076
1272.36844,0.05048
1271.33818,0.05073
1270.30792,0.05105
1269.27766,0.05099
1268.24740,0.05088
1267.21715,0.05118
1266.18689,0.05191
1265.15663,0.05283
1264.12637,0.05382
1263.09612,0.05484
1262.06586,0.05600
1261.03560,0.05715
1260.00534,0.05820
1258.97508,0.05934
1257.94483,0.06041
1256.91457,0.06118
1255.88431,0.06196
1254.85405,0.06290
1253.82379,0.06370
1252.79354,0.06416
1251.76328,0.06448
1250.73302,0.06474
1249.70276,0.06482
1248.67251,0.06476
1247.64225,0.06467
1246.61199,0.06471
1245.58173,0.06469
1244.55147,0.06445
1243.52122,0.06433
1242.49096,0.06439
1241.46070,0.06443
1240.43044,0.06429
1239.40018,0.06384
1238.36993,0.06318
1237.33967,0.06233
1236.30941,0.06099
1235.27915,0.05925
1234.24890,0.05742
1233.21864,0.05559
1232.18838,0.05392
1231.15812,0.05252
1230.12786,0.05114
1229.09761,0.04977
1228.06735,0.04874
1227.03709,0.04800
1226.00683,0.04735
1224.97657,0.04677
1223.94632,0.04631
1222.91606,0.04583
1221.88580,0.04519
1220.85554,0.04454
1219.82529,0.04402
1218.79503,0.04365
1217.76477,0.04346
1216.73451,0.04336
1215.70425,0.04318
1214.67400,0.04276
1213.64374,0.04231
1212.61348,0.04210
1211.58322,0.04204
1210.55297,0.04210
1209.52271,0.04214
1208.49245,0.04196
1207.46219,0.04163
1206.43193,0.04136
1205.40168,0.04124
1204.37142,0.04113
1203.34116,0.04094
1202.31090,0.04092
1201.28064,0.04111
1200.25039,0.04115
1199.22013,0.04098
1198.18987,0.04091
1197.15961,0.04084
1196.12936,0.04083
1195.09910,0.04089
1194.06884,0.04082
1193.03858,0.04077
1192.00832,0.04084
1190.97807,0.04086
1189.94781,0.04100
1188.91755,0.04132
1187.88729,0.04148
1186.85703,0.04140
1185.82678,0.04127
1184.79652,0.04122
1183.76626,0.04117
1182.73600,0.04119
1181.70575,0.04156
1180.67549,0.04214
1179.64523,0.04259
1178.61497,0.04278
1177.58471,0.04285
1176.55446,0.04288
1175.52420,0.04279
1174.49394,0.04270
1173.46368,0.04289
1172.43342,0.04335
1171.40317,0.04389
1170.37291,0.04440
1169.34265,0.04488
1168.31239,0.04547
1167.28214,0.04606
1166.25188,0.04661
1165.22162,0.04741
1164.19136,0.04835
1163.16110,0.04905
1162.13085,0.04984
1161.10059,0.05103
1160.07033,0.05237
1159.04007,0.05388
1158.00982,0.05581
1156.97956,0.05798
1155.94930,0.05988
1154.91904,0.06168
1153.88878,0.06399
1152.85853,0.06666
1151.82827,0.06935
1150.79801,0.07214
1149.76775,0.07510
1148.73749,0.07810
1147.70724,0.08112
1146.67698,0.08420
1145.64672,0.08737
1144.61646,0.09062
1143.58621,0.09362
1142.55595,0.09625
1141.52569,0.09867
1140.49543,0.10087
1139.46517,0.10291
1138.43492,0.10499
1137.40466,0.10708
1136.37440,0.10908
1135.34414,0.11094
1134.31388,0.11232
1133.28363,0.11320
1132.25337,0.11417
1131.22311,0.11548
1130.19285,0.11696
1129.16260,0.11853
1128.13234,0.12008
1127.10208,0.12188
1126.07182,0.12416
1125.04156,0.12631
1124.01131,0.12803
1122.98105,0.13003
1121.95079,0.13286
1120.92053,0.13596
1119.89027,0.13874
1118.86002,0.14134
1117.82976,0.14379
1116.79950,0.14596
1115.76924,0.14819
1114.73899,0.15058
1113.70873,0.15280
1112.67847,0.15503
1111.64821,0.15739
1110.61795,0.15976
1109.58770,0.16250
1108.55744,0.16546
1107.52718,0.16790
1106.49692,0.17002
1105.46667,0.17250
1104.43641,0.17540
1103.40615,0.17830
1102.37589,0.18101
1101.34563,0.18387
1100.31538,0.18684
1099.28512,0.18937
1098.25486,0.19156
1097.22460,0.19361
1096.19434,0.19548
1095.16409,0.19733
1094.13383,0.19899
1093.10357,0.20035
1092.07331,0.20181
1091.04306,0.20357
1090.01280,0.20508
1088.98254,0.20587
1087.95228,0.20626
1086.92202,0.20650
1085.89177,0.20680
1084.86151,0.20730
1083.83125,0.20754
1082.80099,0.20745
1081.77073,0.20702
1080.74048,0.20582
1079.71022,0.20451
1078.67996,0.20352
1077.64970,0.20241
1076.61945,0.20097
1075.58919,0.19913
1074.55893,0.19689
1073.52867,0.19476
1072.49841,0.19324
1071.46816,0.19157
1070.43790,0.18924
1069.40764,0.18669
1068.37738,0.18409
1067.34712,0.18117
1066.31687,0.17789
1065.28661,0.17422
1064.25635,0.17002
1063.22609,0.16587
1062.19584,0.16200
1061.16558,0.15762
1060.13532,0.15262
1059.10506,0.14734
1058.07480,0.14172
1057.04455,0.13634
1056.01429,0.13174
1054.98403,0.12730
1053.95377,0.12268
1052.92352,0.11827
1051.89326,0.11422
1050.86300,0.11037
1049.83274,0.10665
1048.80248,0.10331
1047.77223,0.10088
1046.74197,0.09929
1045.71171,0.09779
1044.68145,0.09621
1043.65119,0.09503
1042.62094,0.09419
1041.59068,0.09347
1040.56042,0.09301
1039.53016,0.09272
1038.49991,0.09228
1037.46965,0.09164
1036.43939,0.09108
1035.40913,0.09070
1034.37887,0.09029
1033.34862,0.08982
1032.31836,0.08936
1031.28810,0.08845
1030.25784,0.08715
1029.22758,0.08622
1028.19733,0.08535
1027.16707,0.08398
1026.13681,0.08259
1025.10655,0.08144
1024.07630,0.08009
1023.04604,0.07838
1022.01578,0.07673
1020.98552,0.07537
1019.95526,0.07408
1018.92501,0.07284
1017.89475,0.07170
1016.86449,0.07048
1015.83423,0.06926
1014.80397,0.06841
1013.77372,0.06767
1012.74346,0.06671
1011.71320,0.06582
1010.68294,0.06516
1009.65269,0.06467
1008.62243,0.06428
1007.59217,0.06396
1006.56191,0.06356
1005.53165,0.06303
1004.50140,0.06257
1003.47114,0.06228
1002.44088,0.06212
1001.41062,0.06199
1000.38037,0.06200
999.35011,0.06217
998.31985,0.06231
997.28959,0.06227
996.25933,0.06233
995.22908,0.06272
994.19882,0.06305
993.16856,0.06304
992.13830,0.06304
991.10804,0.06333
990.07779,0.06362
989.04753,0.06359
988.01727,0.06301
986.98701,0.06240
985.95676,0.06249
984.92650,0.06270
983.89624,0.06261
982.86598,0.06266
981.83572,0.06272
980.80547,0.06260
979.77521,0.06255
978.74495,0.06267
977.71469,0.06292
976.68443,0.06308
975.65418,0.06293
974.62392,0.06292
973.59366,0.06325
972.56340,0.06387
971.53315,0.06483
970.50289,0.06583
969.47263,0.06678
968.44237,0.06784
967.41211,0.06889
966.38186,0.07024
965.35160,0.07249
964.32134,0.07520
963.29108,0.07755
962.26082,0.08001
961.23057,0.08344
960.20031,0.08759
959.17005,0.09199
958.13979,0.09678
957.10954,0.10181
956.07928,0.10710
955.04902,0.11269
954.01876,0.11802
952.98850,0.12293
951.95825,0.12755
950.92799,0.13150
949.89773,0.13417
948.86747,0.13555
947.83722,0.13635
946.80696,0.13661
945.77670,0.13563
944.74644,0.13356
943.71618,0.13080
942.68593,0.12733
941.65567,0.12399
940.62541,0.12143
939.59515,0.11924
938.56489,0.11710
937.53464,0.11484
936.50438,0.11260
935.47412,0.11059
934.44386,0.10890
933.41361,0.10765
932.38335,0.10661
931.35309,0.10543
930.32283,0.10399
929.29257,0.10271
928.26232,0.10195
927.23206,0.10133
926.20180,0.10079
925.17154,0.10036
924.14128,0.09974
923.11103,0.09923
922.08077,0.09927
921.05051,0.09945
920.02025,0.09912
918.99000,0.09856
917.95974,0.09845
916.92948,0.09844
915.89922,0.09810
914.86896,0.09779
913.83871,0.09765
912.80845,0.09760
911.77819,0.09763
910.74793,0.09767
909.71768,0.09766
908.68742,0.09754
907.65716,0.09747
906.62690,0.09755
905.59664,0.09747
904.56639,0.09726
903.53613,0.09751
902.50587,0.09808
901.47561,0.09869
900.44535,0.09949
899.41510,0.09994
898.38484,0.09981
897.35458,0.10004
896.32432,0.10117
895.29407,0.10262
894.26381,0.10397
893.23355,0.10533
892.20329,0.10670
891.17303,0.10796
890.14278,0.10905
889.11252,0.11030
888.08226,0.11188
887.05200,0.11317
886.02174,0.11389
884.99149,0.11460
883.96123,0.11553
882.93097,0.11626
881.90071,0.11667
880.87046,0.11680
879.84020,0.11666
878.80994,0.11695
877.77968,0.11801
876.74942,0.11904
875.71917,0.11961
874.68891,0.12012
873.65865,0.12072
872.62839,0.12127
871.59813,0.12203
870.56788,0.12315
869.53762,0.12430
868.50736,0.12530
867.47710,0.12628
866.44685,0.12718
865.41659,0.12791
864.38633,0.12896
863.35607,0.13063
862.32581,0.13246
861.29556,0.13390
860.26530,0.13494
859.23504,0.13598
858.20478,0.13750
857.17453,0.13901
856.14427,0.14025
855.11401,0.14197
854.08375,0.14409
853.05349,0.14573
852.02324,0.14694
850.99298,0.14847
849.96272,0.15043
848.93246,0.15267
847.90220,0.15455
846.87195,0.15539
845.84169,0.15606
844.81143,0.15747
843.78117,0.15928
842.75092,0.16105
841.72066,0.16260
840.69040,0.16390
839.66014,0.16549
838.62988,0.16753
837.59963,0.16925
836.56937,0.17050
835.53911,0.17167
834.50885,0.17274
833.47859,0.17345
832.44834,0.17391
831.41808,0.17468
830.38782,0.17562
829.35756,0.17649
828.32731,0.17799
827.29705,0.18001
826.26679,0.18155
825.23653,0.18199
824.20627,0.18179
823.17602,0.18201
822.14576,0.18302
821.11550,0.18436
820.08524,0.18546
819.05498,0.18618
818.02473,0.18693
816.99447,0.18808
815.96421,0.18925
814.93395,0.19041
813.90370,0.19172
812.87344,0.19291
811.84318,0.19414
810.81292,0.19579
809.78266,0.19712
808.75241,0.19749
807.72215,0.19780
806.69189,0.19899
805.66163,0.20031
804.63138,0.20129
803.60112,0.20282
802.57086,0.20463
801.54060,0.20589
800.51034,0.20704
799.48009,0.20800
798.44983,0.20835
797.41957,0.20906
796.38931,0.21080
795.35905,0.21240
794.32880,0.21303
793.29854,0.21369
792.26828,0.21530
791.23802,0.21696
790.20777,0.21766
789.17751,0.21817
788.14725,0.21934
787.11699,0.22080
786.08673,0.22228
785.05648,0.22391
784.02622,0.22576
782.99596,0.22747
781.96570,0.22847
780.93544,0.22921
779.90519,0.23051
778.87493,0.23240
777.84467,0.23429
776.81441,0.23567
775.78416,0.23685
774.75390,0.23828
773.72364,0.23961
772.69338,0.24075
771.66312,0.24220
770.63287,0.24413
769.60261,0.24624
768.57235,0.24796
767.54209,0.24946
766.51183,0.25137
765.48158,0.25337
764.45132,0.25537
763.42106,0.25766
762.39080,0.25990
761.36055,0.26186
760.33029,0.26389
759.30003,0.26565
758.26977,0.26695
757.23951,0.26903
756.20926,0.27150
755.17900,0.27269
754.14874,0.27319
753.11848,0.27393
752.08823,0.27475
751.05797,0.27557
750.02771,0.27637
748.99745,0.27673
747.96719,0.27681
746.93694,0.27742
745.90668,0.27837
744.87642,0.27944
743.84616,0.28127
742.81590,0.28311
741.78565,0.28375
740.75539,0.28430
739.72513,0.28577
738.69487,0.28763
737.66462,0.28961
736.63436,0.29110
735.60410,0.29152
734.57384,0.29174
733.54358,0.29312
732.51333,0.29577
731.48307,0.29782
730.45281,0.29842
729.42255,0.29925
728.39229,0.30095
727.36204,0.30240
726.33178,0.30306
725.30152,0.30396
724.27126,0.30595
723.24101,0.30798
722.21075,0.30938
721.18049,0.31060
720.15023,0.31128
719.11997,0.31175
718.08972,0.31340
717.05946,0.31579
716.02920,0.31727
714.99894,0.31815
713.96868,0.31948
712.93843,0.32117
711.90817,0.32276
710.87791,0.32389
709.84765,0.32476
708.81740,0.32616
707.78714,0.32813
706.75688,0.32948
705.72662,0.33013
704.69636,0.33140
703.66611,0.33293
702.63585,0.33345
701.60559,0.33390
700.57533,0.33574
699.54508,0.33807
698.51482,0.33958
697.48456,0.34036
696.45430,0.34104
695.42404,0.34264
694.39379,0.34533
693.36353,0.34737
692.33327,0.34826
691.30301,0.34898
690.27275,0.34937
689.24250,0.34960
688.21224,0.35032
687.18198,0.35188
686.15172,0.35375
685.12147,0.35472
684.09121,0.35560
683.06095,0.35787
682.03069,0.36113
681.00043,0.36353
679.97018,0.36393
678.93992,0.36377
677.90966,0.36473
676.87940,0.36619
675.84914,0.36743
674.81889,0.36848
673.78863,0.36859
672.75837,0.36837
671.72811,0.36937
670.69786,0.37174
669.66760,0.37497
668.63734,0.37739
667.60708,0.37638
666.57682,0.37576
665.54657,0.37655
664.51631,0.37770
663.48605,0.37935
662.45579,0.38170
661.42553,0.38382
660.39528,0.38473
659.36502,0.38490
658.33476,0.38529
657.30450,0.38653
656.27425,0.38865
655.24399,0.38994
654.21373,0.39039
653.18347,0.39165
652.15321,0.39280
651.12296,0.39273
650.09270,0.39285
649.06244,0.39438
648.03218,0.39613
647.00193,0.39663
645.97167,0.39685
644.94141,0.39797
643.91115,0.39877
642.88089,0.39878
641.85064,0.39894
640.82038,0.39983
639.79012,0.40158
638.75986,0.40354
637.72960,0.40462
636.69935,0.40440
635.66909,0.40417
634.63883,0.40475
633.60857,0.40581
632.57832,0.40747
631.54806,0.40920
630.51780,0.41043
629.48754,0.41175
628.45728,0.41333
627.42703,0.41521
626.39677,0.41649
625.36651,0.41538
624.33625,0.41427
623.30599,0.41581
622.27574,0.41755
621.24548,0.41817
620.21522,0.41928
619.18496,0.42059
618.15471,0.42082
617.12445,0.42115
616.09419,0.42333
615.06393,0.42537
614.03367,0.42507
613.00342,0.42349
611.97316,0.42295
610.94290,0.42412
609.91264,0.42601
608.88238,0.42751
607.85213,0.42644
606.82187,0.42537
605.79161,0.42896
604.76135,0.43356
603.73110,0.43435
602.70084,0.43274
601.67058,0.43214
600.64032,0.43420
599.61006,0.43613
598.57981,0.43415
597.54955,0.43077
596.51929,0.42933
595.48903,0.42916
594.45878,0.43132
593.42852,0.43611
592.39826,0.43937
591.36800,0.43983
590.33774,0.43971
589.30749,0.44081
588.27723,0.44193
587.24697,0.44135
586.21671,0.44051
585.18645,0.44058
584.15620,0.44134
583.12594,0.44140
582.09568,0.44153
581.06542,0.44355
580.03517,0.44577
579.00491,0.44645
577.97465,0.44626
576.94439,0.44660
575.91413,0.44763
574.88388,0.44804
573.85362,0.44770
572.82336,0.44768
571.79310,0.44821
570.76284,0.44963
569.73259,0.45153
568.70233,0.45278
567.67207,0.45333
566.64181,0.45361
565.61156,0.45386
564.58130,0.45256
563.55104,0.44996
562.52078,0.44916
561.49052,0.45005
560.46027,0.45031
559.43001,0.45100
558.39975,0.45392
557.36949,0.45763
556.33924,0.46009
555.30898,0.46077
554.27872,0.46029
553.24846,0.46103
552.21820,0.46305
551.18795,0.46371
550.15769,0.46373
549.12743,0.46475
548.09717,0.46534
547.06691,0.46466
546.03666,0.46395
545.00640,0.46388
543.97614,0.46374
542.94588,0.46270
541.91563,0.46185
540.88537,0.46222
539.85511,0.46222
538.82485,0.46193
537.79459,0.46240
536.76434,0.46329
535.73408,0.46404
534.70382,0.46577
533.67356,0.46964
532.64330,0.47319
531.61305,0.47434
530.58279,0.47418
529.55253,0.47396
528.52227,0.47306
527.49202,0.47134
526.46176,0.47060
525.43150,0.47080
524.40124,0.47223
523.37098,0.47535
522.34073,0.47725
521.31047,0.47761
520.28021,0.47974
519.24995,0.48422
518.21969,0.48704
517.18944,0.48481
516.15918,0.48123
515.12892,0.48014
514.09866,0.48176
513.06841,0.48586
512.03815,0.48922
511.00789,0.49049
509.97763,0.49252
508.94737,0.49405
507.91712,0.49240
506.88686,0.49023
505.85660,0.48927
504.82634,0.49028
503.79609,0.49383
502.76583,0.49815
501.73557,0.50125
500.70531,0.50116
499.67505,0.49934
498.64480,0.49863
497.61454,0.49987
496.58428,0.50141
495.55402,0.50174
494.52376,0.50118
493.49351,0.49863
492.46325,0.49619
491.43299,0.49652
490.40273,0.49602
489.37248,0.49432
488.34222,0.49483
487.31196,0.49669
486.28170,0.49582
485.25144,0.49188
484.22119,0.48823
483.19093,0.48788
482.16067,0.48933
481.13041,0.48803
480.10015,0.48680
479.06990,0.48887
478.03964,0.49316
477.00938,0.49791
475.97912,0.49958
474.94887,0.49796
473.91861,0.49455
472.88835,0.49266
471.85809,0.49519
470.82783,0.49526
469.79758,0.49163
468.76732,0.49249
467.73706,0.50003
466.70680,0.51080
465.67654,0.52025
464.64629,0.52266
463.61603,0.51913
462.58577,0.51088
461.55551,0.50137
460.52526,0.50250
459.49500,0.50996
458.46474,0.51052
457.43448,0.50433
456.40422,0.49892
455.37397,0.49947
454.34371,0.50507
453.31345,0.50670
452.28319,0.49975
451.25294,0.49256
450.22268,0.48957
449.19242,0.49086
448.16216,0.49501
447.13190,0.49552
446.10165,0.49257
445.07139,0.49130
444.04113,0.49376
443.01087,0.49481
441.98061,0.48918
440.95036,0.48475
439.92010,0.48501
438.88984,0.48592
437.85958,0.48722
436.82933,0.48525
435.79907,0.48239
434.76881,0.48654
433.73855,0.49035
432.70829,0.49044
431.67804,0.48927
430.64778,0.48482
429.61752,0.47809
428.58726,0.47828
427.55700,0.49332
426.52675,0.50836
425.49649,0.50665
424.46623,0.50040
423.43597,0.49823
422.40572,0.49246
421.37546,0.48629
420.34520,0.48073
419.31494,0.47263
418.28468,0.46833
417.25443,0.46956
416.22417,0.47338
415.19391,0.47993
414.16365,0.48580
413.13339,0.48388
412.10314,0.47501
411.07288,0.46805
410.04262,0.46912
409.01236,0.47438
407.98211,0.47540
406.95185,0.47200
405.92159,0.47279
404.89133,0.48163
403.86107,0.49381
402.83082,0.50220
401.80056,0.49837
400.77030,0.48164
399.74004,0.46644
