4998.81105,0.00331
4997.78079,0.00337
4996.75054,0.00288
4995.72028,0.00250
4994.69002,0.00191
4993.65976,0.00128
4992.62951,0.00157
4991.59925,0.00228
4990.56899,0.00173
4989.53873,0.00026
4988.50847,-0.00079
4987.47822,-0.00094
4986.44796,0.00007
4985.41770,0.00170
4984.38744,0.00242
4983.35718,0.00217
4982.32693,0.00230
4981.29667,0.00293
4980.26641,0.00310
4979.23615,0.00247
4978.20590,0.00160
4977.17564,0.00092
4976.14538,0.00064
4975.11512,0.00124
4974.08486,0.00236
4973.05461,0.00308
4972.02435,0.00320
4970.99409,0.00281
4969.96383,0.00226
4968.93357,0.00218
4967.90332,0.00314
4966.87306,0.00402
4965.84280,0.00326
4964.81254,0.00186
4963.78229,0.00118
4962.75203,0.00125
4961.72177,0.00108
4960.69151,0.00043
4959.66125,0.00035
4958.63100,0.00082
4957.60074,0.00141
4956.57048,0.00223
4955.54022,0.00257
4954.50997,0.00188
4953.47971,0.00098
4952.44945,0.00107
4951.41919,0.00201
4950.38893,0.00223
4949.35868,0.00119
4948.32842,-0.00017
4947.29816,-0.00103
4946.26790,-0.00095
4945.23764,-0.00030
4944.20739,-0.00003
4943.17713,-0.00036
4942.14687,-0.00023
4941.11661,0.00069
4940.08636,0.00112
4939.05610,0.00092
4938.02584,0.00155
4936.99558,0.00270
4935.96532,0.00264
4934.93507,0.00130
4933.90481,0.00013
4932.87455,0.00011
4931.84429,0.00079
4930.81403,0.00126
4929.78378,0.00125
4928.75352,0.00054
4927.72326,0.00029
4926.69300,0.00171
4925.66275,0.00264
4924.63249,0.00201
4923.60223,0.00141
4922.57197,0.00099
4921.54171,0.00060
4920.51146,0.00037
4919.48120,0.00042
4918.45094,0.00100
4917.42068,0.00124
4916.39042,0.00118
4915.36017,0.00158
4914.32991,0.00199
4913.29965,0.00181
4912.26939,0.00089
4911.23914,-0.00011
4910.20888,0.00006
4909.17862,0.00114
4908.14836,0.00152
4907.11810,0.00124
4906.08785,0.00125
4905.05759,0.00158
4904.02733,0.00227
4902.99707,0.00263
4901.96682,0.00187
4900.93656,0.00051
4899.90630,-0.00006
4898.87604,0.00086
4897.84578,0.00195
4896.81553,0.00192
4895.78527,0.00114
4894.75501,0.00065
4893.72475,0.00085
4892.69449,0.00101
4891.66424,0.00094
4890.63398,0.00117
4889.60372,0.00159
4888.57346,0.00228
4887.54321,0.00301
4886.51295,0.00308
4885.48269,0.00240
4884.45243,0.00163
4883.42217,0.00114
4882.39192,0.00033
4881.36166,-0.00034
4880.33140,-0.00009
4879.30114,0.00040
4878.27088,0.00064
4877.24063,0.00084
4876.21037,0.00127
4875.18011,0.00178
4874.14985,0.00174
4873.11960,0.00128
4872.08934,0.00085
4871.05908,0.00042
4870.02882,-0.00004
4868.99856,-0.00033
4867.96831,-0.00029
4866.93805,0.00029
4865.90779,0.00098
4864.87753,0.00152
4863.84727,0.00234
4862.81702,0.00252
4861.78676,0.00149
4860.75650,0.00054
4859.72624,0.00021
4858.69599,0.00006
4857.66573,-0.00006
4856.63547,0.00013
4855.60521,0.00092
4854.57495,0.00165
4853.54470,0.00163
4852.51444,0.00102
4851.48418,0.00061
4850.45392,0.00113
4849.42367,0.00151
4848.39341,0.00069
4847.36315,-0.00033
4846.33289,-0.00060
4845.30263,-0.00027
4844.27238,0.00015
4843.24212,0.00013
4842.21186,-0.00022
4841.18160,-0.00009
4840.15134,0.00069
4839.12109,0.00133
4838.09083,0.00145
4837.06057,0.00155
4836.03031,0.00180
4835.00006,0.00147
4833.96980,0.00034
4832.93954,-0.00039
4831.90928,0.00003
4830.87902,0.00073
4829.84877,0.00070
4828.81851,0.00025
4827.78825,0.00068
4826.75799,0.00138
4825.72773,0.00066
4824.69748,-0.00018
4823.66722,0.00039
4822.63696,0.00124
4821.60670,0.00161
4820.57645,0.00153
4819.54619,0.00118
4818.51593,0.00087
4817.48567,-0.00008
4816.45541,-0.00100
4815.42516,-0.00039
4814.39490,0.00049
4813.36464,0.00057
4812.33438,0.00087
4811.30412,0.00122
4810.27387,0.00077
4809.24361,0.00036
4808.21335,0.00071
4807.18309,0.00092
4806.15284,0.00067
4805.12258,0.00094
4804.09232,0.00169
4803.06206,0.00190
4802.03180,0.00118
4801.00155,0.00046
4799.97129,0.00070
4798.94103,0.00109
4797.91077,0.00092
4796.88052,0.00061
4795.85026,0.00022
4794.82000,0.00007
4793.78974,0.00042
4792.75948,0.00089
4791.72923,0.00148
4790.69897,0.00184
4789.66871,0.00144
4788.63845,0.00091
4787.60819,0.00116
4786.57794,0.00147
4785.54768,0.00076
4784.51742,-0.00006
4783.48716,-0.00025
4782.45691,-0.00057
4781.42665,-0.00090
4780.39639,-0.00064
4779.36613,-0.00005
4778.33587,0.00052
4777.30562,0.00060
4776.27536,0.00053
4775.24510,0.00125
4774.21484,0.00225
4773.18458,0.00263
4772.15433,0.00241
4771.12407,0.00204
4770.09381,0.00188
4769.06355,0.00146
4768.03330,0.00089
4767.00304,0.00083
4765.97278,0.00077
4764.94252,0.00051
4763.91226,0.00079
4762.88201,0.00117
4761.85175,0.00044
4760.82149,-0.00088
4759.79123,-0.00081
4758.76098,0.00064
4757.73072,0.00203
4756.70046,0.00276
4755.67020,0.00255
4754.63994,0.00166
4753.60969,0.00072
4752.57943,0.00012
4751.54917,0.00030
4750.51891,0.00097
4749.48865,0.00143
4748.45840,0.00157
4747.42814,0.00141
4746.39788,0.00114
4745.36762,0.00091
4744.33737,0.00057
4743.30711,0.00044
4742.27685,0.00077
4741.24659,0.00103
4740.21633,0.00116
4739.18608,0.00147
4738.15582,0.00150
4737.12556,0.00097
4736.09530,0.00020
4735.06504,-0.00060
4734.03479,-0.00100
4733.00453,-0.00063
4731.97427,0.00011
4730.94401,0.00055
4729.91376,0.00027
4728.88350,-0.00033
4727.85324,-0.00075
4726.82298,-0.00070
4725.79272,-0.00004
4724.76247,0.00036
4723.73221,0.00058
4722.70195,0.00134
4721.67169,0.00188
4720.64143,0.00163
4719.61118,0.00110
4718.58092,0.00115
4717.55066,0.00193
4716.52040,0.00227
4715.49015,0.00191
4714.45989,0.00145
4713.42963,0.00150
4712.39937,0.00179
4711.36911,0.00147
4710.33886,0.00122
4709.30860,0.00136
4708.27834,0.00121
4707.24808,0.00085
4706.21783,0.00077
4705.18757,0.00094
4704.15731,0.00073
4703.12705,-0.00019
4702.09679,-0.00095
4701.06654,-0.00050
4700.03628,0.00056
4699.00602,0.00081
4697.97576,0.00016
4696.94550,-0.00047
4695.91525,-0.00045
4694.88499,0.00003
4693.85473,0.00027
4692.82447,0.00010
4691.79422,0.00010
4690.76396,0.00040
4689.73370,0.00053
4688.70344,0.00044
4687.67318,0.00079
4686.64293,0.00112
4685.61267,0.00068
4684.58241,0.00026
4683.55215,0.00028
4682.52189,0.00009
4681.49164,-0.00012
4680.46138,0.00037
4679.43112,0.00085
4678.40086,0.00077
4677.37061,0.00079
4676.34035,0.00088
4675.31009,0.00078
4674.27983,0.00092
4673.24957,0.00142
4672.21932,0.00169
4671.18906,0.00159
4670.15880,0.00159
4669.12854,0.00128
4668.09828,0.00048
4667.06803,0.00005
4666.03777,-0.00002
4665.00751,-0.00024
4663.97725,-0.00019
4662.94700,0.00044
4661.91674,0.00077
4660.88648,0.00057
4659.85622,0.00086
4658.82596,0.00169
4657.79571,0.00194
4656.76545,0.00172
4655.73519,0.00193
4654.70493,0.00198
4653.67468,0.00108
4652.64442,0.00036
4651.61416,0.00084
4650.58390,0.00138
4649.55364,0.00107
4648.52339,0.00080
4647.49313,0.00088
4646.46287,0.00065
4645.43261,0.00054
4644.40235,0.00066
4643.37210,0.00040
4642.34184,0.00038
4641.31158,0.00043
4640.28132,0.00015
4639.25107,0.00026
4638.22081,0.00087
4637.19055,0.00137
4636.16029,0.00144
4635.13003,0.00131
4634.09978,0.00130
4633.06952,0.00135
4632.03926,0.00114
4631.00900,0.00105
4629.97874,0.00135
4628.94849,0.00160
4627.91823,0.00146
4626.88797,0.00067
4625.85771,-0.00007
4624.82746,-0.00014
4623.79720,0.00011
4622.76694,0.00075
4621.73668,0.00147
4620.70642,0.00140
4619.67617,0.00084
4618.64591,0.00061
4617.61565,0.00066
4616.58539,0.00048
4615.55513,-0.00024
4614.52488,-0.00108
4613.49462,-0.00111
4612.46436,-0.00029
4611.43410,0.00054
4610.40385,0.00069
4609.37359,0.00025
4608.34333,0.00037
4607.31307,0.00113
4606.28281,0.00149
4605.25256,0.00095
4604.22230,-0.00022
4603.19204,-0.00069
4602.16178,-0.00023
4601.13153,0.00015
4600.10127,0.00062
4599.07101,0.00145
4598.04075,0.00186
4597.01049,0.00171
4595.98024,0.00147
4594.94998,0.00106
4593.91972,0.00045
4592.88946,-0.00008
4591.85920,-0.00040
4590.82895,-0.00026
4589.79869,0.00012
4588.76843,0.00044
4587.73817,0.00082
4586.70792,0.00085
4585.67766,0.00051
4584.64740,0.00039
4583.61714,0.00072
4582.58688,0.00117
4581.55663,0.00132
4580.52637,0.00117
4579.49611,0.00086
4578.46585,0.00048
4577.43559,0.00005
4576.40534,-0.00005
4575.37508,0.00076
4574.34482,0.00162
4573.31456,0.00142
4572.28431,0.00090
4571.25405,0.00080
4570.22379,0.00056
4569.19353,0.00000
4568.16327,-0.00014
4567.13302,0.00054
4566.10276,0.00112
4565.07250,0.00078
4564.04224,0.00030
4563.01198,0.00002
4561.98173,0.00000
4560.95147,0.00067
4559.92121,0.00155
4558.89095,0.00161
4557.86070,0.00049
4556.83044,-0.00055
4555.80018,-0.00057
4554.76992,0.00022
4553.73966,0.00122
4552.70941,0.00167
4551.67915,0.00135
4550.64889,0.00051
4549.61863,-0.00017
4548.58838,-0.00014
4547.55812,0.00045
4546.52786,0.00125
4545.49760,0.00129
4544.46734,0.00051
4543.43709,0.00018
4542.40683,0.00018
4541.37657,0.00000
4540.34631,0.00001
4539.31605,0.00028
4538.28580,0.00046
4537.25554,0.00016
4536.22528,-0.00027
4535.19502,-0.00034
4534.16477,0.00010
4533.13451,0.00084
4532.10425,0.00114
4531.07399,0.00089
4530.04373,0.00054
4529.01348,0.00055
4527.98322,0.00115
4526.95296,0.00159
4525.92270,0.00118
4524.89244,0.00070
4523.86219,0.00096
4522.83193,0.00141
4521.80167,0.00141
4520.77141,0.00128
4519.74116,0.00113
4518.71090,0.00083
4517.68064,0.00047
4516.65038,0.00010
4515.62012,0.00003
4514.58987,0.00042
4513.55961,0.00069
4512.52935,0.00062
4511.49909,0.00063
4510.46883,0.00072
4509.43858,0.00048
4508.40832,0.00016
4507.37806,0.00040
4506.34780,0.00035
4505.31755,-0.00018
4504.28729,-0.00013
4503.25703,-0.00003
4502.22677,-0.00034
4501.19651,-0.00014
4500.16626,0.00048
4499.13600,0.00046
4498.10574,0.00015
4497.07548,0.00041
4496.04523,0.00073
4495.01497,0.00055
4493.98471,0.00011
4492.95445,-0.00018
4491.92419,-0.00025
4490.89394,-0.00029
4489.86368,-0.00008
4488.83342,0.00050
4487.80316,0.00095
4486.77290,0.00096
4485.74265,0.00087
4484.71239,0.00046
4483.68213,-0.00019
4482.65187,-0.00028
4481.62162,-0.00002
4480.59136,0.00030
4479.56110,0.00051
4478.53084,0.00036
4477.50058,0.00035
4476.47033,0.00071
4475.44007,0.00091
4474.40981,0.00100
4473.37955,0.00149
4472.34929,0.00160
4471.31904,0.00090
4470.28878,0.00058
4469.25852,0.00099
4468.22826,0.00118
4467.19801,0.00055
4466.16775,-0.00033
4465.13749,-0.00038
4464.10723,0.00025
4463.07697,0.00048
4462.04672,0.00020
4461.01646,-0.00003
4459.98620,0.00005
4458.95594,0.00034
4457.92568,0.00059
4456.89543,0.00060
4455.86517,0.00058
4454.83491,0.00099
4453.80465,0.00139
4452.77440,0.00116
4451.74414,0.00069
4450.71388,0.00020
4449.68362,0.00003
4448.65336,0.00059
4447.62311,0.00108
4446.59285,0.00132
4445.56259,0.00178
4444.53233,0.00169
4443.50208,0.00089
4442.47182,0.00020
4441.44156,-0.00001
4440.41130,0.00003
4439.38104,-0.00008
4438.35079,0.00001
4437.32053,0.00033
4436.29027,0.00025
4435.26001,-0.00016
4434.22975,-0.00029
4433.19950,-0.00002
4432.16924,0.00012
4431.13898,0.00005
4430.10872,0.00036
4429.07847,0.00085
4428.04821,0.00112
4427.01795,0.00105
4425.98769,0.00053
4424.95743,-0.00002
4423.92718,-0.00001
4422.89692,0.00046
4421.86666,0.00068
4420.83640,0.00073
4419.80614,0.00082
4418.77589,0.00064
4417.74563,0.00054
4416.71537,0.00087
4415.68511,0.00110
4414.65486,0.00097
4413.62460,0.00086
4412.59434,0.00059
4411.56408,0.00039
4410.53382,0.00061
4409.50357,0.00086
4408.47331,0.00117
4407.44305,0.00160
4406.41279,0.00167
4405.38253,0.00087
4404.35228,-0.00026
4403.32202,-0.00059
4402.29176,-0.00021
4401.26150,0.00020
4400.23125,0.00050
4399.20099,0.00065
4398.17073,0.00065
4397.14047,0.00042
4396.11021,0.00013
4395.07996,0.00062
4394.04970,0.00131
4393.01944,0.00116
4391.98918,0.00049
4390.95893,-0.00008
4389.92867,-0.00012
4388.89841,0.00053
4387.86815,0.00130
4386.83789,0.00140
4385.80764,0.00072
4384.77738,0.00024
4383.74712,0.00062
4382.71686,0.00081
4381.68660,0.00051
4380.65635,0.00065
4379.62609,0.00116
4378.59583,0.00135
4377.56557,0.00099
4376.53532,0.00030
4375.50506,-0.00015
4374.47480,0.00015
4373.44454,0.00072
4372.41428,0.00081
4371.38403,0.00053
4370.35377,0.00038
4369.32351,0.00049
4368.29325,0.00072
4367.26299,0.00089
4366.23274,0.00091
4365.20248,0.00103
4364.17222,0.00130
4363.14196,0.00130
4362.11171,0.00105
4361.08145,0.00116
4360.05119,0.00162
4359.02093,0.00185
4357.99067,0.00172
4356.96042,0.00150
4355.93016,0.00101
4354.89990,0.00048
4353.86964,0.00084
4352.83939,0.00175
4351.80913,0.00190
4350.77887,0.00133
4349.74861,0.00112
4348.71835,0.00111
4347.68810,0.00082
4346.65784,0.00046
4345.62758,0.00020
4344.59732,0.00051
4343.56706,0.00103
4342.53681,0.00075
4341.50655,0.00004
4340.47629,-0.00031
4339.44603,-0.00019
4338.41578,0.00006
4337.38552,-0.00009
4336.35526,-0.00028
4335.32500,0.00009
4334.29474,0.00041
4333.26449,0.00036
4332.23423,0.00019
4331.20397,0.00017
4330.17371,0.00060
4329.14345,0.00114
4328.11320,0.00123
4327.08294,0.00083
4326.05268,0.00058
4325.02242,0.00083
4323.99217,0.00082
4322.96191,0.00049
4321.93165,0.00063
4320.90139,0.00104
4319.87113,0.00132
4318.84088,0.00142
4317.81062,0.00101
4316.78036,0.00038
4315.75010,0.00028
4314.71984,0.00035
4313.68959,0.00031
4312.65933,0.00047
4311.62907,0.00052
4310.59881,0.00048
4309.56856,0.00079
4308.53830,0.00124
4307.50804,0.00126
4306.47778,0.00062
4305.44752,0.00004
4304.41727,0.00014
4303.38701,0.00053
4302.35675,0.00096
4301.32649,0.00133
4300.29624,0.00143
4299.26598,0.00114
4298.23572,0.00064
4297.20546,0.00032
4296.17520,0.00045
4295.14495,0.00100
4294.11469,0.00138
4293.08443,0.00100
4292.05417,0.00065
4291.02391,0.00115
4289.99366,0.00162
4288.96340,0.00127
4287.93314,0.00047
4286.90288,-0.00007
4285.87263,-0.00005
4284.84237,0.00016
4283.81211,0.00056
4282.78185,0.00139
4281.75159,0.00209
4280.72134,0.00201
4279.69108,0.00119
4278.66082,0.00057
4277.63056,0.00085
4276.60030,0.00117
4275.57005,0.00097
4274.53979,0.00091
4273.50953,0.00103
4272.47927,0.00097
4271.44902,0.00081
4270.41876,0.00092
4269.38850,0.00134
4268.35824,0.00173
4267.32798,0.00172
4266.29773,0.00112
4265.26747,0.00042
4264.23721,0.00028
4263.20695,0.00085
4262.17669,0.00148
4261.14644,0.00143
4260.11618,0.00091
4259.08592,0.00085
4258.05566,0.00099
4257.02541,0.00060
4255.99515,0.00043
4254.96489,0.00098
4253.93463,0.00136
4252.90437,0.00142
4251.87412,0.00154
4250.84386,0.00152
4249.81360,0.00140
4248.78334,0.00139
4247.75309,0.00161
4246.72283,0.00175
4245.69257,0.00123
4244.66231,0.00071
4243.63205,0.00085
4242.60180,0.00114
4241.57154,0.00122
4240.54128,0.00117
4239.51102,0.00104
4238.48076,0.00087
4237.45051,0.00089
4236.42025,0.00131
4235.38999,0.00182
4234.35973,0.00212
4233.32948,0.00212
4232.29922,0.00171
4231.26896,0.00151
4230.23870,0.00185
4229.20844,0.00177
4228.17819,0.00116
4227.14793,0.00100
4226.11767,0.00139
4225.08741,0.00169
4224.05715,0.00148
4223.02690,0.00125
4221.99664,0.00142
4220.96638,0.00148
4219.93612,0.00143
4218.90587,0.00162
4217.87561,0.00153
4216.84535,0.00132
4215.81509,0.00143
4214.78483,0.00133
4213.75458,0.00092
4212.72432,0.00065
4211.69406,0.00053
4210.66380,0.00061
4209.63354,0.00090
4208.60329,0.00081
4207.57303,0.00025
4206.54277,0.00009
4205.51251,0.00057
4204.48226,0.00106
4203.45200,0.00136
4202.42174,0.00160
4201.39148,0.00166
4200.36122,0.00156
4199.33097,0.00119
4198.30071,0.00054
4197.27045,0.00040
4196.24019,0.00093
4195.20994,0.00135
4194.17968,0.00130
4193.14942,0.00098
4192.11916,0.00093
4191.08890,0.00126
4190.05865,0.00131
4189.02839,0.00114
4187.99813,0.00135
4186.96787,0.00164
4185.93761,0.00178
4184.90736,0.00187
4183.87710,0.00197
4182.84684,0.00188
4181.81658,0.00131
4180.78633,0.00066
4179.75607,0.00026
4178.72581,0.00030
4177.69555,0.00097
4176.66529,0.00125
4175.63504,0.00097
4174.60478,0.00094
4173.57452,0.00099
4172.54426,0.00106
4171.51400,0.00135
4170.48375,0.00154
4169.45349,0.00156
4168.42323,0.00163
4167.39297,0.00173
4166.36272,0.00153
4165.33246,0.00094
4164.30220,0.00052
4163.27194,0.00077
4162.24168,0.00129
4161.21143,0.00169
4160.18117,0.00212
4159.15091,0.00225
4158.12065,0.00168
4157.09039,0.00077
4156.06014,0.00016
4155.02988,0.00013
4153.99962,0.00058
4152.96936,0.00124
4151.93911,0.00165
4150.90885,0.00140
4149.87859,0.00086
4148.84833,0.00094
4147.81807,0.00161
4146.78782,0.00200
4145.75756,0.00181
4144.72730,0.00148
4143.69704,0.00135
4142.66679,0.00137
4141.63653,0.00132
4140.60627,0.00110
4139.57601,0.00089
4138.54575,0.00088
4137.51550,0.00140
4136.48524,0.00207
4135.45498,0.00190
4134.42472,0.00141
4133.39446,0.00150
4132.36421,0.00183
4131.33395,0.00192
4130.30369,0.00150
4129.27343,0.00090
4128.24318,0.00076
4127.21292,0.00069
4126.18266,0.00044
4125.15240,0.00064
4124.12214,0.00122
4123.09189,0.00143
4122.06163,0.00145
4121.03137,0.00161
4120.00111,0.00153
4118.97085,0.00137
4117.94060,0.00142
4116.91034,0.00135
4115.88008,0.00110
4114.84982,0.00117
4113.81957,0.00152
4112.78931,0.00165
4111.75905,0.00138
4110.72879,0.00075
4109.69853,0.00021
4108.66828,0.00027
4107.63802,0.00089
4106.60776,0.00155
4105.57750,0.00156
4104.54724,0.00100
4103.51699,0.00071
4102.48673,0.00105
4101.45647,0.00132
4100.42621,0.00114
4099.39596,0.00127
4098.36570,0.00178
4097.33544,0.00191
4096.30518,0.00185
4095.27492,0.00193
4094.24467,0.00180
4093.21441,0.00145
4092.18415,0.00133
4091.15389,0.00150
4090.12364,0.00161
4089.09338,0.00167
4088.06312,0.00172
4087.03286,0.00141
4086.00260,0.00119
4084.97235,0.00166
4083.94209,0.00208
4082.91183,0.00171
4081.88157,0.00107
4080.85131,0.00094
4079.82106,0.00110
4078.79080,0.00092
4077.76054,0.00071
4076.73028,0.00085
4075.70003,0.00118
4074.66977,0.00142
4073.63951,0.00139
4072.60925,0.00124
4071.57899,0.00122
4070.54874,0.00156
4069.51848,0.00208
4068.48822,0.00219
4067.45796,0.00198
4066.42770,0.00207
4065.39745,0.00223
4064.36719,0.00240
4063.33693,0.00279
4062.30667,0.00290
4061.27642,0.00245
4060.24616,0.00176
4059.21590,0.00126
4058.18564,0.00113
4057.15538,0.00102
4056.12513,0.00116
4055.09487,0.00167
4054.06461,0.00193
4053.03435,0.00198
4052.00409,0.00220
4050.97384,0.00258
4049.94358,0.00282
4048.91332,0.00265
4047.88306,0.00234
4046.85281,0.00240
4045.82255,0.00256
4044.79229,0.00225
4043.76203,0.00164
4042.73177,0.00122
4041.70152,0.00132
4040.67126,0.00151
4039.64100,0.00148
4038.61074,0.00144
4037.58049,0.00132
4036.55023,0.00131
4035.51997,0.00164
4034.48971,0.00183
4033.45945,0.00193
4032.42920,0.00239
4031.39894,0.00289
4030.36868,0.00307
4029.33842,0.00273
4028.30816,0.00218
4027.27791,0.00217
4026.24765,0.00230
4025.21739,0.00191
4024.18713,0.00166
4023.15688,0.00191
4022.12662,0.00178
4021.09636,0.00145
4020.06610,0.00172
4019.03584,0.00200
4018.00559,0.00168
4016.97533,0.00146
4015.94507,0.00192
4014.91481,0.00263
4013.88455,0.00301
4012.85430,0.00298
4011.82404,0.00266
4010.79378,0.00230
4009.76352,0.00249
4008.73327,0.00299
4007.70301,0.00288
4006.67275,0.00239
4005.64249,0.00219
4004.61223,0.00245
4003.58198,0.00284
4002.55172,0.00270
4001.52146,0.00226
4000.49120,0.00201
3999.46095,0.00193
3998.43069,0.00211
3997.40043,0.00247
3996.37017,0.00259
3995.33991,0.00253
3994.30966,0.00264
3993.27940,0.00249
3992.24914,0.00172
3991.21888,0.00126
3990.18862,0.00134
3989.15837,0.00140
3988.12811,0.00163
3987.09785,0.00189
3986.06759,0.00187
3985.03734,0.00195
3984.00708,0.00228
3982.97682,0.00258
3981.94656,0.00261
3980.91630,0.00234
3979.88605,0.00202
3978.85579,0.00204
3977.82553,0.00234
3976.79527,0.00263
3975.76501,0.00249
3974.73476,0.00199
3973.70450,0.00184
3972.67424,0.00209
3971.64398,0.00227
3970.61373,0.00230
3969.58347,0.00251
3968.55321,0.00258
3967.52295,0.00197
3966.49269,0.00134
3965.46244,0.00109
3964.43218,0.00102
3963.40192,0.00109
3962.37166,0.00141
3961.34140,0.00184
3960.31115,0.00200
3959.28089,0.00199
3958.25063,0.00182
3957.22037,0.00151
3956.19012,0.00179
3955.15986,0.00250
3954.12960,0.00275
3953.09934,0.00256
3952.06908,0.00221
3951.03883,0.00187
3950.00857,0.00187
3948.97831,0.00204
3947.94805,0.00216
3946.91780,0.00236
3945.88754,0.00245
3944.85728,0.00240
3943.82702,0.00221
3942.79676,0.00174
3941.76651,0.00155
3940.73625,0.00190
3939.70599,0.00229
3938.67573,0.00243
3937.64547,0.00220
3936.61522,0.00173
3935.58496,0.00132
3934.55470,0.00123
3933.52444,0.00163
3932.49419,0.00207
3931.46393,0.00230
3930.43367,0.00274
3929.40341,0.00306
3928.37315,0.00253
3927.34290,0.00169
3926.31264,0.00140
3925.28238,0.00148
3924.25212,0.00167
3923.22186,0.00181
3922.19161,0.00175
3921.16135,0.00161
3920.13109,0.00116
3919.10083,0.00055
3918.07058,0.00061
3917.04032,0.00119
3916.01006,0.00154
3914.97980,0.00178
3913.94954,0.00193
3912.91929,0.00162
3911.88903,0.00130
3910.85877,0.00138
3909.82851,0.00141
3908.79825,0.00134
3907.76800,0.00148
3906.73774,0.00153
3905.70748,0.00165
3904.67722,0.00194
3903.64697,0.00169
3902.61671,0.00134
3901.58645,0.00159
3900.55619,0.00194
3899.52593,0.00185
3898.49568,0.00136
3897.46542,0.00096
3896.43516,0.00096
3895.40490,0.00115
3894.37465,0.00122
3893.34439,0.00141
3892.31413,0.00189
3891.28387,0.00211
3890.25361,0.00199
3889.22336,0.00181
3888.19310,0.00148
3887.16284,0.00102
3886.13258,0.00052
3885.10232,0.00049
3884.07207,0.00108
3883.04181,0.00165
3882.01155,0.00191
3880.98129,0.00183
3879.95104,0.00184
3878.92078,0.00187
3877.89052,0.00162
3876.86026,0.00172
3875.83000,0.00199
3874.79975,0.00176
3873.76949,0.00164
3872.73923,0.00206
3871.70897,0.00238
3870.67871,0.00215
3869.64846,0.00149
3868.61820,0.00106
3867.58794,0.00067
3866.55768,0.00037
3865.52743,0.00058
3864.49717,0.00119
3863.46691,0.00159
3862.43665,0.00177
3861.40639,0.00189
3860.37614,0.00201
3859.34588,0.00188
3858.31562,0.00141
3857.28536,0.00107
3856.25510,0.00139
3855.22485,0.00216
3854.19459,0.00230
3853.16433,0.00141
3852.13407,0.00118
3851.10382,0.00126
3850.07356,0.00116
3849.04330,0.00099
3848.01304,0.00100
3846.98278,0.00147
3845.95253,0.00205
3844.92227,0.00199
3843.89201,0.00126
3842.86175,0.00084
3841.83150,0.00100
3840.80124,0.00129
3839.77098,0.00156
3838.74072,0.00178
3837.71046,0.00196
3836.68021,0.00168
3835.64995,0.00101
3834.61969,0.00105
3833.58943,0.00204
3832.55917,0.00242
3831.52892,0.00176
3830.49866,0.00122
3829.46840,0.00132
3828.43814,0.00154
3827.40789,0.00134
3826.37763,0.00087
3825.34737,0.00089
3824.31711,0.00115
3823.28685,0.00117
3822.25660,0.00101
3821.22634,0.00088
3820.19608,0.00143
3819.16582,0.00226
3818.13556,0.00267
3817.10531,0.00253
3816.07505,0.00172
3815.04479,0.00074
3814.01453,0.00075
3812.98428,0.00148
3811.95402,0.00206
3810.92376,0.00231
3809.89350,0.00252
3808.86324,0.00243
3807.83299,0.00182
3806.80273,0.00110
3805.77247,0.00102
3804.74221,0.00152
3803.71195,0.00202
3802.68170,0.00186
3801.65144,0.00102
3800.62118,0.00099
3799.59092,0.00168
3798.56067,0.00201
3797.53041,0.00199
3796.50015,0.00199
3795.46989,0.00250
3794.43963,0.00297
3793.40938,0.00286
3792.37912,0.00256
3791.34886,0.00236
3790.31860,0.00233
3789.28835,0.00214
3788.25809,0.00164
3787.22783,0.00116
3786.19757,0.00097
3785.16731,0.00118
3784.13706,0.00154
3783.10680,0.00164
3782.07654,0.00175
3781.04628,0.00226
3780.01602,0.00297
3778.98577,0.00337
3777.95551,0.00342
3776.92525,0.00355
3775.89499,0.00346
3774.86474,0.00278
3773.83448,0.00237
3772.80422,0.00259
3771.77396,0.00284
3770.74370,0.00311
3769.71345,0.00343
3768.68319,0.00329
3767.65293,0.00276
3766.62267,0.00202
3765.59241,0.00119
3764.56216,0.00092
3763.53190,0.00132
3762.50164,0.00185
3761.47138,0.00206
3760.44113,0.00178
3759.41087,0.00164
3758.38061,0.00226
3757.35035,0.00268
3756.32009,0.00265
3755.28984,0.00275
3754.25958,0.00291
3753.22932,0.00324
3752.19906,0.00315
3751.16880,0.00177
3750.13855,0.00066
3749.10829,0.00110
3748.07803,0.00244
3747.04777,0.00339
3746.01752,0.00371
3744.98726,0.00255
3743.95700,0.00083
3742.92674,0.00184
3741.89648,0.00336
3740.86623,0.00410
3739.83597,0.00415
3738.80571,0.00398
3737.77545,0.00390
3736.74520,0.00361
3735.71494,0.00307
3734.68468,0.00357
3733.65442,0.00466
3732.62416,0.00485
3731.59391,0.00436
3730.56365,0.00427
3729.53339,0.00445
3728.50313,0.00442
3727.47287,0.00421
3726.44262,0.00427
3725.41236,0.00464
3724.38210,0.00465
3723.35184,0.00432
3722.32159,0.00429
3721.29133,0.00495
3720.26107,0.00543
3719.23081,0.00537
3718.20055,0.00530
3717.17030,0.00539
3716.14004,0.00531
3715.10978,0.00482
3714.07952,0.00433
3713.04926,0.00467
3712.01901,0.00567
3710.98875,0.00567
3709.95849,0.00479
3708.92823,0.00470
3707.89798,0.00552
3706.86772,0.00615
3705.83746,0.00652
3704.80720,0.00666
3703.77694,0.00628
3702.74669,0.00611
3701.71643,0.00678
3700.68617,0.00715
3699.65591,0.00698
3698.62565,0.00735
3697.59540,0.00803
3696.56514,0.00816
3695.53488,0.00822
3694.50462,0.00836
3693.47437,0.00809
3692.44411,0.00776
3691.41385,0.00769
3690.38359,0.00778
3689.35333,0.00836
3688.32308,0.00944
3687.29282,0.00998
3686.26256,0.00964
3685.23230,0.00934
3684.20205,0.00969
3683.17179,0.01026
3682.14153,0.01076
3681.11127,0.01148
3680.08101,0.01211
3679.05076,0.01203
3678.02050,0.01180
3676.99024,0.01205
3675.95998,0.01267
3674.92972,0.01374
3673.89947,0.01487
3672.86921,0.01563
3671.83895,0.01591
3670.80869,0.01563
3669.77844,0.01547
3668.74818,0.01589
3667.71792,0.01650
3666.68766,0.01726
3665.65740,0.01800
3664.62715,0.01887
3663.59689,0.02003
3662.56663,0.02099
3661.53637,0.02166
3660.50611,0.02245
3659.47586,0.02350
3658.44560,0.02450
3657.41534,0.02478
3656.38508,0.02437
3655.35483,0.02466
3654.32457,0.02586
3653.29431,0.02698
3652.26405,0.02737
3651.23379,0.02701
3650.20354,0.02711
3649.17328,0.02816
3648.14302,0.02907
3647.11276,0.03023
3646.08250,0.03186
3645.05225,0.03285
3644.02199,0.03304
3642.99173,0.03320
3641.96147,0.03400
3640.93122,0.03508
3639.90096,0.03568
3638.87070,0.03606
3637.84044,0.03694
3636.81018,0.03834
3635.77993,0.03968
3634.74967,0.04060
3633.71941,0.04122
3632.68915,0.04167
3631.65890,0.04205
3630.62864,0.04243
3629.59838,0.04233
3628.56812,0.04197
3627.53786,0.04280
3626.50761,0.04420
3625.47735,0.04539
3624.44709,0.04640
3623.41683,0.04729
3622.38657,0.04805
3621.35632,0.04868
3620.32606,0.04909
3619.29580,0.04988
3618.26554,0.05136
3617.23529,0.05227
3616.20503,0.05218
3615.17477,0.05234
3614.14451,0.05334
3613.11425,0.05395
3612.08400,0.05405
3611.05374,0.05513
3610.02348,0.05689
3608.99322,0.05813
3607.96296,0.05898
3606.93271,0.05985
3605.90245,0.06084
3604.87219,0.06225
3603.84193,0.06341
3602.81168,0.06387
3601.78142,0.06445
3600.75116,0.06533
3599.72090,0.06592
3598.69064,0.06639
3597.66039,0.06723
3596.63013,0.06839
3595.59987,0.06949
3594.56961,0.07050
3593.53936,0.07135
3592.50910,0.07214
3591.47884,0.07311
3590.44858,0.07388
3589.41832,0.07439
3588.38807,0.07526
3587.35781,0.07656
3586.32755,0.07746
3585.29729,0.07818
3584.26703,0.07939
3583.23678,0.08069
3582.20652,0.08134
3581.17626,0.08157
3580.14600,0.08251
3579.11575,0.08437
3578.08549,0.08599
3577.05523,0.08687
3576.02497,0.08772
3574.99471,0.08853
3573.96446,0.08884
3572.93420,0.08957
3571.90394,0.09109
3570.87368,0.09254
3569.84342,0.09377
3568.81317,0.09487
3567.78291,0.09577
3566.75265,0.09644
3565.72239,0.09740
3564.69214,0.09901
3563.66188,0.10081
3562.63162,0.10254
3561.60136,0.10384
3560.57110,0.10473
3559.54085,0.10568
3558.51059,0.10662
3557.48033,0.10726
3556.45007,0.10798
3555.41981,0.10915
3554.38956,0.11038
3553.35930,0.11157
3552.32904,0.11275
3551.29878,0.11384
3550.26853,0.11489
3549.23827,0.11591
3548.20801,0.11724
3547.17775,0.11893
3546.14749,0.12044
3545.11724,0.12166
3544.08698,0.12258
3543.05672,0.12333
3542.02646,0.12441
3540.99621,0.12555
3539.96595,0.12651
3538.93569,0.12735
3537.90543,0.12818
3536.87517,0.12950
3535.84492,0.13107
3534.81466,0.13223
3533.78440,0.13304
3532.75414,0.13385
3531.72388,0.13473
3530.69363,0.13612
3529.66337,0.13804
3528.63311,0.13936
3527.60285,0.13984
3526.57260,0.14067
3525.54234,0.14192
3524.51208,0.14272
3523.48182,0.14360
3522.45156,0.14522
3521.42131,0.14697
3520.39105,0.14815
3519.36079,0.14879
3518.33053,0.14947
3517.30027,0.15066
3516.27002,0.15196
3515.23976,0.15301
3514.20950,0.15406
3513.17924,0.15512
3512.14899,0.15614
3511.11873,0.15687
3510.08847,0.15747
3509.05821,0.15856
3508.02795,0.15981
3506.99770,0.16052
3505.96744,0.16098
3504.93718,0.16202
3503.90692,0.16345
3502.87666,0.16418
3501.84641,0.16429
3500.81615,0.16500
3499.78589,0.16628
3498.75563,0.16766
3497.72538,0.16924
3496.69512,0.17040
3495.66486,0.17083
3494.63460,0.17152
3493.60434,0.17286
3492.57409,0.17432
3491.54383,0.17543
3490.51357,0.17610
3489.48331,0.17690
3488.45306,0.17816
3487.42280,0.17925
3486.39254,0.17976
3485.36228,0.18038
3484.33202,0.18166
3483.30177,0.18258
3482.27151,0.18272
3481.24125,0.18331
3480.21099,0.18440
3479.18073,0.18535
3478.15048,0.18641
3477.12022,0.18760
3476.08996,0.18893
3475.05970,0.19050
3474.02945,0.19177
3472.99919,0.19259
3471.96893,0.19314
3470.93867,0.19340
3469.90841,0.19378
3468.87816,0.19463
3467.84790,0.19581
3466.81764,0.19719
3465.78738,0.19841
3464.75712,0.19895
3463.72687,0.19896
3462.69661,0.19925
3461.66635,0.20003
3460.63609,0.20100
3459.60584,0.20207
3458.57558,0.20339
3457.54532,0.20492
3456.51506,0.20617
3455.48480,0.20688
3454.45455,0.20745
3453.42429,0.20821
3452.39403,0.20905
3451.36377,0.20982
3450.33351,0.21064
3449.30326,0.21162
3448.27300,0.21286
3447.24274,0.21433
3446.21248,0.21513
3445.18223,0.21508
3444.15197,0.21534
3443.12171,0.21633
3442.09145,0.21769
3441.06119,0.21877
3440.03094,0.21934
3439.00068,0.22015
3437.97042,0.22118
3436.94016,0.22198
3435.90991,0.22281
3434.87965,0.22356
3433.84939,0.22426
3432.81913,0.22534
3431.78887,0.22628
3430.75862,0.22663
3429.72836,0.22720
3428.69810,0.22803
3427.66784,0.22895
3426.63758,0.23055
3425.60733,0.23241
3424.57707,0.23368
3423.54681,0.23403
3422.51655,0.23394
3421.48630,0.23401
3420.45604,0.23421
3419.42578,0.23470
3418.39552,0.23572
3417.36526,0.23705
3416.33501,0.23828
3415.30475,0.23918
3414.27449,0.24005
3413.24423,0.24084
3412.21397,0.24145
3411.18372,0.24220
3410.15346,0.24262
3409.12320,0.24254
3408.09294,0.24262
3407.06269,0.24304
3406.03243,0.24348
3405.00217,0.24406
3403.97191,0.24502
3402.94165,0.24567
3401.91140,0.24548
3400.88114,0.24522
3399.85088,0.24550
3398.82062,0.24611
3397.79036,0.24704
3396.76011,0.24768
3395.72985,0.24759
3394.69959,0.24807
3393.66933,0.24918
3392.63908,0.24933
3391.60882,0.24901
3390.57856,0.24979
3389.54830,0.25115
3388.51804,0.25178
3387.48779,0.25161
3386.45753,0.25133
3385.42727,0.25127
3384.39701,0.25146
3383.36676,0.25180
3382.33650,0.25239
3381.30624,0.25313
3380.27598,0.25346
3379.24572,0.25354
3378.21547,0.25357
3377.18521,0.25320
3376.15495,0.25295
3375.12469,0.25366
3374.09443,0.25463
3373.06418,0.25493
3372.03392,0.25485
3371.00366,0.25433
3369.97340,0.25353
3368.94315,0.25294
3367.91289,0.25255
3366.88263,0.25277
3365.85237,0.25349
3364.82211,0.25363
3363.79186,0.25323
3362.76160,0.25318
3361.73134,0.25326
3360.70108,0.25315
3359.67082,0.25304
3358.64057,0.25296
3357.61031,0.25286
3356.58005,0.25242
3355.54979,0.25163
3354.51954,0.25114
3353.48928,0.25096
3352.45902,0.25045
3351.42876,0.24992
3350.39850,0.25024
3349.36825,0.25090
3348.33799,0.25093
3347.30773,0.25034
3346.27747,0.24973
3345.24721,0.24937
3344.21696,0.24903
3343.18670,0.24865
3342.15644,0.24845
3341.12618,0.24829
3340.09593,0.24790
3339.06567,0.24777
3338.03541,0.24787
3337.00515,0.24766
3335.97489,0.24751
3334.94464,0.24744
3333.91438,0.24716
3332.88412,0.24666
3331.85386,0.24595
3330.82361,0.24555
3329.79335,0.24576
3328.76309,0.24570
3327.73283,0.24486
3326.70257,0.24401
3325.67232,0.24374
3324.64206,0.24364
3323.61180,0.24305
3322.58154,0.24228
3321.55128,0.24196
3320.52103,0.24207
3319.49077,0.24240
3318.46051,0.24272
3317.43025,0.24260
3316.40000,0.24208
3315.36974,0.24136
3314.33948,0.24075
3313.30922,0.24089
3312.27896,0.24097
3311.24871,0.24015
3310.21845,0.23947
3309.18819,0.23929
3308.15793,0.23922
3307.12767,0.23931
3306.09742,0.23925
3305.06716,0.23877
3304.03690,0.23857
3303.00664,0.23900
3301.97639,0.23925
3300.94613,0.23922
3299.91587,0.23943
3298.88561,0.23925
3297.85535,0.23847
3296.82510,0.23794
3295.79484,0.23789
3294.76458,0.23821
3293.73432,0.23839
3292.70406,0.23828
3291.67381,0.23851
3290.64355,0.23854
3289.61329,0.23802
3288.58303,0.23774
3287.55278,0.23768
3286.52252,0.23731
3285.49226,0.23690
3284.46200,0.23703
3283.43174,0.23753
3282.40149,0.23794
3281.37123,0.23782
3280.34097,0.23710
3279.31071,0.23645
3278.28046,0.23648
3277.25020,0.23692
3276.21994,0.23679
3275.18968,0.23588
3274.15942,0.23519
3273.12917,0.23507
3272.09891,0.23519
3271.06865,0.23552
3270.03839,0.23573
3269.00813,0.23537
3267.97788,0.23518
3266.94762,0.23538
3265.91736,0.23492
3264.88710,0.23400
3263.85685,0.23368
3262.82659,0.23383
3261.79633,0.23369
3260.76607,0.23312
3259.73581,0.23269
3258.70556,0.23306
3257.67530,0.23396
3256.64504,0.23383
3255.61478,0.23245
3254.58452,0.23146
3253.55427,0.23141
3252.52401,0.23156
3251.49375,0.23143
3250.46349,0.23089
3249.43324,0.22991
3248.40298,0.22901
3247.37272,0.22867
3246.34246,0.22879
3245.31220,0.22868
3244.28195,0.22787
3243.25169,0.22740
3242.22143,0.22775
3241.19117,0.22756
3240.16092,0.22636
3239.13066,0.22550
3238.10040,0.22556
3237.07014,0.22552
3236.03988,0.22450
3235.00963,0.22292
3233.97937,0.22191
3232.94911,0.22182
3231.91885,0.22189
3230.88859,0.22142
3229.85834,0.22066
3228.82808,0.22006
3227.79782,0.21957
3226.76756,0.21898
3225.73731,0.21823
3224.70705,0.21766
3223.67679,0.21721
3222.64653,0.21647
3221.61627,0.21586
3220.58602,0.21572
3219.55576,0.21544
3218.52550,0.21462
3217.49524,0.21346
3216.46498,0.21248
3215.43473,0.21160
3214.40447,0.21051
3213.37421,0.20970
3212.34395,0.20912
3211.31370,0.20844
3210.28344,0.20766
3209.25318,0.20658
3208.22292,0.20554
3207.19266,0.20468
3206.16241,0.20390
3205.13215,0.20356
3204.10189,0.20339
3203.07163,0.20284
3202.04137,0.20230
3201.01112,0.20193
3199.98086,0.20066
3198.95060,0.19846
3197.92034,0.19678
3196.89009,0.19579
3195.85983,0.19480
3194.82957,0.19390
3193.79931,0.19323
3192.76905,0.19270
3191.73880,0.19200
3190.70854,0.19076
3189.67828,0.18926
3188.64802,0.18795
3187.61777,0.18687
3186.58751,0.18610
3185.55725,0.18552
3184.52699,0.18499
3183.49673,0.18417
3182.46648,0.18283
3181.43622,0.18191
3180.40596,0.18136
3179.37570,0.18033
3178.34544,0.17912
3177.31519,0.17773
3176.28493,0.17630
3175.25467,0.17557
3174.22441,0.17528
3173.19416,0.17474
3172.16390,0.17410
3171.13364,0.17347
3170.10338,0.17236
3169.07312,0.17096
3168.04287,0.16961
3167.01261,0.16830
3165.98235,0.16722
3164.95209,0.16645
3163.92183,0.16598
3162.89158,0.16540
3161.86132,0.16425
3160.83106,0.16306
3159.80080,0.16232
3158.77055,0.16165
3157.74029,0.16050
3156.71003,0.15882
3155.67977,0.15732
3154.64951,0.15637
3153.61926,0.15569
3152.58900,0.15513
3151.55874,0.15453
3150.52848,0.15372
3149.49822,0.15261
3148.46797,0.15142
3147.43771,0.15075
3146.40745,0.15036
3145.37719,0.14961
3144.34694,0.14861
3143.31668,0.14766
3142.28642,0.14672
3141.25616,0.14580
3140.22590,0.14511
3139.19565,0.14452
3138.16539,0.14350
3137.13513,0.14222
3136.10487,0.14109
3135.07462,0.13994
3134.04436,0.13885
3133.01410,0.13806
3131.98384,0.13739
3130.95358,0.13691
3129.92333,0.13659
3128.89307,0.13559
3127.86281,0.13387
3126.83255,0.13258
3125.80229,0.13185
3124.77204,0.13102
3123.74178,0.13013
3122.71152,0.12926
3121.68126,0.12827
3120.65101,0.12741
3119.62075,0.12683
3118.59049,0.12622
3117.56023,0.12554
3116.52997,0.12489
3115.49972,0.12410
3114.46946,0.12314
3113.43920,0.12217
3112.40894,0.12140
3111.37868,0.12095
3110.34843,0.12050
3109.31817,0.11963
3108.28791,0.11850
3107.25765,0.11759
3106.22740,0.11685
3105.19714,0.11601
3104.16688,0.11510
3103.13662,0.11452
3102.10636,0.11411
3101.07611,0.11344
3100.04585,0.11277
3099.01559,0.11215
3097.98533,0.11118
3096.95507,0.10980
3095.92482,0.10849
3094.89456,0.10779
3093.86430,0.10755
3092.83404,0.10713
3091.80379,0.10620
3090.77353,0.10505
3089.74327,0.10416
3088.71301,0.10362
3087.68275,0.10311
3086.65250,0.10259
3085.62224,0.10202
3084.59198,0.10130
3083.56172,0.10071
3082.53147,0.10009
3081.50121,0.09935
3080.47095,0.09886
3079.44069,0.09836
3078.41043,0.09762
3077.38018,0.09712
3076.34992,0.09668
3075.31966,0.09595
3074.28940,0.09522
3073.25914,0.09459
3072.22889,0.09402
3071.19863,0.09341
3070.16837,0.09260
3069.13811,0.09176
3068.10786,0.09120
3067.07760,0.09077
3066.04734,0.09015
3065.01708,0.08942
3063.98682,0.08891
3062.95657,0.08853
3061.92631,0.08785
3060.89605,0.08697
3059.86579,0.08633
3058.83553,0.08583
3057.80528,0.08538
3056.77502,0.08496
3055.74476,0.08456
3054.71450,0.08416
3053.68425,0.08363
3052.65399,0.08311
3051.62373,0.08255
3050.59347,0.08199
3049.56321,0.08155
3048.53296,0.08115
3047.50270,0.08082
3046.47244,0.08036
3045.44218,0.07975
3044.41192,0.07951
3043.38167,0.07931
3042.35141,0.07865
3041.32115,0.07792
3040.29089,0.07726
3039.26064,0.07681
3038.23038,0.07678
3037.20012,0.07667
3036.16986,0.07596
3035.13960,0.07518
3034.10935,0.07501
3033.07909,0.07489
3032.04883,0.07441
3031.01857,0.07399
3029.98832,0.07354
3028.95806,0.07269
3027.92780,0.07179
3026.89754,0.07132
3025.86728,0.07099
3024.83703,0.07053
3023.80677,0.07011
3022.77651,0.06958
3021.74625,0.06870
3020.71599,0.06795
3019.68574,0.06761
3018.65548,0.06748
3017.62522,0.06738
3016.59496,0.06714
3015.56471,0.06678
3014.53445,0.06633
3013.50419,0.06563
3012.47393,0.06486
3011.44367,0.06441
3010.41342,0.06409
3009.38316,0.06372
3008.35290,0.06326
3007.32264,0.06259
3006.29238,0.06195
3005.26213,0.06149
3004.23187,0.06131
3003.20161,0.06145
3002.17135,0.06143
3001.14110,0.06102
3000.11084,0.06042
2999.08058,0.05983
2998.05032,0.05946
2997.02006,0.05929
2995.98981,0.05912
2994.95955,0.05882
2993.92929,0.05853
2992.89903,0.05823
2991.86877,0.05778
2990.83852,0.05784
2989.80826,0.05839
2988.77800,0.05864
2987.74774,0.05868
2986.71749,0.05882
2985.68723,0.05888
2984.65697,0.05889
2983.62671,0.05910
2982.59645,0.05920
2981.56620,0.05894
2980.53594,0.05892
2979.50568,0.05946
2978.47542,0.06013
2977.44517,0.06054
2976.41491,0.06093
2975.38465,0.06169
2974.35439,0.06238
2973.32413,0.06295
2972.29388,0.06384
2971.26362,0.06463
2970.23336,0.06513
2969.20310,0.06581
2968.17284,0.06654
2967.14259,0.06700
2966.11233,0.06753
2965.08207,0.06837
2964.05181,0.06929
2963.02156,0.06998
2961.99130,0.07033
2960.96104,0.07063
2959.93078,0.07103
2958.90052,0.07144
2957.87027,0.07190
2956.84001,0.07239
2955.80975,0.07279
2954.77949,0.07303
2953.74923,0.07338
2952.71898,0.07392
2951.68872,0.07417
2950.65846,0.07409
2949.62820,0.07411
2948.59795,0.07433
2947.56769,0.07438
2946.53743,0.07429
2945.50717,0.07468
2944.47691,0.07552
2943.44666,0.07600
2942.41640,0.07585
2941.38614,0.07559
2940.35588,0.07584
2939.32562,0.07632
2938.29537,0.07649
2937.26511,0.07664
2936.23485,0.07720
2935.20459,0.07803
2934.17434,0.07862
2933.14408,0.07871
2932.11382,0.07875
2931.08356,0.07906
2930.05330,0.07955
2929.02305,0.08019
2927.99279,0.08072
2926.96253,0.08092
2925.93227,0.08101
2924.90202,0.08143
2923.87176,0.08204
2922.84150,0.08242
2921.81124,0.08275
2920.78098,0.08318
2919.75073,0.08341
2918.72047,0.08343
2917.69021,0.08339
2916.65995,0.08338
2915.62969,0.08352
2914.59944,0.08350
2913.56918,0.08312
2912.53892,0.08267
2911.50866,0.08232
2910.47841,0.08207
2909.44815,0.08182
2908.41789,0.08151
2907.38763,0.08092
2906.35737,0.08009
2905.32712,0.07964
2904.29686,0.07941
2903.26660,0.07902
2902.23634,0.07880
2901.20608,0.07846
2900.17583,0.07755
2899.14557,0.07662
2898.11531,0.07638
2897.08505,0.07671
2896.05480,0.07701
2895.02454,0.07709
2893.99428,0.07711
2892.96402,0.07693
2891.93376,0.07656
2890.90351,0.07661
2889.87325,0.07715
2888.84299,0.07756
2887.81273,0.07773
2886.78247,0.07805
2885.75222,0.07881
2884.72196,0.07968
2883.69170,0.08009
2882.66144,0.08003
2881.63119,0.07995
2880.60093,0.08006
2879.57067,0.07998
2878.54041,0.07953
2877.51015,0.07903
2876.47990,0.07865
2875.44964,0.07825
2874.41938,0.07757
2873.38912,0.07656
2872.35887,0.07548
2871.32861,0.07436
2870.29835,0.07314
2869.26809,0.07174
2868.23783,0.07019
2867.20758,0.06870
2866.17732,0.06718
2865.14706,0.06563
2864.11680,0.06425
2863.08654,0.06285
2862.05629,0.06125
2861.02603,0.05968
2859.99577,0.05841
2858.96551,0.05726
2857.93526,0.05581
2856.90500,0.05431
2855.87474,0.05310
2854.84448,0.05193
2853.81422,0.05059
2852.78397,0.04913
2851.75371,0.04795
2850.72345,0.04710
2849.69319,0.04627
2848.66293,0.04564
2847.63268,0.04511
2846.60242,0.04411
2845.57216,0.04300
2844.54190,0.04238
2843.51165,0.04197
2842.48139,0.04140
2841.45113,0.04063
2840.42087,0.03996
2839.39061,0.03967
2838.36036,0.03938
2837.33010,0.03871
2836.29984,0.03794
2835.26958,0.03744
2834.23933,0.03708
2833.20907,0.03684
2832.17881,0.03675
2831.14855,0.03667
2830.11829,0.03650
2829.08804,0.03621
2828.05778,0.03565
2827.02752,0.03491
2825.99726,0.03447
2824.96700,0.03434
2823.93675,0.03392
2822.90649,0.03332
2821.87623,0.03305
2820.84597,0.03285
2819.81572,0.03251
2818.78546,0.03210
2817.75520,0.03154
2816.72494,0.03099
2815.69468,0.03071
2814.66443,0.03051
2813.63417,0.03027
2812.60391,0.02988
2811.57365,0.02940
2810.54339,0.02902
2809.51314,0.02865
2808.48288,0.02839
2807.45262,0.02830
2806.42236,0.02817
2805.39211,0.02786
2804.36185,0.02744
2803.33159,0.02724
2802.30133,0.02704
2801.27107,0.02664
2800.24082,0.02621
2799.21056,0.02578
2798.18030,0.02556
2797.15004,0.02555
2796.11978,0.02546
2795.08953,0.02529
2794.05927,0.02497
2793.02901,0.02446
2791.99875,0.02418
2790.96850,0.02411
2789.93824,0.02399
2788.90798,0.02385
2787.87772,0.02363
2786.84746,0.02327
2785.81721,0.02281
2784.78695,0.02228
2783.75669,0.02186
2782.72643,0.02173
2781.69618,0.02182
2780.66592,0.02178
2779.63566,0.02135
2778.60540,0.02085
2777.57514,0.02060
2776.54489,0.02056
2775.51463,0.02044
2774.48437,0.02009
2773.45411,0.01991
2772.42385,0.01995
2771.39360,0.01990
2770.36334,0.01987
2769.33308,0.01986
2768.30282,0.01960
2767.27257,0.01936
2766.24231,0.01944
2765.21205,0.01958
2764.18179,0.01956
2763.15153,0.01950
2762.12128,0.01946
2761.09102,0.01939
2760.06076,0.01908
2759.03050,0.01847
2758.00024,0.01811
2756.96999,0.01827
2755.93973,0.01857
2754.90947,0.01882
2753.87921,0.01896
2752.84896,0.01890
2751.81870,0.01854
2750.78844,0.01802
2749.75818,0.01772
2748.72792,0.01776
2747.69767,0.01792
2746.66741,0.01783
2745.63715,0.01747
2744.60689,0.01731
2743.57663,0.01738
2742.54638,0.01725
2741.51612,0.01691
2740.48586,0.01678
2739.45560,0.01688
2738.42535,0.01671
2737.39509,0.01627
2736.36483,0.01602
2735.33457,0.01608
2734.30431,0.01613
2733.27406,0.01600
2732.24380,0.01584
2731.21354,0.01560
2730.18328,0.01527
2729.15303,0.01514
2728.12277,0.01536
2727.09251,0.01560
2726.06225,0.01564
2725.03199,0.01555
2724.00174,0.01534
2722.97148,0.01504
2721.94122,0.01473
2720.91096,0.01449
2719.88070,0.01433
2718.85045,0.01421
2717.82019,0.01426
2716.78993,0.01435
2715.75967,0.01414
2714.72942,0.01377
2713.69916,0.01354
2712.66890,0.01368
2711.63864,0.01404
2710.60838,0.01413
2709.57813,0.01388
2708.54787,0.01363
2707.51761,0.01338
2706.48735,0.01315
2705.45709,0.01326
2704.42684,0.01349
2703.39658,0.01340
2702.36632,0.01331
2701.33606,0.01328
2700.30581,0.01307
2699.27555,0.01289
2698.24529,0.01274
2697.21503,0.01242
2696.18477,0.01209
2695.15452,0.01194
2694.12426,0.01203
2693.09400,0.01220
2692.06374,0.01214
2691.03348,0.01194
2690.00323,0.01180
2688.97297,0.01169
2687.94271,0.01152
2686.91245,0.01131
2685.88220,0.01119
2684.85194,0.01122
2683.82168,0.01123
2682.79142,0.01115
2681.76116,0.01115
2680.73091,0.01121
2679.70065,0.01113
2678.67039,0.01077
2677.64013,0.01025
2676.60988,0.00984
2675.57962,0.00970
2674.54936,0.01003
2673.51910,0.01050
2672.48884,0.01054
2671.45859,0.01035
2670.42833,0.01044
2669.39807,0.01068
2668.36781,0.01059
2667.33755,0.01040
2666.30730,0.01043
2665.27704,0.01041
2664.24678,0.01005
2663.21652,0.00959
2662.18627,0.00948
2661.15601,0.00969
2660.12575,0.00998
2659.09549,0.01005
2658.06523,0.00989
2657.03498,0.00977
2656.00472,0.00974
2654.97446,0.00964
2653.94420,0.00939
2652.91394,0.00901
2651.88369,0.00876
2650.85343,0.00885
2649.82317,0.00895
2648.79291,0.00877
2647.76266,0.00842
2646.73240,0.00809
2645.70214,0.00794
2644.67188,0.00812
2643.64162,0.00855
2642.61137,0.00870
2641.58111,0.00843
2640.55085,0.00818
2639.52059,0.00837
2638.49033,0.00860
2637.46008,0.00839
2636.42982,0.00822
2635.39956,0.00836
2634.36930,0.00853
2633.33905,0.00860
2632.30879,0.00871
2631.27853,0.00891
2630.24827,0.00906
2629.21801,0.00909
2628.18776,0.00900
2627.15750,0.00875
2626.12724,0.00866
2625.09698,0.00871
2624.06673,0.00837
2623.03647,0.00788
2622.00621,0.00783
2620.97595,0.00810
2619.94569,0.00821
2618.91544,0.00814
2617.88518,0.00805
2616.85492,0.00781
2615.82466,0.00739
2614.79440,0.00724
2613.76415,0.00749
2612.73389,0.00762
2611.70363,0.00764
2610.67337,0.00787
2609.64312,0.00803
2608.61286,0.00794
2607.58260,0.00775
2606.55234,0.00755
2605.52208,0.00736
2604.49183,0.00714
2603.46157,0.00718
2602.43131,0.00736
2601.40105,0.00711
2600.37079,0.00685
2599.34054,0.00698
2598.31028,0.00707
2597.28002,0.00707
2596.24976,0.00711
2595.21951,0.00699
2594.18925,0.00680
2593.15899,0.00683
2592.12873,0.00688
2591.09847,0.00698
2590.06822,0.00730
2589.03796,0.00722
2588.00770,0.00664
2586.97744,0.00653
2585.94718,0.00690
2584.91693,0.00708
2583.88667,0.00691
2582.85641,0.00669
2581.82615,0.00689
2580.79590,0.00742
2579.76564,0.00761
2578.73538,0.00733
2577.70512,0.00710
2576.67486,0.00704
2575.64461,0.00684
2574.61435,0.00636
2573.58409,0.00623
2572.55383,0.00673
2571.52358,0.00699
2570.49332,0.00685
2569.46306,0.00696
2568.43280,0.00701
2567.40254,0.00665
2566.37229,0.00682
2565.34203,0.00762
2564.31177,0.00778
2563.28151,0.00720
2562.25125,0.00681
2561.22100,0.00672
2560.19074,0.00663
2559.16048,0.00673
2558.13022,0.00700
2557.09997,0.00682
2556.06971,0.00624
2555.03945,0.00594
2554.00919,0.00615
2552.97893,0.00663
2551.94868,0.00687
2550.91842,0.00667
2549.88816,0.00626
2548.85790,0.00614
2547.82764,0.00631
2546.79739,0.00650
2545.76713,0.00679
2544.73687,0.00687
2543.70661,0.00654
2542.67636,0.00616
2541.64610,0.00608
2540.61584,0.00643
2539.58558,0.00711
2538.55532,0.00756
2537.52507,0.00750
2536.49481,0.00730
2535.46455,0.00704
2534.43429,0.00665
2533.40403,0.00640
2532.37378,0.00629
2531.34352,0.00613
2530.31326,0.00624
2529.28300,0.00675
2528.25275,0.00708
2527.22249,0.00695
2526.19223,0.00667
2525.16197,0.00668
2524.13171,0.00712
2523.10146,0.00761
2522.07120,0.00780
2521.04094,0.00761
2520.01068,0.00690
2518.98043,0.00599
2517.95017,0.00551
2516.91991,0.00579
2515.88965,0.00655
2514.85939,0.00704
2513.82914,0.00679
2512.79888,0.00631
2511.76862,0.00616
2510.73836,0.00616
2509.70810,0.00611
2508.67785,0.00617
2507.64759,0.00602
2506.61733,0.00573
2505.58707,0.00568
2504.55682,0.00578
2503.52656,0.00589
2502.49630,0.00564
2501.46604,0.00549
2500.43578,0.00600
2499.40553,0.00667
2498.37527,0.00703
2497.34501,0.00701
2496.31475,0.00679
2495.28449,0.00680
2494.25424,0.00699
2493.22398,0.00695
2492.19372,0.00716
2491.16346,0.00772
2490.13321,0.00774
2489.10295,0.00705
2488.07269,0.00636
2487.04243,0.00619
2486.01217,0.00618
2484.98192,0.00606
2483.95166,0.00616
2482.92140,0.00638
2481.89114,0.00640
2480.86088,0.00645
2479.83063,0.00666
2478.80037,0.00685
2477.77011,0.00717
2476.73985,0.00754
2475.70960,0.00784
2474.67934,0.00792
2473.64908,0.00767
2472.61882,0.00732
2471.58856,0.00720
2470.55831,0.00730
2469.52805,0.00712
2468.49779,0.00657
2467.46753,0.00637
2466.43728,0.00671
2465.40702,0.00694
2464.37676,0.00690
2463.34650,0.00689
2462.31624,0.00719
2461.28599,0.00757
2460.25573,0.00750
2459.22547,0.00734
2458.19521,0.00743
2457.16495,0.00740
2456.13470,0.00716
2455.10444,0.00703
2454.07418,0.00711
2453.04392,0.00715
2452.01367,0.00711
2450.98341,0.00712
2449.95315,0.00719
2448.92289,0.00710
2447.89263,0.00697
2446.86238,0.00725
2445.83212,0.00777
2444.80186,0.00769
2443.77160,0.00704
2442.74134,0.00682
2441.71109,0.00703
2440.68083,0.00694
2439.65057,0.00687
2438.62031,0.00736
2437.59006,0.00815
2436.55980,0.00838
2435.52954,0.00771
2434.49928,0.00673
2433.46902,0.00603
2432.43877,0.00594
2431.40851,0.00643
2430.37825,0.00712
2429.34799,0.00791
2428.31774,0.00835
2427.28748,0.00816
2426.25722,0.00782
2425.22696,0.00762
2424.19670,0.00757
2423.16645,0.00781
2422.13619,0.00795
2421.10593,0.00762
2420.07567,0.00736
2419.04541,0.00758
2418.01516,0.00778
2416.98490,0.00773
2415.95464,0.00775
2414.92438,0.00782
2413.89413,0.00785
2412.86387,0.00802
2411.83361,0.00834
2410.80335,0.00848
2409.77309,0.00836
2408.74284,0.00811
2407.71258,0.00785
2406.68232,0.00778
2405.65206,0.00769
2404.62180,0.00761
2403.59155,0.00784
2402.56129,0.00824
2401.53103,0.00861
2400.50077,0.00852
2399.47052,0.00796
2398.44026,0.00767
2397.41000,0.00786
2396.37974,0.00832
2395.34948,0.00879
2394.31923,0.00887
2393.28897,0.00872
2392.25871,0.00871
2391.22845,0.00873
2390.19819,0.00871
2389.16794,0.00879
2388.13768,0.00908
2387.10742,0.00949
2386.07716,0.00963
2385.04691,0.00958
2384.01665,0.00961
2382.98639,0.00971
2381.95613,0.01028
2380.92587,0.01127
2379.89562,0.01168
2378.86536,0.01132
2377.83510,0.01141
2376.80484,0.01211
2375.77459,0.01263
2374.74433,0.01287
2373.71407,0.01315
2372.68381,0.01392
2371.65355,0.01491
2370.62330,0.01570
2369.59304,0.01638
2368.56278,0.01680
2367.53252,0.01709
2366.50226,0.01758
2365.47201,0.01892
2364.44175,0.02133
2363.41149,0.02308
2362.38123,0.02274
2361.35098,0.02114
2360.32072,0.02001
2359.29046,0.01944
2358.26020,0.01805
2357.22994,0.01645
2356.19969,0.01637
2355.16943,0.01700
2354.13917,0.01692
2353.10891,0.01680
2352.07865,0.01699
2351.04840,0.01689
2350.01814,0.01624
2348.98788,0.01556
2347.95762,0.01552
2346.92737,0.01605
2345.89711,0.01652
2344.86685,0.01639
2343.83659,0.01623
2342.80633,0.01693
2341.77608,0.01799
2340.74582,0.01840
2339.71556,0.01807
2338.68530,0.01786
2337.65504,0.01815
2336.62479,0.01823
2335.59453,0.01785
2334.56427,0.01754
2333.53401,0.01742
2332.50376,0.01722
2331.47350,0.01703
2330.44324,0.01746
2329.41298,0.01799
2328.38272,0.01740
2327.35247,0.01624
2326.32221,0.01553
2325.29195,0.01556
2324.26169,0.01610
2323.23144,0.01664
2322.20118,0.01689
2321.17092,0.01659
2320.14066,0.01535
2319.11040,0.01396
2318.08015,0.01360
2317.04989,0.01365
2316.01963,0.01343
2314.98937,0.01362
2313.95911,0.01419
2312.92886,0.01394
2311.89860,0.01289
2310.86834,0.01259
2309.83808,0.01304
2308.80783,0.01307
2307.77757,0.01282
2306.74731,0.01292
2305.71705,0.01317
2304.68679,0.01318
2303.65654,0.01282
2302.62628,0.01230
2301.59602,0.01192
2300.56576,0.01149
2299.53550,0.01114
2298.50525,0.01130
2297.47499,0.01146
2296.44473,0.01154
2295.41447,0.01202
2294.38422,0.01231
2293.35396,0.01205
2292.32370,0.01186
2291.29344,0.01216
2290.26318,0.01280
2289.23293,0.01309
2288.20267,0.01257
2287.17241,0.01167
2286.14215,0.01115
2285.11189,0.01110
2284.08164,0.01088
2283.05138,0.01058
2282.02112,0.01105
2280.99086,0.01155
2279.96061,0.01125
2278.93035,0.01142
2277.90009,0.01225
2276.86983,0.01267
2275.83957,0.01264
2274.80932,0.01250
2273.77906,0.01212
2272.74880,0.01105
2271.71854,0.00978
2270.68829,0.00978
2269.65803,0.01082
2268.62777,0.01122
2267.59751,0.01070
2266.56725,0.01028
2265.53700,0.01059
2264.50674,0.01106
2263.47648,0.01133
2262.44622,0.01189
2261.41596,0.01288
2260.38571,0.01350
2259.35545,0.01269
2258.32519,0.01123
2257.29493,0.01098
2256.26468,0.01149
2255.23442,0.01133
2254.20416,0.01051
2253.17390,0.00995
2252.14364,0.01015
2251.11339,0.01083
2250.08313,0.01161
2249.05287,0.01160
2248.02261,0.01092
2246.99235,0.01072
2245.96210,0.01133
2244.93184,0.01223
2243.90158,0.01262
2242.87132,0.01276
2241.84107,0.01318
2240.81081,0.01327
2239.78055,0.01318
2238.75029,0.01329
2237.72003,0.01265
2236.68978,0.01172
2235.65952,0.01187
2234.62926,0.01274
2233.59900,0.01342
2232.56874,0.01347
2231.53849,0.01307
2230.50823,0.01291
2229.47797,0.01342
2228.44771,0.01396
2227.41746,0.01380
2226.38720,0.01340
2225.35694,0.01360
2224.32668,0.01369
2223.29642,0.01258
2222.26617,0.01192
2221.23591,0.01257
2220.20565,0.01251
2219.17539,0.01222
2218.14514,0.01348
2217.11488,0.01473
2216.08462,0.01431
2215.05436,0.01320
2214.02410,0.01236
2212.99385,0.01196
2211.96359,0.01203
2210.93333,0.01228
2209.90307,0.01226
2208.87281,0.01219
2207.84256,0.01256
2206.81230,0.01287
2205.78204,0.01312
2204.75178,0.01336
2203.72153,0.01351
2202.69127,0.01412
2201.66101,0.01417
2200.63075,0.01264
2199.60049,0.01146
2198.57024,0.01186
2197.53998,0.01174
2196.50972,0.01077
2195.47946,0.01091
2194.44920,0.01247
2193.41895,0.01409
2192.38869,0.01502
2191.35843,0.01555
2190.32817,0.01588
2189.29792,0.01589
2188.26766,0.01473
2187.23740,0.01306
2186.20714,0.01247
2185.17688,0.01273
2184.14663,0.01295
2183.11637,0.01384
2182.08611,0.01549
2181.05585,0.01558
2180.02559,0.01410
2178.99534,0.01284
2177.96508,0.01226
2176.93482,0.01271
2175.90456,0.01378
2174.87431,0.01423
2173.84405,0.01403
2172.81379,0.01365
2171.78353,0.01289
2170.75327,0.01262
2169.72302,0.01310
2168.69276,0.01386
2167.66250,0.01528
2166.63224,0.01606
2165.60199,0.01491
2164.57173,0.01406
2163.54147,0.01437
2162.51121,0.01349
2161.48095,0.01229
2160.45070,0.01211
2159.42044,0.01245
2158.39018,0.01354
2157.35992,0.01413
2156.32966,0.01402
2155.29941,0.01375
2154.26915,0.01303
2153.23889,0.01238
2152.20863,0.01254
2151.17838,0.01360
2150.14812,0.01504
2149.11786,0.01593
2148.08760,0.01560
2147.05734,0.01498
2146.02709,0.01541
2144.99683,0.01579
2143.96657,0.01524
2142.93631,0.01517
2141.90605,0.01576
2140.87580,0.01571
2139.84554,0.01545
2138.81528,0.01681
2137.78502,0.01821
2136.75477,0.01712
2135.72451,0.01491
2134.69425,0.01326
2133.66399,0.01327
2132.63373,0.01491
2131.60348,0.01602
2130.57322,0.01597
2129.54296,0.01589
2128.51270,0.01616
2127.48244,0.01664
2126.45219,0.01708
2125.42193,0.01734
2124.39167,0.01733
2123.36141,0.01685
2122.33116,0.01627
2121.30090,0.01589
2120.27064,0.01547
2119.24038,0.01510
2118.21012,0.01601
2117.17987,0.01759
2116.14961,0.01758
2115.11935,0.01664
2114.08909,0.01682
2113.05884,0.01771
2112.02858,0.01781
2110.99832,0.01696
2109.96806,0.01583
2108.93780,0.01539
2107.90755,0.01562
2106.87729,0.01543
2105.84703,0.01523
2104.81677,0.01554
2103.78651,0.01544
2102.75626,0.01469
2101.72600,0.01426
2100.69574,0.01428
2099.66548,0.01418
2098.63523,0.01418
2097.60497,0.01481
2096.57471,0.01573
2095.54445,0.01597
2094.51419,0.01554
2093.48394,0.01511
2092.45368,0.01513
2091.42342,0.01532
2090.39316,0.01525
2089.36290,0.01502
2088.33265,0.01478
2087.30239,0.01472
2086.27213,0.01415
2085.24187,0.01302
2084.21162,0.01311
2083.18136,0.01434
2082.15110,0.01544
2081.12084,0.01581
2080.09058,0.01509
2079.06033,0.01434
2078.03007,0.01468
2076.99981,0.01524
2075.96955,0.01496
2074.93930,0.01413
2073.90904,0.01373
2072.87878,0.01447
2071.84852,0.01498
2070.81826,0.01434
2069.78801,0.01367
2068.75775,0.01333
2067.72749,0.01333
2066.69723,0.01357
2065.66697,0.01340
2064.63672,0.01294
2063.60646,0.01321
2062.57620,0.01443
2061.54594,0.01506
2060.51569,0.01436
2059.48543,0.01368
2058.45517,0.01423
2057.42491,0.01554
2056.39465,0.01556
2055.36440,0.01459
2054.33414,0.01459
2053.30388,0.01445
2052.27362,0.01345
2051.24336,0.01298
2050.21311,0.01366
2049.18285,0.01430
2048.15259,0.01421
2047.12233,0.01391
2046.09208,0.01269
2045.06182,0.01145
2044.03156,0.01206
2043.00130,0.01368
2041.97104,0.01397
2040.94079,0.01254
2039.91053,0.01212
2038.88027,0.01328
2037.85001,0.01345
2036.81975,0.01224
2035.78950,0.01121
2034.75924,0.01167
2033.72898,0.01231
2032.69872,0.01160
2031.66847,0.01188
2030.63821,0.01401
2029.60795,0.01545
2028.57769,0.01450
2027.54743,0.01261
2026.51718,0.01235
2025.48692,0.01276
2024.45666,0.01149
2023.42640,0.01007
2022.39615,0.00957
2021.36589,0.00840
2020.33563,0.00685
2019.30537,0.00608
2018.27511,0.00654
2017.24486,0.00809
2016.21460,0.00996
2015.18434,0.01158
2014.15408,0.01272
2013.12382,0.01312
2012.09357,0.01237
2011.06331,0.01067
2010.03305,0.00949
2009.00279,0.00957
2007.97254,0.01023
2006.94228,0.01123
2005.91202,0.01223
2004.88176,0.01296
2003.85150,0.01343
2002.82125,0.01317
2001.79099,0.01308
2000.76073,0.01332
1999.73047,0.01235
1998.70021,0.01087
1997.66996,0.00982
1996.63970,0.00874
1995.60944,0.00842
1994.57918,0.00939
1993.54893,0.01000
1992.51867,0.00949
1991.48841,0.01010
1990.45815,0.01203
1989.42789,0.01264
1988.39764,0.01181
1987.36738,0.01055
1986.33712,0.00942
1985.30686,0.00915
1984.27660,0.00974
1983.24635,0.01067
1982.21609,0.01178
1981.18583,0.01236
1980.15557,0.01127
1979.12532,0.00925
1978.09506,0.00893
1977.06480,0.01070
1976.03454,0.01119
1975.00428,0.00969
1973.97403,0.00984
1972.94377,0.01197
1971.91351,0.01264
1970.88325,0.01135
1969.85300,0.00950
1968.82274,0.00799
1967.79248,0.00769
1966.76222,0.00802
1965.73196,0.00835
1964.70171,0.00907
1963.67145,0.01027
1962.64119,0.01128
1961.61093,0.01114
1960.58067,0.01009
1959.55042,0.00959
1958.52016,0.01001
1957.48990,0.00991
1956.45964,0.00840
1955.42939,0.00706
1954.39913,0.00783
1953.36887,0.00970
1952.33861,0.01033
1951.30835,0.01009
1950.27810,0.01051
1949.24784,0.01077
1948.21758,0.01004
1947.18732,0.00932
1946.15706,0.00927
1945.12681,0.01013
1944.09655,0.01139
1943.06629,0.01150
1942.03603,0.01038
1941.00578,0.00953
1939.97552,0.00942
1938.94526,0.00945
1937.91500,0.00958
1936.88474,0.01015
1935.85449,0.01034
1934.82423,0.00962
1933.79397,0.00891
1932.76371,0.00924
1931.73345,0.01002
1930.70320,0.01029
1929.67294,0.01032
1928.64268,0.01018
1927.61242,0.00990
1926.58217,0.00988
1925.55191,0.00993
1924.52165,0.00970
1923.49139,0.00959
1922.46113,0.01001
1921.43088,0.01029
1920.40062,0.00990
1919.37036,0.00891
1918.34010,0.00795
1917.30985,0.00829
1916.27959,0.00935
1915.24933,0.01001
1914.21907,0.00998
1913.18881,0.00917
1912.15856,0.00852
1911.12830,0.00871
1910.09804,0.00904
1909.06778,0.00872
1908.03752,0.00824
1907.00727,0.00848
1905.97701,0.00927
1904.94675,0.00990
1903.91649,0.00973
1902.88624,0.00902
1901.85598,0.00843
1900.82572,0.00783
1899.79546,0.00753
1898.76520,0.00791
1897.73495,0.00828
1896.70469,0.00840
1895.67443,0.00851
1894.64417,0.00866
1893.61391,0.00889
1892.58366,0.00909
1891.55340,0.00916
1890.52314,0.00903
1889.49288,0.00886
1888.46263,0.00893
1887.43237,0.00909
1886.40211,0.00911
1885.37185,0.00884
1884.34159,0.00857
1883.31134,0.00861
1882.28108,0.00867
1881.25082,0.00877
1880.22056,0.00927
1879.19030,0.00940
1878.16005,0.00859
1877.12979,0.00786
1876.09953,0.00785
1875.06927,0.00812
1874.03902,0.00835
1873.00876,0.00843
1871.97850,0.00833
1870.94824,0.00847
1869.91798,0.00897
1868.88773,0.00892
1867.85747,0.00832
1866.82721,0.00844
1865.79695,0.00919
1864.76670,0.00968
1863.73644,0.00958
1862.70618,0.00933
1861.67592,0.00934
1860.64566,0.00945
1859.61541,0.00938
1858.58515,0.00917
1857.55489,0.00896
1856.52463,0.00898
1855.49437,0.00905
1854.46412,0.00886
1853.43386,0.00895
1852.40360,0.00947
1851.37334,0.00961
1850.34309,0.00904
1849.31283,0.00867
1848.28257,0.00877
1847.25231,0.00870
1846.22205,0.00859
1845.19180,0.00850
1844.16154,0.00854
1843.13128,0.00911
1842.10102,0.00935
1841.07076,0.00917
1840.04051,0.00923
1839.01025,0.00956
1837.97999,0.00968
1836.94973,0.00947
1835.91948,0.00908
1834.88922,0.00893
1833.85896,0.00936
1832.82870,0.01007
1831.79844,0.01063
1830.76819,0.01057
1829.73793,0.00968
1828.70767,0.00921
1827.67741,0.00968
1826.64715,0.01017
1825.61690,0.01010
1824.58664,0.00977
1823.55638,0.00978
1822.52612,0.00993
1821.49587,0.01010
1820.46561,0.01039
1819.43535,0.01053
1818.40509,0.01040
1817.37483,0.01031
1816.34458,0.01021
1815.31432,0.00993
1814.28406,0.00981
1813.25380,0.00998
1812.22355,0.01019
1811.19329,0.01047
1810.16303,0.01066
1809.13277,0.01048
1808.10251,0.01038
1807.07226,0.01065
1806.04200,0.01077
1805.01174,0.01078
1803.98148,0.01105
1802.95122,0.01123
1801.92097,0.01121
1800.89071,0.01144
1799.86045,0.01168
1798.83019,0.01170
1797.79994,0.01164
1796.76968,0.01174
1795.73942,0.01210
1794.70916,0.01237
1793.67890,0.01228
1792.64865,0.01213
1791.61839,0.01231
1790.58813,0.01250
1789.55787,0.01237
1788.52761,0.01228
1787.49736,0.01244
1786.46710,0.01256
1785.43684,0.01242
1784.40658,0.01225
1783.37633,0.01247
1782.34607,0.01296
1781.31581,0.01327
1780.28555,0.01335
1779.25529,0.01345
1778.22504,0.01355
1777.19478,0.01346
1776.16452,0.01332
1775.13426,0.01345
1774.10400,0.01370
1773.07375,0.01365
1772.04349,0.01333
1771.01323,0.01358
1769.98297,0.01409
1768.95272,0.01413
1767.92246,0.01401
1766.89220,0.01446
1765.86194,0.01502
1764.83168,0.01524
1763.80143,0.01520
1762.77117,0.01498
1761.74091,0.01500
1760.71065,0.01567
1759.68040,0.01631
1758.65014,0.01659
1757.61988,0.01668
1756.58962,0.01681
1755.55936,0.01718
1754.52911,0.01759
1753.49885,0.01770
1752.46859,0.01748
1751.43833,0.01737
1750.40807,0.01758
1749.37782,0.01781
1748.34756,0.01806
1747.31730,0.01851
1746.28704,0.01906
1745.25679,0.01952
1744.22653,0.01986
1743.19627,0.02007
1742.16601,0.02018
1741.13575,0.02044
1740.10550,0.02084
1739.07524,0.02133
1738.04498,0.02210
1737.01472,0.02278
1735.98446,0.02285
1734.95421,0.02239
1733.92395,0.02224
1732.89369,0.02323
1731.86343,0.02421
1730.83318,0.02472
1729.80292,0.02507
1728.77266,0.02557
1727.74240,0.02609
1726.71214,0.02665
1725.68189,0.02744
1724.65163,0.02833
1723.62137,0.02903
1722.59111,0.02959
1721.56085,0.03014
1720.53060,0.03067
1719.50034,0.03108
1718.47008,0.03126
1717.43982,0.03173
1716.40957,0.03246
1715.37931,0.03329
1714.34905,0.03466
1713.31879,0.03601
1712.28853,0.03684
1711.25828,0.03744
1710.22802,0.03806
1709.19776,0.03883
1708.16750,0.03979
1707.13725,0.04086
1706.10699,0.04186
1705.07673,0.04299
1704.04647,0.04452
1703.01621,0.04580
1701.98596,0.04652
1700.95570,0.04697
1699.92544,0.04805
1698.89518,0.04992
1697.86492,0.05162
1696.83467,0.05307
1695.80441,0.05426
1694.77415,0.05547
1693.74389,0.05701
1692.71364,0.05886
1691.68338,0.06059
1690.65312,0.06195
1689.62286,0.06323
1688.59260,0.06487
1687.56235,0.06694
1686.53209,0.06890
1685.50183,0.07028
1684.47157,0.07147
1683.44131,0.07335
1682.41106,0.07510
1681.38080,0.07666
1680.35054,0.07846
1679.32028,0.08056
1678.29003,0.08265
1677.25977,0.08465
1676.22951,0.08641
1675.19925,0.08803
1674.16899,0.08980
1673.13874,0.09146
1672.10848,0.09307
1671.07822,0.09475
1670.04796,0.09641
1669.01771,0.09840
1667.98745,0.10058
1666.95719,0.10239
1665.92693,0.10415
1664.89667,0.10611
1663.86642,0.10813
1662.83616,0.10997
1661.80590,0.11141
1660.77564,0.11257
1659.74538,0.11387
1658.71513,0.11539
1657.68487,0.11704
1656.65461,0.11867
1655.62435,0.11996
1654.59410,0.12067
1653.56384,0.12040
1652.53358,0.12048
1651.50332,0.12233
1650.47306,0.12398
1649.44281,0.12491
1648.41255,0.12527
1647.38229,0.12562
1646.35203,0.12612
1645.32177,0.12655
1644.29152,0.12694
1643.26126,0.12699
1642.23100,0.12690
1641.20074,0.12697
1640.17049,0.12684
1639.14023,0.12634
1638.10997,0.12546
1637.07971,0.12449
1636.04945,0.12341
1635.01920,0.12185
1633.98894,0.12105
1632.95868,0.12043
1631.92842,0.11913
1630.89816,0.11763
1629.86791,0.11624
1628.83765,0.11462
1627.80739,0.11244
1626.77713,0.11024
1625.74688,0.10854
1624.71662,0.10688
1623.68636,0.10439
1622.65610,0.10145
1621.62584,0.09940
1620.59559,0.09756
1619.56533,0.09569
1618.53507,0.09420
1617.50481,0.09258
1616.47456,0.08964
1615.44430,0.08713
1614.41404,0.08545
1613.38378,0.08365
1612.35352,0.08194
1611.32327,0.08029
1610.29301,0.07853
1609.26275,0.07669
1608.23249,0.07478
1607.20223,0.07288
1606.17198,0.07109
1605.14172,0.06945
1604.11146,0.06804
1603.08120,0.06670
1602.05095,0.06528
1601.02069,0.06380
1599.99043,0.06256
1598.96017,0.06180
1597.92991,0.06110
1596.89966,0.06004
1595.86940,0.05886
1594.83914,0.05788
1593.80888,0.05707
1592.77862,0.05632
1591.74837,0.05545
1590.71811,0.05448
1589.68785,0.05355
1588.65759,0.05280
1587.62734,0.05197
1586.59708,0.05092
1585.56682,0.05004
1584.53656,0.04955
1583.50630,0.04916
1582.47605,0.04866
1581.44579,0.04803
1580.41553,0.04732
1579.38527,0.04679
1578.35501,0.04637
1577.32476,0.04595
1576.29450,0.04533
1575.26424,0.04471
1574.23398,0.04443
1573.20373,0.04404
1572.17347,0.04364
1571.14321,0.04341
1570.11295,0.04283
1569.08269,0.04194
1568.05244,0.04145
1567.02218,0.04110
1565.99192,0.04077
1564.96166,0.04045
1563.93141,0.04013
1562.90115,0.03990
1561.87089,0.03966
1560.84063,0.03927
1559.81037,0.03860
1558.78012,0.03767
1557.74986,0.03714
1556.71960,0.03733
1555.68934,0.03759
1554.65908,0.03760
1553.62883,0.03743
1552.59857,0.03731
1551.56831,0.03720
1550.53805,0.03698
1549.50780,0.03675
1548.47754,0.03664
1547.44728,0.03641
1546.41702,0.03602
1545.38676,0.03561
1544.35651,0.03551
1543.32625,0.03584
1542.29599,0.03594
1541.26573,0.03542
1540.23547,0.03456
1539.20522,0.03402
1538.17496,0.03422
1537.14470,0.03450
1536.11444,0.03464
1535.08419,0.03453
1534.05393,0.03409
1533.02367,0.03372
1531.99341,0.03396
1530.96315,0.03435
1529.93290,0.03440
1528.90264,0.03418
1527.87238,0.03412
1526.84212,0.03410
1525.81186,0.03371
1524.78161,0.03335
1523.75135,0.03347
1522.72109,0.03346
1521.69083,0.03283
1520.66058,0.03242
1519.63032,0.03286
1518.60006,0.03321
1517.56980,0.03296
1516.53954,0.03264
1515.50929,0.03280
1514.47903,0.03293
1513.44877,0.03304
1512.41851,0.03317
1511.38826,0.03321
1510.35800,0.03320
1509.32774,0.03302
1508.29748,0.03279
1507.26722,0.03307
1506.23697,0.03368
1505.20671,0.03391
1504.17645,0.03400
1503.14619,0.03418
1502.11593,0.03437
1501.08568,0.03440
1500.05542,0.03425
1499.02516,0.03414
1497.99490,0.03449
1496.96465,0.03517
1495.93439,0.03590
1494.90413,0.03660
1493.87387,0.03723
1492.84361,0.03792
1491.81336,0.03878
1490.78310,0.03985
1489.75284,0.04132
1488.72258,0.04274
1487.69232,0.04408
1486.66207,0.04632
1485.63181,0.04972
1484.60155,0.05381
1483.57129,0.05816
1482.54104,0.06217
1481.51078,0.06496
1480.48052,0.06595
1479.45026,0.06569
1478.42000,0.06522
1477.38975,0.06486
1476.35949,0.06488
1475.32923,0.06600
1474.29897,0.06776
1473.26871,0.06950
1472.23846,0.07106
1471.20820,0.07283
1470.17794,0.07465
1469.14768,0.07621
1468.11743,0.07737
1467.08717,0.07839
1466.05691,0.07922
1465.02665,0.07943
1463.99639,0.07921
1462.96614,0.07882
1461.93588,0.07817
1460.90562,0.07767
1459.87536,0.07736
1458.84511,0.07679
1457.81485,0.07612
1456.78459,0.07552
1455.75433,0.07527
1454.72407,0.07498
1453.69382,0.07405
1452.66356,0.07251
1451.63330,0.07063
1450.60304,0.06879
1449.57278,0.06723
1448.54253,0.06591
1447.51227,0.06460
1446.48201,0.06341
1445.45175,0.06230
1444.42150,0.06109
1443.39124,0.05970
1442.36098,0.05815
1441.33072,0.05664
1440.30046,0.05537
1439.27021,0.05419
1438.23995,0.05290
1437.20969,0.05115
1436.17943,0.04904
1435.14917,0.04795
1434.11892,0.04740
1433.08866,0.04677
1432.05840,0.04609
1431.02814,0.04528
1429.99789,0.04442
1428.96763,0.04387
1427.93737,0.04361
1426.90711,0.04341
1425.87685,0.04321
1424.84660,0.04287
1423.81634,0.04244
1422.78608,0.04218
1421.75582,0.04203
1420.72556,0.04169
1419.69531,0.04113
1418.66505,0.04095
1417.63479,0.04112
1416.60453,0.04107
1415.57428,0.04107
1414.54402,0.04135
1413.51376,0.04163
1412.48350,0.04168
1411.45324,0.04166
1410.42299,0.04180
1409.39273,0.04211
1408.36247,0.04268
1407.33221,0.04331
1406.30196,0.04376
1405.27170,0.04427
1404.24144,0.04507
1403.21118,0.04561
1402.18092,0.04570
1401.15067,0.04566
1400.12041,0.04530
1399.09015,0.04439
1398.05989,0.04369
1397.02963,0.04354
1395.99938,0.04331
1394.96912,0.04279
1393.93886,0.04239
1392.90860,0.04213
1391.87835,0.04187
1390.84809,0.04167
1389.81783,0.04155
1388.78757,0.04144
1387.75731,0.04138
1386.72706,0.04152
1385.69680,0.04171
1384.66654,0.04181
1383.63628,0.04199
1382.60602,0.04238
1381.57577,0.04293
1380.54551,0.04330
1379.51525,0.04329
1378.48499,0.04327
1377.45474,0.04352
1376.42448,0.04384
1375.39422,0.04404
1374.36396,0.04423
1373.33370,0.04473
1372.30345,0.04565
1371.27319,0.04662
1370.24293,0.04739
1369.21267,0.04820
1368.18241,0.04914
1367.15216,0.04998
1366.12190,0.05100
1365.09164,0.05247
1364.06138,0.05389
1363.03113,0.05512
1362.00087,0.05668
1360.97061,0.05876
1359.94035,0.06113
1358.91009,0.06365
1357.87984,0.06611
1356.84958,0.06863
1355.81932,0.07146
1354.78906,0.07446
1353.75881,0.07736
1352.72855,0.08011
1351.69829,0.08286
1350.66803,0.08508
1349.63777,0.08605
1348.60752,0.08539
1347.57726,0.08286
1346.54700,0.07830
1345.51674,0.07208
1344.48648,0.06538
1343.45623,0.05956
1342.42597,0.05538
1341.39571,0.05260
1340.36545,0.05053
1339.33520,0.04908
1338.30494,0.04839
1337.27468,0.04826
1336.24442,0.04842
1335.21416,0.04851
1334.18391,0.04833
1333.15365,0.04815
1332.12339,0.04822
1331.09313,0.04825
1330.06287,0.04821
1329.03262,0.04805
1328.00236,0.04753
1326.97210,0.04675
1325.94184,0.04610
1324.91159,0.04572
1323.88133,0.04531
1322.85107,0.04485
1321.82081,0.04457
1320.79055,0.04443
1319.76030,0.04441
1318.73004,0.04477
1317.69978,0.04555
1316.66952,0.04643
1315.63927,0.04726
1314.60901,0.04826
1313.57875,0.04952
1312.54849,0.05082
1311.51823,0.05207
1310.48798,0.05349
1309.45772,0.05508
1308.42746,0.05655
1307.39720,0.05773
1306.36694,0.05870
1305.33669,0.05954
1304.30643,0.06027
1303.27617,0.06102
1302.24591,0.06173
1301.21566,0.06226
1300.18540,0.06253
1299.15514,0.06256
1298.12488,0.06253
1297.09462,0.06252
1296.06437,0.06252
1295.03411,0.06249
1294.00385,0.06241
1292.97359,0.06226
1291.94333,0.06207
1290.91308,0.06214
1289.88282,0.06237
1288.85256,0.06229
1287.82230,0.06200
1286.79205,0.06184
1285.76179,0.06165
1284.73153,0.06105
1283.70127,0.06019
1282.67101,0.05933
1281.64076,0.05852
1280.61050,0.05774
1279.58024,0.05698
1278.54998,0.05609
1277.51972,0.05511
1276.48947,0.05428
1275.45921,0.05361
1274.42895,0.05296
1273.39869,0.05253
1272.36844,0.05245
1271.33818,0.05247
1270.30792,0.05243
1269.27766,0.05248
1268.24740,0.05269
1267.21715,0.05299
1266.18689,0.05342
1265.15663,0.05420
1264.12637,0.05545
1263.09612,0.05701
1262.06586,0.05867
1261.03560,0.06042
1260.00534,0.06213
1258.97508,0.06361
1257.94483,0.06493
1256.91457,0.06622
1255.88431,0.06763
1254.85405,0.06899
1253.82379,0.06992
1252.79354,0.07058
1251.76328,0.07128
1250.73302,0.07173
1249.70276,0.07179
1248.67251,0.07179
1247.64225,0.07182
1246.61199,0.07168
1245.58173,0.07135
1244.55147,0.07108
1243.52122,0.07095
1242.49096,0.07088
1241.46070,0.07082
1240.43044,0.07054
1239.40018,0.06981
1238.36993,0.06877
1237.33967,0.06757
1236.30941,0.06605
1235.27915,0.06414
1234.24890,0.06190
1233.21864,0.05948
1232.18838,0.05722
1231.15812,0.05511
1230.12786,0.05308
1229.09761,0.05132
1228.06735,0.04998
1227.03709,0.04894
1226.00683,0.04821
1224.97657,0.04767
1223.94632,0.04697
1222.91606,0.04608
1221.88580,0.04515
1220.85554,0.04420
1219.82529,0.04347
1218.79503,0.04306
1217.76477,0.04282
1216.73451,0.04251
1215.70425,0.04207
1214.67400,0.04157
1213.64374,0.04113
1212.61348,0.04081
1211.58322,0.04064
1210.55297,0.04058
1209.52271,0.04042
1208.49245,0.04007
1207.46219,0.03965
1206.43193,0.03947
1205.40168,0.03953
1204.37142,0.03954
1203.34116,0.03943
1202.31090,0.03930
1201.28064,0.03933
1200.25039,0.03938
1199.22013,0.03924
1198.18987,0.03901
1197.15961,0.03888
1196.12936,0.03889
1195.09910,0.03887
1194.06884,0.03879
1193.03858,0.03893
1192.00832,0.03924
1190.97807,0.03932
1189.94781,0.03927
1188.91755,0.03938
1187.88729,0.03949
1186.85703,0.03948
1185.82678,0.03955
1184.79652,0.03984
1183.76626,0.04004
1182.73600,0.04009
1181.70575,0.04036
1180.67549,0.04080
1179.64523,0.04118
1178.61497,0.04132
1177.58471,0.04130
1176.55446,0.04143
1175.52420,0.04166
1174.49394,0.04199
1173.46368,0.04254
1172.43342,0.04305
1171.40317,0.04345
1170.37291,0.04394
1169.34265,0.04452
1168.31239,0.04534
1167.28214,0.04644
1166.25188,0.04745
1165.22162,0.04826
1164.19136,0.04914
1163.16110,0.05030
1162.13085,0.05208
1161.10059,0.05431
1160.07033,0.05636
1159.04007,0.05854
1158.00982,0.06136
1156.97956,0.06446
1155.94930,0.06746
1154.91904,0.07048
1153.88878,0.07382
1152.85853,0.07751
1151.82827,0.08119
1150.79801,0.08493
1149.76775,0.08915
1148.73749,0.09362
1147.70724,0.09793
1146.67698,0.10197
1145.64672,0.10583
1144.61646,0.10961
1143.58621,0.11329
1142.55595,0.11693
1141.52569,0.12049
1140.49543,0.12381
1139.46517,0.12672
1138.43492,0.12927
1137.40466,0.13175
1136.37440,0.13420
1135.34414,0.13637
1134.31388,0.13812
1133.28363,0.13964
1132.25337,0.14132
1131.22311,0.14309
1130.19285,0.14481
1129.16260,0.14689
1128.13234,0.14927
1127.10208,0.15166
1126.07182,0.15442
1125.04156,0.15739
1124.01131,0.16011
1122.98105,0.16294
1121.95079,0.16619
1120.92053,0.16953
1119.89027,0.17277
1118.86002,0.17614
1117.82976,0.17961
1116.79950,0.18286
1115.76924,0.18602
1114.73899,0.18934
1113.70873,0.19277
1112.67847,0.19613
1111.64821,0.19935
1110.61795,0.20265
1109.58770,0.20618
1108.55744,0.20971
1107.52718,0.21306
1106.49692,0.21651
1105.46667,0.22014
1104.43641,0.22383
1103.40615,0.22769
1102.37589,0.23165
1101.34563,0.23552
1100.31538,0.23904
1099.28512,0.24224
1098.25486,0.24549
1097.22460,0.24856
1096.19434,0.25129
1095.16409,0.25403
1094.13383,0.25660
1093.10357,0.25878
1092.07331,0.26073
1091.04306,0.26265
1090.01280,0.26441
1088.98254,0.26573
1087.95228,0.26624
1086.92202,0.26593
1085.89177,0.26585
1084.86151,0.26643
1083.83125,0.26657
1082.80099,0.26607
1081.77073,0.26564
1080.74048,0.26493
1079.71022,0.26332
1078.67996,0.26112
1077.64970,0.25910
1076.61945,0.25728
1075.58919,0.25507
1074.55893,0.25228
1073.52867,0.24938
1072.49841,0.24691
1071.46816,0.24479
1070.43790,0.24238
1069.40764,0.23909
1068.37738,0.23514
1067.34712,0.23118
1066.31687,0.22704
1065.28661,0.22229
1064.25635,0.21718
1063.22609,0.21179
1062.19584,0.20585
1061.16558,0.19933
1060.13532,0.19268
1059.10506,0.18586
1058.07480,0.17860
1057.04455,0.17180
1056.01429,0.16552
1054.98403,0.15901
1053.95377,0.15264
1052.92352,0.14681
1051.89326,0.14113
1050.86300,0.13548
1049.83274,0.13044
1048.80248,0.12662
1047.77223,0.12390
1046.74197,0.12142
1045.71171,0.11865
1044.68145,0.11622
1043.65119,0.11470
1042.62094,0.11390
1041.59068,0.11345
1040.56042,0.11307
1039.53016,0.11277
1038.49991,0.11259
1037.46965,0.11215
1036.43939,0.11141
1035.40913,0.11068
1034.37887,0.10990
1033.34862,0.10908
1032.31836,0.10820
1031.28810,0.10676
1030.25784,0.10488
1029.22758,0.10313
1028.19733,0.10139
1027.16707,0.09944
1026.13681,0.09753
1025.10655,0.09588
1024.07630,0.09410
1023.04604,0.09176
1022.01578,0.08921
1020.98552,0.08694
1019.95526,0.08503
1018.92501,0.08345
1017.89475,0.08190
1016.86449,0.07988
1015.83423,0.07764
1014.80397,0.07576
1013.77372,0.07414
1012.74346,0.07259
1011.71320,0.07146
1010.68294,0.07066
1009.65269,0.06997
1008.62243,0.06945
1007.59217,0.06888
1006.56191,0.06822
1005.53165,0.06775
1004.50140,0.06742
1003.47114,0.06698
1002.44088,0.06637
1001.41062,0.06588
1000.38037,0.06594
999.35011,0.06641
998.31985,0.06661
997.28959,0.06625
996.25933,0.06568
995.22908,0.06557
994.19882,0.06594
993.16856,0.06622
992.13830,0.06635
991.10804,0.06658
990.07779,0.06670
989.04753,0.06633
988.01727,0.06562
986.98701,0.06518
985.95676,0.06525
984.92650,0.06535
983.89624,0.06521
982.86598,0.06491
981.83572,0.06456
980.80547,0.06448
979.77521,0.06475
978.74495,0.06495
977.71469,0.06497
976.68443,0.06509
975.65418,0.06529
974.62392,0.06547
973.59366,0.06547
972.56340,0.06562
971.53315,0.06633
970.50289,0.06722
969.47263,0.06820
968.44237,0.06967
967.41211,0.07164
966.38186,0.07391
965.35160,0.07646
964.32134,0.07912
963.29108,0.08192
962.26082,0.08539
961.23057,0.08988
960.20031,0.09514
959.17005,0.10096
958.13979,0.10739
957.10954,0.11398
956.07928,0.12051
955.04902,0.12754
954.01876,0.13491
952.98850,0.14163
951.95825,0.14753
950.92799,0.15305
949.89773,0.15753
948.86747,0.16019
947.83722,0.16161
946.80696,0.16219
945.77670,0.16123
944.74644,0.15866
943.71618,0.15526
942.68593,0.15118
941.65567,0.14664
940.62541,0.14257
939.59515,0.13909
938.56489,0.13539
937.53464,0.13145
936.50438,0.12819
935.47412,0.12571
934.44386,0.12359
933.41361,0.12161
932.38335,0.11940
931.35309,0.11713
930.32283,0.11512
929.29257,0.11349
928.26232,0.11226
927.23206,0.11102
926.20180,0.10957
925.17154,0.10830
924.14128,0.10714
923.11103,0.10596
922.08077,0.10534
921.05051,0.10534
920.02025,0.10485
918.99000,0.10376
917.95974,0.10323
916.92948,0.10314
915.89922,0.10264
914.86896,0.10213
913.83871,0.10203
912.80845,0.10188
911.77819,0.10153
910.74793,0.10111
909.71768,0.10044
908.68742,0.09958
907.65716,0.09902
906.62690,0.09883
905.59664,0.09875
904.56639,0.09849
903.53613,0.09789
902.50587,0.09731
901.47561,0.09736
900.44535,0.09801
899.41510,0.09878
898.38484,0.09915
897.35458,0.09931
896.32432,0.10010
895.29407,0.10154
894.26381,0.10291
893.23355,0.10421
892.20329,0.10581
891.17303,0.10753
890.14278,0.10918
889.11252,0.11060
888.08226,0.11181
887.05200,0.11305
886.02174,0.11410
884.99149,0.11461
883.96123,0.11480
882.93097,0.11528
881.90071,0.11575
880.87046,0.11559
879.84020,0.11529
878.80994,0.11548
877.77968,0.11596
876.74942,0.11656
875.71917,0.11721
874.68891,0.11774
873.65865,0.11828
872.62839,0.11878
871.59813,0.11918
870.56788,0.11978
869.53762,0.12072
868.50736,0.12195
867.47710,0.12325
866.44685,0.12410
865.41659,0.12462
864.38633,0.12568
863.35607,0.12748
862.32581,0.12942
861.29556,0.13090
860.26530,0.13173
859.23504,0.13261
858.20478,0.13413
857.17453,0.13581
856.14427,0.13701
855.11401,0.13821
854.08375,0.14012
853.05349,0.14223
852.02324,0.14404
850.99298,0.14577
849.96272,0.14769
848.93246,0.14994
847.90220,0.15198
846.87195,0.15352
845.84169,0.15529
844.81143,0.15712
843.78117,0.15816
842.75092,0.15927
841.72066,0.16113
840.69040,0.16277
839.66014,0.16411
838.62988,0.16568
837.59963,0.16739
836.56937,0.16887
835.53911,0.16997
834.50885,0.17117
833.47859,0.17203
832.44834,0.17188
831.41808,0.17181
830.38782,0.17228
829.35756,0.17284
828.32731,0.17364
827.29705,0.17407
826.26679,0.17403
825.23653,0.17466
824.20627,0.17560
823.17602,0.17562
822.14576,0.17566
821.11550,0.17701
820.08524,0.17867
819.05498,0.17967
818.02473,0.18050
816.99447,0.18160
815.96421,0.18249
814.93395,0.18322
813.90370,0.18434
812.87344,0.18552
811.84318,0.18634
810.81292,0.18712
809.78266,0.18775
808.75241,0.18787
807.72215,0.18811
806.69189,0.18905
805.66163,0.19070
804.63138,0.19271
803.60112,0.19422
802.57086,0.19494
801.54060,0.19567
800.51034,0.19642
799.48009,0.19689
798.44983,0.19787
797.41957,0.19933
796.38931,0.20059
795.35905,0.20136
794.32880,0.20183
793.29854,0.20255
792.26828,0.20387
791.23802,0.20516
790.20777,0.20621
789.17751,0.20760
788.14725,0.20867
787.11699,0.20930
786.08673,0.21050
785.05648,0.21231
784.02622,0.21428
782.99596,0.21580
781.96570,0.21661
780.93544,0.21706
779.90519,0.21775
778.87493,0.21890
777.84467,0.22036
776.81441,0.22225
775.78416,0.22405
774.75390,0.22521
773.72364,0.22620
772.69338,0.22740
771.66312,0.22879
770.63287,0.23043
769.60261,0.23232
768.57235,0.23393
767.54209,0.23543
766.51183,0.23777
765.48158,0.24032
764.45132,0.24231
763.42106,0.24456
762.39080,0.24728
761.36055,0.24978
760.33029,0.25233
759.30003,0.25487
758.26977,0.25681
757.23951,0.25861
756.20926,0.26029
755.17900,0.26100
754.14874,0.26091
753.11848,0.26062
752.08823,0.26055
751.05797,0.26117
750.02771,0.26232
748.99745,0.26312
747.96719,0.26344
746.93694,0.26403
745.90668,0.26475
744.87642,0.26533
743.84616,0.26652
742.81590,0.26807
741.78565,0.26888
740.75539,0.26957
739.72513,0.27093
738.69487,0.27240
737.66462,0.27370
736.63436,0.27515
735.60410,0.27690
734.57384,0.27834
733.54358,0.27903
732.51333,0.27954
731.48307,0.28003
730.45281,0.28087
729.42255,0.28252
728.39229,0.28402
727.36204,0.28508
726.33178,0.28670
725.30152,0.28887
724.27126,0.29049
723.24101,0.29176
722.21075,0.29328
721.18049,0.29476
720.15023,0.29610
719.11997,0.29688
718.08972,0.29699
717.05946,0.29726
716.02920,0.29886
714.99894,0.30133
713.96868,0.30287
712.93843,0.30383
711.90817,0.30550
710.87791,0.30775
709.84765,0.30914
708.81740,0.30916
707.78714,0.30970
706.75688,0.31212
705.72662,0.31451
704.69636,0.31492
703.66611,0.31474
702.63585,0.31546
701.60559,0.31681
700.57533,0.31801
699.54508,0.31915
698.51482,0.32136
697.48456,0.32418
696.45430,0.32611
695.42404,0.32742
694.39379,0.32822
693.36353,0.32825
692.33327,0.32870
691.30301,0.33005
690.27275,0.33134
689.24250,0.33214
688.21224,0.33319
687.18198,0.33525
686.15172,0.33762
685.12147,0.33863
684.09121,0.33861
683.06095,0.33892
682.03069,0.33959
681.00043,0.34112
679.97018,0.34354
678.93992,0.34510
677.90966,0.34572
676.87940,0.34723
675.84914,0.34943
674.81889,0.35067
673.78863,0.35091
672.75837,0.35116
671.72811,0.35180
670.69786,0.35272
669.66760,0.35455
668.63734,0.35782
667.60708,0.35866
666.57682,0.35684
665.54657,0.35644
664.51631,0.35681
663.48605,0.35749
662.45579,0.35860
661.42553,0.36033
660.39528,0.36286
659.36502,0.36500
658.33476,0.36529
657.30450,0.36497
656.27425,0.36577
655.24399,0.36714
654.21373,0.36816
653.18347,0.36878
652.15321,0.36928
651.12296,0.37018
650.09270,0.37200
649.06244,0.37429
648.03218,0.37498
647.00193,0.37410
645.97167,0.37403
644.94141,0.37462
643.91115,0.37546
642.88089,0.37730
641.85064,0.37938
640.82038,0.38076
639.79012,0.38057
638.75986,0.37945
637.72960,0.38009
636.69935,0.38200
635.66909,0.38276
634.63883,0.38315
633.60857,0.38438
632.57832,0.38591
631.54806,0.38678
630.51780,0.38644
629.48754,0.38616
628.45728,0.38655
627.42703,0.38747
626.39677,0.38953
625.36651,0.39166
624.33625,0.39322
623.30599,0.39468
622.27574,0.39444
621.24548,0.39313
620.21522,0.39337
619.18496,0.39492
618.15471,0.39629
617.12445,0.39679
616.09419,0.39731
615.06393,0.39794
614.03367,0.39754
613.00342,0.39718
611.97316,0.39808
610.94290,0.39954
609.91264,0.40070
608.88238,0.40127
607.85213,0.40118
606.82187,0.40030
605.79161,0.39991
604.76135,0.40124
603.73110,0.40316
602.70084,0.40516
601.67058,0.40644
600.64032,0.40688
599.61006,0.40825
598.57981,0.40924
597.54955,0.40813
596.51929,0.40733
595.48903,0.40923
594.45878,0.41185
593.42852,0.41195
592.39826,0.40992
591.36800,0.40970
590.33774,0.41298
589.30749,0.41623
588.27723,0.41703
587.24697,0.41670
586.21671,0.41592
585.18645,0.41557
584.15620,0.41738
583.12594,0.41897
582.09568,0.41811
581.06542,0.41667
580.03517,0.41600
579.00491,0.41684
577.97465,0.41913
576.94439,0.42117
575.91413,0.42201
574.88388,0.42236
573.85362,0.42348
572.82336,0.42422
571.79310,0.42368
570.76284,0.42335
569.73259,0.42398
568.70233,0.42448
567.67207,0.42321
566.64181,0.42216
565.61156,0.42331
564.58130,0.42451
563.55104,0.42446
562.52078,0.42427
561.49052,0.42514
560.46027,0.42740
559.43001,0.42931
558.39975,0.42953
557.36949,0.42973
556.33924,0.43097
555.30898,0.43219
554.27872,0.43288
553.24846,0.43261
552.21820,0.43118
551.18795,0.43036
550.15769,0.43107
549.12743,0.43248
548.09717,0.43418
547.06691,0.43560
546.03666,0.43542
545.00640,0.43443
543.97614,0.43365
542.94588,0.43330
541.91563,0.43510
540.88537,0.43736
539.85511,0.43704
538.82485,0.43619
537.79459,0.43831
536.76434,0.44133
535.73408,0.44066
534.70382,0.43767
533.67356,0.43610
532.64330,0.43704
531.61305,0.44050
530.58279,0.44496
529.55253,0.44688
528.52227,0.44656
527.49202,0.44609
526.46176,0.44409
525.43150,0.44266
524.40124,0.44529
523.37098,0.44910
522.34073,0.45213
521.31047,0.45413
520.28021,0.45371
519.24995,0.45338
518.21969,0.45423
517.18944,0.45379
516.15918,0.45315
515.12892,0.45471
514.09866,0.45745
513.06841,0.45835
512.03815,0.45869
511.00789,0.46182
509.97763,0.46697
508.94737,0.46967
507.91712,0.46824
506.88686,0.46629
505.85660,0.46525
504.82634,0.46463
503.79609,0.46667
502.76583,0.47069
501.73557,0.47219
500.70531,0.47329
499.67505,0.47812
498.64480,0.48046
497.61454,0.47627
496.58428,0.47136
495.55402,0.46945
494.52376,0.47077
493.49351,0.47161
492.46325,0.47020
491.43299,0.47017
490.40273,0.47023
489.37248,0.46810
488.34222,0.46406
487.31196,0.46115
486.28170,0.46164
485.25144,0.46243
484.22119,0.46208
483.19093,0.46158
482.16067,0.45971
481.13041,0.45537
480.10015,0.45319
479.06990,0.45601
478.03964,0.45772
477.00938,0.45529
475.97912,0.45309
474.94887,0.45365
473.91861,0.45509
472.88835,0.45669
471.85809,0.46018
470.82783,0.46354
469.79758,0.46413
468.76732,0.46387
467.73706,0.46763
466.70680,0.47853
465.67654,0.48889
464.64629,0.48971
463.61603,0.48659
462.58577,0.48553
461.55551,0.48635
460.52526,0.48943
459.49500,0.48878
458.46474,0.48227
457.43448,0.47805
456.40422,0.47588
455.37397,0.47258
454.34371,0.47024
453.31345,0.46798
452.28319,0.46587
451.25294,0.46350
450.22268,0.46085
449.19242,0.45917
448.16216,0.45637
447.13190,0.45184
446.10165,0.44837
445.07139,0.45009
444.04113,0.45794
443.01087,0.46273
441.98061,0.45804
440.95036,0.45077
439.92010,0.44597
438.88984,0.44522
437.85958,0.44745
436.82933,0.44794
435.79907,0.44780
434.76881,0.44830
433.73855,0.44736
432.70829,0.44843
431.67804,0.44842
430.64778,0.44445
429.61752,0.44372
428.58726,0.44514
427.55700,0.44761
426.52675,0.44868
425.49649,0.44173
424.46623,0.43578
423.43597,0.43967
422.40572,0.44496
421.37546,0.44459
420.34520,0.43939
419.31494,0.42857
418.28468,0.42005
417.25443,0.42323
416.22417,0.43237
415.19391,0.43452
414.16365,0.42788
413.13339,0.42386
412.10314,0.41982
411.07288,0.41647
410.04262,0.42134
409.01236,0.42651
407.98211,0.42818
406.95185,0.43102
405.92159,0.42921
404.89133,0.42295
403.86107,0.42223
402.83082,0.42153
401.80056,0.41422
400.77030,0.40947
399.74004,0.41219
