4998.81105,0.00397
4997.78079,0.00397
4996.75054,0.00346
4995.72028,0.00346
4994.69002,0.00344
4993.65976,0.00284
4992.62951,0.00198
4991.59925,0.00098
4990.56899,-0.00017
4989.53873,-0.00105
4988.50847,-0.00166
4987.47822,-0.00166
4986.44796,-0.00063
4985.41770,0.00082
4984.38744,0.00162
4983.35718,0.00098
4982.32693,-0.00014
4981.29667,-0.00042
4980.26641,-0.00017
4979.23615,0.00019
4978.20590,0.00068
4977.17564,0.00047
4976.14538,-0.00067
4975.11512,-0.00055
4974.08486,0.00133
4973.05461,0.00249
4972.02435,0.00225
4970.99409,0.00177
4969.96383,0.00156
4968.93357,0.00201
4967.90332,0.00329
4966.87306,0.00391
4965.84280,0.00305
4964.81254,0.00215
4963.78229,0.00176
4962.75203,0.00163
4961.72177,0.00127
4960.69151,0.00009
4959.66125,-0.00048
4958.63100,0.00029
4957.60074,0.00109
4956.57048,0.00133
4955.54022,0.00113
4954.50997,0.00067
4953.47971,0.00063
4952.44945,0.00159
4951.41919,0.00259
4950.38893,0.00236
4949.35868,0.00180
4948.32842,0.00171
4947.29816,0.00137
4946.26790,0.00049
4945.23764,-0.00060
4944.20739,-0.00102
4943.17713,-0.00054
4942.14687,-0.00007
4941.11661,0.00009
4940.08636,0.00046
4939.05610,0.00119
4938.02584,0.00193
4936.99558,0.00241
4935.96532,0.00211
4934.93507,0.00091
4933.90481,0.00010
4932.87455,0.00019
4931.84429,0.00029
4930.81403,0.00029
4929.78378,0.00066
4928.75352,0.00132
4927.72326,0.00196
4926.69300,0.00224
4925.66275,0.00180
4924.63249,0.00117
4923.60223,0.00091
4922.57197,0.00106
4921.54171,0.00138
4920.51146,0.00112
4919.48120,0.00109
4918.45094,0.00201
4917.42068,0.00181
4916.39042,0.00052
4915.36017,0.00034
4914.32991,0.00107
4913.29965,0.00169
4912.26939,0.00181
4911.23914,0.00125
4910.20888,0.00057
4909.17862,0.00037
4908.14836,0.00061
4907.11810,0.00111
4906.08785,0.00134
4905.05759,0.00140
4904.02733,0.00203
4902.99707,0.00293
4901.96682,0.00282
4900.93656,0.00159
4899.90630,0.00117
4898.87604,0.00217
4897.84578,0.00280
4896.81553,0.00175
4895.78527,0.00026
4894.75501,0.00026
4893.72475,0.00069
4892.69449,0.00003
4891.66424,-0.00006
4890.63398,0.00148
4889.60372,0.00265
4888.57346,0.00270
4887.54321,0.00234
4886.51295,0.00175
4885.48269,0.00134
4884.45243,0.00095
4883.42217,0.00056
4882.39192,0.00044
4881.36166,0.00020
4880.33140,-0.00020
4879.30114,-0.00004
4878.27088,0.00083
4877.24063,0.00147
4876.21037,0.00117
4875.18011,0.00029
4874.14985,-0.00001
4873.11960,0.00034
4872.08934,0.00064
4871.05908,0.00083
4870.02882,0.00089
4868.99856,0.00073
4867.96831,0.00051
4866.93805,0.00042
4865.90779,0.00059
4864.87753,0.00124
4863.84727,0.00196
4862.81702,0.00161
4861.78676,0.00045
4860.75650,-0.00016
4859.72624,0.00002
4858.69599,-0.00046
4857.66573,-0.00184
4856.63547,-0.00192
4855.60521,-0.00020
4854.57495,0.00126
4853.54470,0.00128
4852.51444,0.00039
4851.48418,-0.00019
4850.45392,0.00046
4849.42367,0.00120
4848.39341,0.00054
4847.36315,-0.00051
4846.33289,-0.00052
4845.30263,0.00051
4844.27238,0.00129
4843.24212,0.00110
4842.21186,0.00030
4841.18160,-0.00030
4840.15134,-0.00001
4839.12109,0.00092
4838.09083,0.00157
4837.06057,0.00117
4836.03031,0.00082
4835.00006,0.00121
4833.96980,0.00097
4832.93954,0.00041
4831.90928,0.00069
4830.87902,0.00150
4829.84877,0.00155
4828.81851,0.00064
4827.78825,0.00046
4826.75799,0.00105
4825.72773,0.00097
4824.69748,0.00084
4823.66722,0.00115
4822.63696,0.00101
4821.60670,0.00086
4820.57645,0.00086
4819.54619,0.00038
4818.51593,0.00013
4817.48567,0.00020
4816.45541,0.00026
4815.42516,0.00098
4814.39490,0.00172
4813.36464,0.00160
4812.33438,0.00159
4811.30412,0.00185
4810.27387,0.00149
4809.24361,0.00064
4808.21335,0.00001
4807.18309,-0.00003
4806.15284,0.00000
4805.12258,-0.00006
4804.09232,0.00051
4803.06206,0.00144
4802.03180,0.00166
4801.00155,0.00127
4799.97129,0.00130
4798.94103,0.00157
4797.91077,0.00143
4796.88052,0.00074
4795.85026,-0.00047
4794.82000,-0.00122
4793.78974,-0.00111
4792.75948,-0.00046
4791.72923,0.00054
4790.69897,0.00074
4789.66871,-0.00023
4788.63845,-0.00111
4787.60819,-0.00092
4786.57794,0.00008
4785.54768,0.00031
4784.51742,-0.00021
4783.48716,-0.00021
4782.45691,-0.00040
4781.42665,-0.00096
4780.39639,-0.00070
4779.36613,0.00053
4778.33587,0.00191
4777.30562,0.00229
4776.27536,0.00173
4775.24510,0.00121
4774.21484,0.00128
4773.18458,0.00175
4772.15433,0.00178
4771.12407,0.00165
4770.09381,0.00171
4769.06355,0.00104
4768.03330,-0.00001
4767.00304,-0.00082
4765.97278,-0.00131
4764.94252,-0.00088
4763.91226,-0.00001
4762.88201,0.00029
4761.85175,-0.00025
4760.82149,-0.00096
4759.79123,-0.00068
4758.76098,0.00024
4757.73072,0.00101
4756.70046,0.00146
4755.67020,0.00149
4754.63994,0.00152
4753.60969,0.00142
4752.57943,0.00105
4751.54917,0.00084
4750.51891,0.00086
4749.48865,0.00124
4748.45840,0.00182
4747.42814,0.00202
4746.39788,0.00225
4745.36762,0.00259
4744.33737,0.00226
4743.30711,0.00131
4742.27685,0.00046
4741.24659,-0.00006
4740.21633,-0.00023
4739.18608,0.00016
4738.15582,0.00062
4737.12556,0.00038
4736.09530,-0.00020
4735.06504,-0.00066
4734.03479,-0.00097
4733.00453,-0.00107
4731.97427,-0.00047
4730.94401,0.00056
4729.91376,0.00040
4728.88350,-0.00088
4727.85324,-0.00152
4726.82298,-0.00107
4725.79272,-0.00011
4724.76247,0.00052
4723.73221,0.00054
4722.70195,0.00075
4721.67169,0.00104
4720.64143,0.00056
4719.61118,-0.00026
4718.58092,-0.00001
4717.55066,0.00137
4716.52040,0.00253
4715.49015,0.00313
4714.45989,0.00299
4713.42963,0.00234
4712.39937,0.00175
4711.36911,0.00124
4710.33886,0.00114
4709.30860,0.00141
4708.27834,0.00140
4707.24808,0.00077
4706.21783,0.00042
4705.18757,0.00077
4704.15731,0.00062
4703.12705,-0.00031
4702.09679,-0.00070
4701.06654,-0.00006
4700.03628,0.00118
4699.00602,0.00209
4697.97576,0.00152
4696.94550,0.00041
4695.91525,0.00047
4694.88499,0.00107
4693.85473,0.00088
4692.82447,-0.00022
4691.79422,-0.00114
4690.76396,-0.00078
4689.73370,-0.00003
4688.70344,0.00028
4687.67318,0.00065
4686.64293,0.00077
4685.61267,0.00048
4684.58241,0.00029
4683.55215,0.00027
4682.52189,0.00033
4681.49164,0.00104
4680.46138,0.00169
4679.43112,0.00055
4678.40086,-0.00074
4677.37061,-0.00005
4676.34035,0.00086
4675.31009,0.00053
4674.27983,0.00020
4673.24957,0.00084
4672.21932,0.00162
4671.18906,0.00152
4670.15880,0.00079
4669.12854,0.00010
4668.09828,0.00014
4667.06803,0.00083
4666.03777,0.00111
4665.00751,0.00087
4663.97725,0.00070
4662.94700,0.00084
4661.91674,0.00103
4660.88648,0.00107
4659.85622,0.00134
4658.82596,0.00185
4657.79571,0.00205
4656.76545,0.00185
4655.73519,0.00138
4654.70493,0.00065
4653.67468,0.00035
4652.64442,0.00083
4651.61416,0.00083
4650.58390,0.00019
4649.55364,-0.00001
4648.52339,0.00019
4647.49313,0.00053
4646.46287,0.00077
4645.43261,0.00033
4644.40235,-0.00038
4643.37210,-0.00028
4642.34184,0.00054
4641.31158,0.00100
4640.28132,0.00084
4639.25107,0.00041
4638.22081,0.00019
4637.19055,0.00074
4636.16029,0.00130
4635.13003,0.00097
4634.09978,0.00056
4633.06952,0.00085
4632.03926,0.00103
4631.00900,0.00079
4629.97874,0.00065
4628.94849,0.00049
4627.91823,0.00008
4626.88797,-0.00032
4625.85771,-0.00028
4624.82746,0.00015
4623.79720,0.00079
4622.76694,0.00152
4621.73668,0.00178
4620.70642,0.00124
4619.67617,0.00032
4618.64591,-0.00007
4617.61565,0.00040
4616.58539,0.00086
4615.55513,0.00070
4614.52488,0.00036
4613.49462,0.00034
4612.46436,0.00039
4611.43410,0.00029
4610.40385,0.00002
4609.37359,-0.00043
4608.34333,-0.00046
4607.31307,-0.00003
4606.28281,0.00032
4605.25256,0.00013
4604.22230,-0.00069
4603.19204,-0.00077
4602.16178,0.00000
4601.13153,0.00021
4600.10127,0.00037
4599.07101,0.00105
4598.04075,0.00131
4597.01049,0.00094
4595.98024,0.00037
4594.94998,0.00003
4593.91972,0.00026
4592.88946,0.00044
4591.85920,0.00023
4590.82895,0.00006
4589.79869,0.00012
4588.76843,0.00032
4587.73817,0.00043
4586.70792,0.00025
4585.67766,-0.00011
4584.64740,-0.00005
4583.61714,0.00057
4582.58688,0.00132
4581.55663,0.00174
4580.52637,0.00155
4579.49611,0.00097
4578.46585,0.00019
4577.43559,-0.00026
4576.40534,0.00006
4575.37508,0.00056
4574.34482,0.00066
4573.31456,0.00034
4572.28431,-0.00012
4571.25405,-0.00040
4570.22379,-0.00030
4569.19353,0.00001
4568.16327,0.00005
4567.13302,0.00012
4566.10276,0.00077
4565.07250,0.00141
4564.04224,0.00138
4563.01198,0.00069
4561.98173,0.00020
4560.95147,0.00022
4559.92121,0.00018
4558.89095,0.00029
4557.86070,0.00062
4556.83044,0.00057
4555.80018,0.00032
4554.76992,0.00091
4553.73966,0.00159
4552.70941,0.00133
4551.67915,0.00083
4550.64889,0.00028
4549.61863,-0.00015
4548.58838,0.00015
4547.55812,0.00107
4546.52786,0.00210
4545.49760,0.00238
4544.46734,0.00136
4543.43709,0.00008
4542.40683,-0.00086
4541.37657,-0.00119
4540.34631,-0.00050
4539.31605,0.00033
4538.28580,0.00055
4537.25554,0.00049
4536.22528,0.00046
4535.19502,0.00016
4534.16477,-0.00032
4533.13451,-0.00029
4532.10425,0.00001
4531.07399,0.00038
4530.04373,0.00074
4529.01348,0.00081
4527.98322,0.00065
4526.95296,0.00071
4525.92270,0.00092
4524.89244,0.00087
4523.86219,0.00094
4522.83193,0.00114
4521.80167,0.00124
4520.77141,0.00167
4519.74116,0.00168
4518.71090,0.00052
4517.68064,-0.00043
4516.65038,0.00004
4515.62012,0.00102
4514.58987,0.00154
4513.55961,0.00160
4512.52935,0.00106
4511.49909,0.00030
4510.46883,0.00027
4509.43858,0.00043
4508.40832,0.00010
4507.37806,-0.00021
4506.34780,-0.00055
4505.31755,-0.00058
4504.28729,-0.00018
4503.25703,-0.00027
4502.22677,-0.00056
4501.19651,-0.00050
4500.16626,-0.00024
4499.13600,0.00010
4498.10574,0.00041
4497.07548,0.00062
4496.04523,0.00088
4495.01497,0.00113
4493.98471,0.00100
4492.95445,0.00092
4491.92419,0.00118
4490.89394,0.00118
4489.86368,0.00124
4488.83342,0.00118
4487.80316,0.00041
4486.77290,-0.00045
4485.74265,-0.00059
4484.71239,-0.00025
4483.68213,0.00005
4482.65187,0.00039
4481.62162,0.00065
4480.59136,0.00069
4479.56110,0.00039
4478.53084,0.00004
4477.50058,0.00030
4476.47033,0.00069
4475.44007,0.00051
4474.40981,0.00031
4473.37955,0.00074
4472.34929,0.00104
4471.31904,0.00081
4470.28878,0.00068
4469.25852,0.00095
4468.22826,0.00143
4467.19801,0.00152
4466.16775,0.00119
4465.13749,0.00115
4464.10723,0.00122
4463.07697,0.00064
4462.04672,-0.00026
4461.01646,-0.00060
4459.98620,-0.00030
4458.95594,0.00032
4457.92568,0.00119
4456.89543,0.00179
4455.86517,0.00167
4454.83491,0.00149
4453.80465,0.00156
4452.77440,0.00119
4451.74414,0.00048
4450.71388,0.00013
4449.68362,-0.00002
4448.65336,-0.00026
4447.62311,-0.00024
4446.59285,0.00026
4445.56259,0.00064
4444.53233,0.00056
4443.50208,0.00042
4442.47182,0.00030
4441.44156,0.00039
4440.41130,0.00046
4439.38104,0.00007
4438.35079,-0.00000
4437.32053,0.00035
4436.29027,0.00043
4435.26001,0.00013
4434.22975,-0.00028
4433.19950,-0.00025
4432.16924,0.00005
4431.13898,0.00037
4430.10872,0.00080
4429.07847,0.00078
4428.04821,0.00034
4427.01795,0.00012
4425.98769,0.00017
4424.95743,0.00034
4423.92718,0.00060
4422.89692,0.00079
4421.86666,0.00075
4420.83640,0.00056
4419.80614,0.00031
4418.77589,0.00020
4417.74563,0.00067
4416.71537,0.00149
4415.68511,0.00175
4414.65486,0.00149
4413.62460,0.00115
4412.59434,0.00077
4411.56408,0.00064
4410.53382,0.00034
4409.50357,-0.00016
4408.47331,0.00007
4407.44305,0.00060
4406.41279,0.00072
4405.38253,0.00047
4404.35228,0.00009
4403.32202,0.00021
4402.29176,0.00082
4401.26150,0.00094
4400.23125,0.00044
4399.20099,-0.00003
4398.17073,-0.00024
4397.14047,-0.00028
4396.11021,0.00018
4395.07996,0.00104
4394.04970,0.00132
4393.01944,0.00078
4391.98918,0.00032
4390.95893,0.00032
4389.92867,0.00062
4388.89841,0.00136
4387.86815,0.00199
4386.83789,0.00182
4385.80764,0.00126
4384.77738,0.00063
4383.74712,0.00015
4382.71686,0.00011
4381.68660,0.00034
4380.65635,0.00037
4379.62609,0.00031
4378.59583,0.00076
4377.56557,0.00122
4376.53532,0.00083
4375.50506,0.00046
4374.47480,0.00081
4373.44454,0.00108
4372.41428,0.00091
4371.38403,0.00087
4370.35377,0.00136
4369.32351,0.00174
4368.29325,0.00150
4367.26299,0.00121
4366.23274,0.00112
4365.20248,0.00099
4364.17222,0.00077
4363.14196,0.00067
4362.11171,0.00096
4361.08145,0.00146
4360.05119,0.00184
4359.02093,0.00187
4357.99067,0.00132
4356.96042,0.00066
4355.93016,0.00047
4354.89990,0.00073
4353.86964,0.00123
4352.83939,0.00180
4351.80913,0.00204
4350.77887,0.00201
4349.74861,0.00178
4348.71835,0.00112
4347.68810,0.00048
4346.65784,0.00017
4345.62758,0.00026
4344.59732,0.00111
4343.56706,0.00203
4342.53681,0.00199
4341.50655,0.00138
4340.47629,0.00099
4339.44603,0.00086
4338.41578,0.00097
4337.38552,0.00123
4336.35526,0.00118
4335.32500,0.00090
4334.29474,0.00082
4333.26449,0.00083
4332.23423,0.00081
4331.20397,0.00094
4330.17371,0.00126
4329.14345,0.00148
4328.11320,0.00122
4327.08294,0.00090
4326.05268,0.00103
4325.02242,0.00107
4323.99217,0.00085
4322.96191,0.00104
4321.93165,0.00140
4320.90139,0.00137
4319.87113,0.00130
4318.84088,0.00122
4317.81062,0.00104
4316.78036,0.00112
4315.75010,0.00133
4314.71984,0.00120
4313.68959,0.00094
4312.65933,0.00090
4311.62907,0.00068
4310.59881,0.00054
4309.56856,0.00091
4308.53830,0.00129
4307.50804,0.00143
4306.47778,0.00133
4305.44752,0.00109
4304.41727,0.00118
4303.38701,0.00152
4302.35675,0.00168
4301.32649,0.00166
4300.29624,0.00179
4299.26598,0.00199
4298.23572,0.00194
4297.20546,0.00165
4296.17520,0.00109
4295.14495,0.00068
4294.11469,0.00067
4293.08443,0.00059
4292.05417,0.00048
4291.02391,0.00065
4289.99366,0.00110
4288.96340,0.00118
4287.93314,0.00060
4286.90288,0.00033
4285.87263,0.00086
4284.84237,0.00117
4283.81211,0.00106
4282.78185,0.00099
4281.75159,0.00106
4280.72134,0.00155
4279.69108,0.00188
4278.66082,0.00166
4277.63056,0.00156
4276.60030,0.00126
4275.57005,0.00055
4274.53979,0.00023
4273.50953,0.00042
4272.47927,0.00073
4271.44902,0.00094
4270.41876,0.00118
4269.38850,0.00137
4268.35824,0.00100
4267.32798,0.00061
4266.29773,0.00091
4265.26747,0.00115
4264.23721,0.00101
4263.20695,0.00106
4262.17669,0.00140
4261.14644,0.00146
4260.11618,0.00110
4259.08592,0.00095
4258.05566,0.00095
4257.02541,0.00067
4255.99515,0.00041
4254.96489,0.00052
4253.93463,0.00100
4252.90437,0.00150
4251.87412,0.00154
4250.84386,0.00101
4249.81360,0.00036
4248.78334,0.00028
4247.75309,0.00099
4246.72283,0.00184
4245.69257,0.00177
4244.66231,0.00112
4243.63205,0.00061
4242.60180,0.00044
4241.57154,0.00099
4240.54128,0.00165
4239.51102,0.00159
4238.48076,0.00101
4237.45051,0.00056
4236.42025,0.00069
4235.38999,0.00125
4234.35973,0.00169
4233.32948,0.00162
4232.29922,0.00126
4231.26896,0.00118
4230.23870,0.00136
4229.20844,0.00123
4228.17819,0.00084
4227.14793,0.00077
4226.11767,0.00114
4225.08741,0.00166
4224.05715,0.00192
4223.02690,0.00150
4221.99664,0.00084
4220.96638,0.00067
4219.93612,0.00087
4218.90587,0.00121
4217.87561,0.00169
4216.84535,0.00214
4215.81509,0.00228
4214.78483,0.00188
4213.75458,0.00136
4212.72432,0.00110
4211.69406,0.00068
4210.66380,0.00027
4209.63354,0.00049
4208.60329,0.00069
4207.57303,0.00030
4206.54277,-0.00012
4205.51251,-0.00024
4204.48226,-0.00009
4203.45200,0.00029
4202.42174,0.00060
4201.39148,0.00072
4200.36122,0.00092
4199.33097,0.00103
4198.30071,0.00089
4197.27045,0.00108
4196.24019,0.00124
4195.20994,0.00079
4194.17968,0.00039
4193.14942,0.00029
4192.11916,0.00029
4191.08890,0.00081
4190.05865,0.00140
4189.02839,0.00129
4187.99813,0.00117
4186.96787,0.00144
4185.93761,0.00169
4184.90736,0.00188
4183.87710,0.00213
4182.84684,0.00209
4181.81658,0.00142
4180.78633,0.00074
4179.75607,0.00052
4178.72581,0.00043
4177.69555,0.00041
4176.66529,0.00055
4175.63504,0.00079
4174.60478,0.00107
4173.57452,0.00127
4172.54426,0.00113
4171.51400,0.00097
4170.48375,0.00133
4169.45349,0.00171
4168.42323,0.00169
4167.39297,0.00182
4166.36272,0.00186
4165.33246,0.00126
4164.30220,0.00047
4163.27194,0.00037
4162.24168,0.00101
4161.21143,0.00157
4160.18117,0.00184
4159.15091,0.00195
4158.12065,0.00160
4157.09039,0.00112
4156.06014,0.00088
4155.02988,0.00088
4153.99962,0.00115
4152.96936,0.00154
4151.93911,0.00188
4150.90885,0.00178
4149.87859,0.00118
4148.84833,0.00087
4147.81807,0.00115
4146.78782,0.00118
4145.75756,0.00065
4144.72730,0.00046
4143.69704,0.00114
4142.66679,0.00178
4141.63653,0.00177
4140.60627,0.00167
4139.57601,0.00153
4138.54575,0.00126
4137.51550,0.00143
4136.48524,0.00181
4135.45498,0.00169
4134.42472,0.00150
4133.39446,0.00159
4132.36421,0.00153
4131.33395,0.00144
4130.30369,0.00129
4129.27343,0.00100
4128.24318,0.00111
4127.21292,0.00116
4126.18266,0.00072
4125.15240,0.00066
4124.12214,0.00114
4123.09189,0.00147
4122.06163,0.00148
4121.03137,0.00138
4120.00111,0.00141
4118.97085,0.00156
4117.94060,0.00160
4116.91034,0.00152
4115.88008,0.00149
4114.84982,0.00136
4113.81957,0.00136
4112.78931,0.00176
4111.75905,0.00196
4110.72879,0.00159
4109.69853,0.00140
4108.66828,0.00167
4107.63802,0.00196
4106.60776,0.00194
4105.57750,0.00156
4104.54724,0.00104
4103.51699,0.00074
4102.48673,0.00099
4101.45647,0.00124
4100.42621,0.00094
4099.39596,0.00085
4098.36570,0.00139
4097.33544,0.00191
4096.30518,0.00201
4095.27492,0.00181
4094.24467,0.00167
4093.21441,0.00177
4092.18415,0.00176
4091.15389,0.00157
4090.12364,0.00159
4089.09338,0.00180
4088.06312,0.00165
4087.03286,0.00107
4086.00260,0.00074
4084.97235,0.00102
4083.94209,0.00145
4082.91183,0.00158
4081.88157,0.00137
4080.85131,0.00107
4079.82106,0.00090
4078.79080,0.00075
4077.76054,0.00066
4076.73028,0.00087
4075.70003,0.00136
4074.66977,0.00189
4073.63951,0.00208
4072.60925,0.00184
4071.57899,0.00165
4070.54874,0.00194
4069.51848,0.00242
4068.48822,0.00267
4067.45796,0.00277
4066.42770,0.00252
4065.39745,0.00192
4064.36719,0.00168
4063.33693,0.00185
4062.30667,0.00195
4061.27642,0.00189
4060.24616,0.00152
4059.21590,0.00128
4058.18564,0.00171
4057.15538,0.00224
4056.12513,0.00240
4055.09487,0.00222
4054.06461,0.00191
4053.03435,0.00181
4052.00409,0.00213
4050.97384,0.00283
4049.94358,0.00325
4048.91332,0.00286
4047.88306,0.00224
4046.85281,0.00205
4045.82255,0.00209
4044.79229,0.00194
4043.76203,0.00149
4042.73177,0.00107
4041.70152,0.00119
4040.67126,0.00164
4039.64100,0.00175
4038.61074,0.00150
4037.58049,0.00121
4036.55023,0.00117
4035.51997,0.00149
4034.48971,0.00177
4033.45945,0.00186
4032.42920,0.00200
4031.39894,0.00231
4030.36868,0.00269
4029.33842,0.00271
4028.30816,0.00227
4027.27791,0.00212
4026.24765,0.00222
4025.21739,0.00194
4024.18713,0.00187
4023.15688,0.00226
4022.12662,0.00244
4021.09636,0.00246
4020.06610,0.00245
4019.03584,0.00222
4018.00559,0.00185
4016.97533,0.00168
4015.94507,0.00199
4014.91481,0.00282
4013.88455,0.00358
4012.85430,0.00363
4011.82404,0.00310
4010.79378,0.00255
4009.76352,0.00234
4008.73327,0.00245
4007.70301,0.00252
4006.67275,0.00248
4005.64249,0.00264
4004.61223,0.00296
4003.58198,0.00292
4002.55172,0.00230
4001.52146,0.00167
4000.49120,0.00164
3999.46095,0.00191
3998.43069,0.00202
3997.40043,0.00178
3996.37017,0.00160
3995.33991,0.00205
3994.30966,0.00262
3993.27940,0.00235
3992.24914,0.00155
3991.21888,0.00117
3990.18862,0.00142
3989.15837,0.00193
3988.12811,0.00238
3987.09785,0.00254
3986.06759,0.00229
3985.03734,0.00205
3984.00708,0.00219
3982.97682,0.00243
3981.94656,0.00244
3980.91630,0.00250
3979.88605,0.00275
3978.85579,0.00294
3977.82553,0.00304
3976.79527,0.00319
3975.76501,0.00317
3974.73476,0.00277
3973.70450,0.00227
3972.67424,0.00216
3971.64398,0.00228
3970.61373,0.00243
3969.58347,0.00274
3968.55321,0.00273
3967.52295,0.00212
3966.49269,0.00167
3965.46244,0.00160
3964.43218,0.00144
3963.40192,0.00130
3962.37166,0.00157
3961.34140,0.00205
3960.31115,0.00217
3959.28089,0.00204
3958.25063,0.00165
3957.22037,0.00108
3956.19012,0.00111
3955.15986,0.00145
3954.12960,0.00122
3953.09934,0.00081
3952.06908,0.00080
3951.03883,0.00097
3950.00857,0.00107
3948.97831,0.00114
3947.94805,0.00137
3946.91780,0.00189
3945.88754,0.00226
3944.85728,0.00224
3943.82702,0.00211
3942.79676,0.00199
3941.76651,0.00196
3940.73625,0.00198
3939.70599,0.00207
3938.67573,0.00239
3937.64547,0.00233
3936.61522,0.00160
3935.58496,0.00099
3934.55470,0.00077
3933.52444,0.00068
3932.49419,0.00070
3931.46393,0.00120
3930.43367,0.00211
3929.40341,0.00251
3928.37315,0.00215
3927.34290,0.00162
3926.31264,0.00120
3925.28238,0.00089
3924.25212,0.00087
3923.22186,0.00109
3922.19161,0.00114
3921.16135,0.00073
3920.13109,0.00002
3919.10083,-0.00025
3918.07058,0.00015
3917.04032,0.00070
3916.01006,0.00082
3914.97980,0.00096
3913.94954,0.00148
3912.91929,0.00161
3911.88903,0.00140
3910.85877,0.00145
3909.82851,0.00142
3908.79825,0.00107
3907.76800,0.00084
3906.73774,0.00095
3905.70748,0.00133
3904.67722,0.00128
3903.64697,0.00060
3902.61671,0.00033
3901.58645,0.00089
3900.55619,0.00160
3899.52593,0.00180
3898.49568,0.00166
3897.46542,0.00159
3896.43516,0.00129
3895.40490,0.00082
3894.37465,0.00079
3893.34439,0.00121
3892.31413,0.00142
3891.28387,0.00124
3890.25361,0.00126
3889.22336,0.00146
3888.19310,0.00136
3887.16284,0.00089
3886.13258,0.00029
3885.10232,0.00007
3884.07207,0.00016
3883.04181,0.00019
3882.01155,0.00045
3880.98129,0.00081
3879.95104,0.00102
3878.92078,0.00125
3877.89052,0.00137
3876.86026,0.00146
3875.83000,0.00118
3874.79975,0.00041
3873.76949,0.00025
3872.73923,0.00067
3871.70897,0.00099
3870.67871,0.00122
3869.64846,0.00145
3868.61820,0.00167
3867.58794,0.00145
3866.55768,0.00078
3865.52743,0.00032
3864.49717,0.00059
3863.46691,0.00105
3862.43665,0.00116
3861.40639,0.00122
3860.37614,0.00140
3859.34588,0.00135
3858.31562,0.00103
3857.28536,0.00076
3856.25510,0.00088
3855.22485,0.00138
3854.19459,0.00160
3853.16433,0.00062
3852.13407,-0.00013
3851.10382,0.00008
3850.07356,0.00037
3849.04330,0.00051
3848.01304,0.00082
3846.98278,0.00121
3845.95253,0.00164
3844.92227,0.00189
3843.89201,0.00148
3842.86175,0.00075
3841.83150,0.00007
3840.80124,-0.00029
3839.77098,-0.00011
3838.74072,0.00004
3837.71046,0.00013
3836.68021,0.00010
3835.64995,-0.00023
3834.61969,0.00006
3833.58943,0.00107
3832.55917,0.00151
3831.52892,0.00120
3830.49866,0.00101
3829.46840,0.00106
3828.43814,0.00091
3827.40789,0.00083
3826.37763,0.00115
3825.34737,0.00154
3824.31711,0.00166
3823.28685,0.00131
3822.25660,0.00076
3821.22634,0.00077
3820.19608,0.00107
3819.16582,0.00112
3818.13556,0.00119
3817.10531,0.00118
3816.07505,0.00064
3815.04479,-0.00006
3814.01453,0.00015
3812.98428,0.00077
3811.95402,0.00113
3810.92376,0.00136
3809.89350,0.00150
3808.86324,0.00141
3807.83299,0.00125
3806.80273,0.00127
3805.77247,0.00159
3804.74221,0.00174
3803.71195,0.00171
3802.68170,0.00152
3801.65144,0.00085
3800.62118,0.00048
3799.59092,0.00084
3798.56067,0.00133
3797.53041,0.00159
3796.50015,0.00155
3795.46989,0.00177
3794.43963,0.00218
3793.40938,0.00235
3792.37912,0.00221
3791.34886,0.00188
3790.31860,0.00147
3789.28835,0.00106
3788.25809,0.00078
3787.22783,0.00069
3786.19757,0.00084
3785.16731,0.00097
3784.13706,0.00107
3783.10680,0.00121
3782.07654,0.00133
3781.04628,0.00147
3780.01602,0.00163
3778.98577,0.00170
3777.95551,0.00165
3776.92525,0.00165
3775.89499,0.00161
3774.86474,0.00132
3773.83448,0.00103
3772.80422,0.00109
3771.77396,0.00149
3770.74370,0.00217
3769.71345,0.00252
3768.68319,0.00207
3767.65293,0.00154
3766.62267,0.00133
3765.59241,0.00137
3764.56216,0.00135
3763.53190,0.00128
3762.50164,0.00129
3761.47138,0.00132
3760.44113,0.00115
3759.41087,0.00110
3758.38061,0.00161
3757.35035,0.00185
3756.32009,0.00166
3755.28984,0.00179
3754.25958,0.00210
3753.22932,0.00215
3752.19906,0.00179
3751.16880,0.00105
3750.13855,0.00062
3749.10829,0.00093
3748.07803,0.00129
3747.04777,0.00144
3746.01752,0.00160
3744.98726,0.00090
3743.95700,-0.00018
3742.92674,0.00084
3741.89648,0.00200
3740.86623,0.00232
3739.83597,0.00222
3738.80571,0.00198
3737.77545,0.00184
3736.74520,0.00189
3735.71494,0.00173
3734.68468,0.00212
3733.65442,0.00309
3732.62416,0.00327
3731.59391,0.00308
3730.56365,0.00355
3729.53339,0.00385
3728.50313,0.00350
3727.47287,0.00283
3726.44262,0.00238
3725.41236,0.00270
3724.38210,0.00314
3723.35184,0.00306
3722.32159,0.00310
3721.29133,0.00349
3720.26107,0.00370
3719.23081,0.00396
3718.20055,0.00436
3717.17030,0.00434
3716.14004,0.00377
3715.10978,0.00308
3714.07952,0.00287
3713.04926,0.00313
3712.01901,0.00343
3710.98875,0.00327
3709.95849,0.00310
3708.92823,0.00365
3707.89798,0.00425
3706.86772,0.00458
3705.83746,0.00509
3704.80720,0.00558
3703.77694,0.00551
3702.74669,0.00497
3701.71643,0.00455
3700.68617,0.00448
3699.65591,0.00463
3698.62565,0.00496
3697.59540,0.00535
3696.56514,0.00535
3695.53488,0.00503
3694.50462,0.00477
3693.47437,0.00463
3692.44411,0.00484
3691.41385,0.00529
3690.38359,0.00551
3689.35333,0.00564
3688.32308,0.00608
3687.29282,0.00652
3686.26256,0.00637
3685.23230,0.00594
3684.20205,0.00587
3683.17179,0.00641
3682.14153,0.00716
3681.11127,0.00780
3680.08101,0.00815
3679.05076,0.00798
3678.02050,0.00759
3676.99024,0.00751
3675.95998,0.00771
3674.92972,0.00814
3673.89947,0.00895
3672.86921,0.01006
3671.83895,0.01100
3670.80869,0.01104
3669.77844,0.01056
3668.74818,0.01049
3667.71792,0.01063
3666.68766,0.01105
3665.65740,0.01160
3664.62715,0.01228
3663.59689,0.01323
3662.56663,0.01386
3661.53637,0.01402
3660.50611,0.01422
3659.47586,0.01478
3658.44560,0.01565
3657.41534,0.01613
3656.38508,0.01593
3655.35483,0.01593
3654.32457,0.01654
3653.29431,0.01730
3652.26405,0.01764
3651.23379,0.01759
3650.20354,0.01841
3649.17328,0.01980
3648.14302,0.01997
3647.11276,0.01991
3646.08250,0.02072
3645.05225,0.02159
3644.02199,0.02198
3642.99173,0.02252
3641.96147,0.02352
3640.93122,0.02404
3639.90096,0.02403
3638.87070,0.02446
3637.84044,0.02564
3636.81018,0.02721
3635.77993,0.02834
3634.74967,0.02855
3633.71941,0.02867
3632.68915,0.02914
3631.65890,0.02935
3630.62864,0.02935
3629.59838,0.02945
3628.56812,0.03010
3627.53786,0.03127
3626.50761,0.03261
3625.47735,0.03386
3624.44709,0.03452
3623.41683,0.03477
3622.38657,0.03518
3621.35632,0.03569
3620.32606,0.03623
3619.29580,0.03737
3618.26554,0.03878
3617.23529,0.03903
3616.20503,0.03866
3615.17477,0.03918
3614.14451,0.04047
3613.11425,0.04129
3612.08400,0.04135
3611.05374,0.04169
3610.02348,0.04265
3608.99322,0.04380
3607.96296,0.04500
3606.93271,0.04637
3605.90245,0.04767
3604.87219,0.04870
3603.84193,0.04918
3602.81168,0.04894
3601.78142,0.04883
3600.75116,0.04982
3599.72090,0.05138
3598.69064,0.05228
3597.66039,0.05246
3596.63013,0.05260
3595.59987,0.05327
3594.56961,0.05457
3593.53936,0.05596
3592.50910,0.05743
3591.47884,0.05896
3590.44858,0.05988
3589.41832,0.06023
3588.38807,0.06066
3587.35781,0.06125
3586.32755,0.06196
3585.29729,0.06297
3584.26703,0.06412
3583.23678,0.06532
3582.20652,0.06641
3581.17626,0.06706
3580.14600,0.06764
3579.11575,0.06855
3578.08549,0.06977
3577.05523,0.07090
3576.02497,0.07138
3574.99471,0.07171
3573.96446,0.07269
3572.93420,0.07408
3571.90394,0.07543
3570.87368,0.07674
3569.84342,0.07756
3568.81317,0.07781
3567.78291,0.07847
3566.75265,0.07978
3565.72239,0.08133
3564.69214,0.08316
3563.66188,0.08499
3562.63162,0.08608
3561.60136,0.08614
3560.57110,0.08612
3559.54085,0.08698
3558.51059,0.08837
3557.48033,0.08956
3556.45007,0.09099
3555.41981,0.09257
3554.38956,0.09320
3553.35930,0.09345
3552.32904,0.09420
3551.29878,0.09500
3550.26853,0.09569
3549.23827,0.09664
3548.20801,0.09813
3547.17775,0.09983
3546.14749,0.10118
3545.11724,0.10198
3544.08698,0.10230
3543.05672,0.10271
3542.02646,0.10382
3540.99621,0.10513
3539.96595,0.10614
3538.93569,0.10699
3537.90543,0.10776
3536.87517,0.10853
3535.84492,0.10957
3534.81466,0.11089
3533.78440,0.11225
3532.75414,0.11338
3531.72388,0.11391
3530.69363,0.11423
3529.66337,0.11489
3528.63311,0.11571
3527.60285,0.11648
3526.57260,0.11742
3525.54234,0.11823
3524.51208,0.11858
3523.48182,0.11924
3522.45156,0.12071
3521.42131,0.12219
3520.39105,0.12307
3519.36079,0.12368
3518.33053,0.12432
3517.30027,0.12505
3516.27002,0.12586
3515.23976,0.12668
3514.20950,0.12739
3513.17924,0.12815
3512.14899,0.12918
3511.11873,0.13017
3510.08847,0.13119
3509.05821,0.13235
3508.02795,0.13319
3506.99770,0.13356
3505.96744,0.13346
3504.93718,0.13353
3503.90692,0.13454
3502.87666,0.13548
3501.84641,0.13562
3500.81615,0.13613
3499.78589,0.13688
3498.75563,0.13737
3497.72538,0.13821
3496.69512,0.13916
3495.66486,0.13973
3494.63460,0.14017
3493.60434,0.14068
3492.57409,0.14131
3491.54383,0.14193
3490.51357,0.14246
3489.48331,0.14333
3488.45306,0.14429
3487.42280,0.14444
3486.39254,0.14435
3485.36228,0.14502
3484.33202,0.14611
3483.30177,0.14678
3482.27151,0.14691
3481.24125,0.14705
3480.21099,0.14761
3479.18073,0.14863
3478.15048,0.14983
3477.12022,0.15055
3476.08996,0.15086
3475.05970,0.15126
3474.02945,0.15183
3472.99919,0.15233
3471.96893,0.15259
3470.93867,0.15278
3469.90841,0.15291
3468.87816,0.15316
3467.84790,0.15378
3466.81764,0.15448
3465.78738,0.15535
3464.75712,0.15628
3463.72687,0.15674
3462.69661,0.15700
3461.66635,0.15740
3460.63609,0.15800
3459.60584,0.15884
3458.57558,0.15990
3457.54532,0.16070
3456.51506,0.16037
3455.48480,0.15953
3454.45455,0.15979
3453.42429,0.16125
3452.39403,0.16280
3451.36377,0.16371
3450.33351,0.16410
3449.30326,0.16441
3448.27300,0.16467
3447.24274,0.16484
3446.21248,0.16488
3445.18223,0.16489
3444.15197,0.16522
3443.12171,0.16598
3442.09145,0.16685
3441.06119,0.16738
3440.03094,0.16751
3439.00068,0.16772
3437.97042,0.16810
3436.94016,0.16838
3435.90991,0.16881
3434.87965,0.16946
3433.84939,0.17007
3432.81913,0.17089
3431.78887,0.17165
3430.75862,0.17167
3429.72836,0.17166
3428.69810,0.17237
3427.66784,0.17310
3426.63758,0.17349
3425.60733,0.17421
3424.57707,0.17535
3423.54681,0.17575
3422.51655,0.17531
3421.48630,0.17505
3420.45604,0.17515
3419.42578,0.17542
3418.39552,0.17582
3417.36526,0.17637
3416.33501,0.17720
3415.30475,0.17800
3414.27449,0.17840
3413.24423,0.17863
3412.21397,0.17889
3411.18372,0.17896
3410.15346,0.17884
3409.12320,0.17875
3408.09294,0.17838
3407.06269,0.17803
3406.03243,0.17858
3405.00217,0.17972
3403.97191,0.18037
3402.94165,0.18021
3401.91140,0.17947
3400.88114,0.17866
3399.85088,0.17866
3398.82062,0.17936
3397.79036,0.17991
3396.76011,0.18000
3395.72985,0.17999
3394.69959,0.18022
3393.66933,0.18030
3392.63908,0.17988
3391.60882,0.17943
3390.57856,0.17950
3389.54830,0.18011
3388.51804,0.18085
3387.48779,0.18113
3386.45753,0.18080
3385.42727,0.18036
3384.39701,0.18016
3383.36676,0.17995
3382.33650,0.17977
3381.30624,0.17980
3380.27598,0.17983
3379.24572,0.17991
3378.21547,0.17980
3377.18521,0.17943
3376.15495,0.17939
3375.12469,0.17967
3374.09443,0.17959
3373.06418,0.17892
3372.03392,0.17830
3371.00366,0.17813
3369.97340,0.17774
3368.94315,0.17682
3367.91289,0.17642
3366.88263,0.17673
3365.85237,0.17691
3364.82211,0.17670
3363.79186,0.17615
3362.76160,0.17549
3361.73134,0.17513
3360.70108,0.17530
3359.67082,0.17571
3358.64057,0.17594
3357.61031,0.17578
3356.58005,0.17503
3355.54979,0.17404
3354.51954,0.17322
3353.48928,0.17257
3352.45902,0.17201
3351.42876,0.17159
3350.39850,0.17173
3349.36825,0.17213
3348.33799,0.17180
3347.30773,0.17098
3346.27747,0.17024
3345.24721,0.16958
3344.21696,0.16913
3343.18670,0.16892
3342.15644,0.16886
3341.12618,0.16895
3340.09593,0.16902
3339.06567,0.16869
3338.03541,0.16801
3337.00515,0.16742
3335.97489,0.16708
3334.94464,0.16687
3333.91438,0.16663
3332.88412,0.16626
3331.85386,0.16569
3330.82361,0.16502
3329.79335,0.16484
3328.76309,0.16509
3327.73283,0.16494
3326.70257,0.16466
3325.67232,0.16469
3324.64206,0.16434
3323.61180,0.16348
3322.58154,0.16295
3321.55128,0.16297
3320.52103,0.16303
3319.49077,0.16260
3318.46051,0.16152
3317.43025,0.16030
3316.40000,0.15963
3315.36974,0.15957
3314.33948,0.15977
3313.30922,0.16013
3312.27896,0.16045
3311.24871,0.16043
3310.21845,0.15995
3309.18819,0.15955
3308.15793,0.16008
3307.12767,0.16073
3306.09742,0.16013
3305.06716,0.15902
3304.03690,0.15862
3303.00664,0.15857
3301.97639,0.15827
3300.94613,0.15830
3299.91587,0.15862
3298.88561,0.15823
3297.85535,0.15735
3296.82510,0.15690
3295.79484,0.15721
3294.76458,0.15788
3293.73432,0.15779
3292.70406,0.15693
3291.67381,0.15669
3290.64355,0.15709
3289.61329,0.15712
3288.58303,0.15680
3287.55278,0.15658
3286.52252,0.15647
3285.49226,0.15635
3284.46200,0.15637
3283.43174,0.15623
3282.40149,0.15566
3281.37123,0.15525
3280.34097,0.15547
3279.31071,0.15575
3278.28046,0.15537
3277.25020,0.15494
3276.21994,0.15506
3275.18968,0.15522
3274.15942,0.15518
3273.12917,0.15490
3272.09891,0.15450
3271.06865,0.15431
3270.03839,0.15400
3269.00813,0.15352
3267.97788,0.15339
3266.94762,0.15331
3265.91736,0.15288
3264.88710,0.15260
3263.85685,0.15258
3262.82659,0.15220
3261.79633,0.15136
3260.76607,0.15068
3259.73581,0.15055
3258.70556,0.15106
3257.67530,0.15173
3256.64504,0.15166
3255.61478,0.15101
3254.58452,0.15051
3253.55427,0.15009
3252.52401,0.14965
3251.49375,0.14944
3250.46349,0.14930
3249.43324,0.14882
3248.40298,0.14807
3247.37272,0.14753
3246.34246,0.14726
3245.31220,0.14680
3244.28195,0.14606
3243.25169,0.14565
3242.22143,0.14586
3241.19117,0.14583
3240.16092,0.14520
3239.13066,0.14487
3238.10040,0.14495
3237.07014,0.14467
3236.03988,0.14376
3235.00963,0.14264
3233.97937,0.14187
3232.94911,0.14121
3231.91885,0.14055
3230.88859,0.14036
3229.85834,0.14048
3228.82808,0.14029
3227.79782,0.13969
3226.76756,0.13908
3225.73731,0.13859
3224.70705,0.13807
3223.67679,0.13729
3222.64653,0.13661
3221.61627,0.13654
3220.58602,0.13659
3219.55576,0.13609
3218.52550,0.13511
3217.49524,0.13422
3216.46498,0.13366
3215.43473,0.13310
3214.40447,0.13217
3213.37421,0.13126
3212.34395,0.13068
3211.31370,0.13030
3210.28344,0.13028
3209.25318,0.13010
3208.22292,0.12936
3207.19266,0.12871
3206.16241,0.12816
3205.13215,0.12756
3204.10189,0.12694
3203.07163,0.12620
3202.04137,0.12551
3201.01112,0.12511
3199.98086,0.12487
3198.95060,0.12413
3197.92034,0.12310
3196.89009,0.12253
3195.85983,0.12219
3194.82957,0.12161
3193.79931,0.12070
3192.76905,0.11981
3191.73880,0.11905
3190.70854,0.11820
3189.67828,0.11738
3188.64802,0.11694
3187.61777,0.11682
3186.58751,0.11657
3185.55725,0.11594
3184.52699,0.11525
3183.49673,0.11485
3182.46648,0.11431
3181.43622,0.11354
3180.40596,0.11310
3179.37570,0.11297
3178.34544,0.11258
3177.31519,0.11138
3176.28493,0.10994
3175.25467,0.10906
3174.22441,0.10877
3173.19416,0.10867
3172.16390,0.10830
3171.13364,0.10771
3170.10338,0.10720
3169.07312,0.10659
3168.04287,0.10582
3167.01261,0.10524
3165.98235,0.10482
3164.95209,0.10413
3163.92183,0.10340
3162.89158,0.10289
3161.86132,0.10238
3160.83106,0.10195
3159.80080,0.10164
3158.77055,0.10110
3157.74029,0.10024
3156.71003,0.09942
3155.67977,0.09884
3154.64951,0.09828
3153.61926,0.09793
3152.58900,0.09791
3151.55874,0.09778
3150.52848,0.09724
3149.49822,0.09646
3148.46797,0.09565
3147.43771,0.09485
3146.40745,0.09438
3145.37719,0.09433
3144.34694,0.09403
3143.31668,0.09327
3142.28642,0.09249
3141.25616,0.09194
3140.22590,0.09151
3139.19565,0.09099
3138.16539,0.09044
3137.13513,0.09003
3136.10487,0.08976
3135.07462,0.08929
3134.04436,0.08862
3133.01410,0.08810
3131.98384,0.08766
3130.95358,0.08713
3129.92333,0.08649
3128.89307,0.08587
3127.86281,0.08556
3126.83255,0.08553
3125.80229,0.08518
3124.77204,0.08417
3123.74178,0.08313
3122.71152,0.08258
3121.68126,0.08235
3120.65101,0.08237
3119.62075,0.08243
3118.59049,0.08209
3117.56023,0.08154
3116.52997,0.08111
3115.49972,0.08068
3114.46946,0.08005
3113.43920,0.07944
3112.40894,0.07909
3111.37868,0.07874
3110.34843,0.07833
3109.31817,0.07809
3108.28791,0.07776
3107.25765,0.07712
3106.22740,0.07626
3105.19714,0.07549
3104.16688,0.07511
3103.13662,0.07505
3102.10636,0.07499
3101.07611,0.07478
3100.04585,0.07434
3099.01559,0.07368
3097.98533,0.07303
3096.95507,0.07238
3095.92482,0.07167
3094.89456,0.07144
3093.86430,0.07173
3092.83404,0.07175
3091.80379,0.07122
3090.77353,0.07023
3089.74327,0.06925
3088.71301,0.06889
3087.68275,0.06893
3086.65250,0.06879
3085.62224,0.06825
3084.59198,0.06755
3083.56172,0.06732
3082.53147,0.06747
3081.50121,0.06734
3080.47095,0.06689
3079.44069,0.06631
3078.41043,0.06594
3077.38018,0.06589
3076.34992,0.06557
3075.31966,0.06493
3074.28940,0.06450
3073.25914,0.06427
3072.22889,0.06404
3071.19863,0.06375
3070.16837,0.06333
3069.13811,0.06275
3068.10786,0.06228
3067.07760,0.06234
3066.04734,0.06234
3065.01708,0.06181
3063.98682,0.06129
3062.95657,0.06097
3061.92631,0.06049
3060.89605,0.06001
3059.86579,0.05995
3058.83553,0.05998
3057.80528,0.05967
3056.77502,0.05931
3055.74476,0.05898
3054.71450,0.05856
3053.68425,0.05818
3052.65399,0.05793
3051.62373,0.05773
3050.59347,0.05748
3049.56321,0.05717
3048.53296,0.05697
3047.50270,0.05713
3046.47244,0.05723
3045.44218,0.05691
3044.41192,0.05677
3043.38167,0.05681
3042.35141,0.05669
3041.32115,0.05643
3040.29089,0.05591
3039.26064,0.05541
3038.23038,0.05528
3037.20012,0.05514
3036.16986,0.05469
3035.13960,0.05425
3034.10935,0.05411
3033.07909,0.05410
3032.04883,0.05387
3031.01857,0.05333
3029.98832,0.05274
3028.95806,0.05251
3027.92780,0.05262
3026.89754,0.05263
3025.86728,0.05226
3024.83703,0.05172
3023.80677,0.05143
3022.77651,0.05120
3021.74625,0.05064
3020.71599,0.05019
3019.68574,0.05008
3018.65548,0.05001
3017.62522,0.04990
3016.59496,0.04975
3015.56471,0.04954
3014.53445,0.04918
3013.50419,0.04868
3012.47393,0.04816
3011.44367,0.04781
3010.41342,0.04768
3009.38316,0.04743
3008.35290,0.04713
3007.32264,0.04712
3006.29238,0.04708
3005.26213,0.04667
3004.23187,0.04627
3003.20161,0.04606
3002.17135,0.04595
3001.14110,0.04596
3000.11084,0.04600
2999.08058,0.04592
2998.05032,0.04568
2997.02006,0.04538
2995.98981,0.04495
2994.95955,0.04453
2993.92929,0.04460
2992.89903,0.04498
2991.86877,0.04505
2990.83852,0.04513
2989.80826,0.04561
2988.77800,0.04611
2987.74774,0.04633
2986.71749,0.04628
2985.68723,0.04621
2984.65697,0.04660
2983.62671,0.04735
2982.59645,0.04784
2981.56620,0.04809
2980.53594,0.04860
2979.50568,0.04938
2978.47542,0.05031
2977.44517,0.05129
2976.41491,0.05221
2975.38465,0.05320
2974.35439,0.05411
2973.32413,0.05499
2972.29388,0.05609
2971.26362,0.05714
2970.23336,0.05813
2969.20310,0.05929
2968.17284,0.06059
2967.14259,0.06203
2966.11233,0.06360
2965.08207,0.06518
2964.05181,0.06661
2963.02156,0.06773
2961.99130,0.06851
2960.96104,0.06923
2959.93078,0.07030
2958.90052,0.07152
2957.87027,0.07258
2956.84001,0.07359
2955.80975,0.07455
2954.77949,0.07539
2953.74923,0.07619
2952.71898,0.07715
2951.68872,0.07824
2950.65846,0.07903
2949.62820,0.07933
2948.59795,0.07960
2947.56769,0.08014
2946.53743,0.08072
2945.50717,0.08122
2944.47691,0.08177
2943.44666,0.08228
2942.41640,0.08280
2941.38614,0.08342
2940.35588,0.08391
2939.32562,0.08419
2938.29537,0.08449
2937.26511,0.08516
2936.23485,0.08627
2935.20459,0.08716
2934.17434,0.08745
2933.14408,0.08780
2932.11382,0.08868
2931.08356,0.08981
2930.05330,0.09077
2929.02305,0.09144
2927.99279,0.09199
2926.96253,0.09253
2925.93227,0.09306
2924.90202,0.09392
2923.87176,0.09497
2922.84150,0.09570
2921.81124,0.09649
2920.78098,0.09762
2919.75073,0.09862
2918.72047,0.09926
2917.69021,0.09961
2916.65995,0.10005
2915.62969,0.10099
2914.59944,0.10190
2913.56918,0.10223
2912.53892,0.10233
2911.50866,0.10252
2910.47841,0.10289
2909.44815,0.10350
2908.41789,0.10406
2907.38763,0.10413
2906.35737,0.10374
2905.32712,0.10337
2904.29686,0.10319
2903.26660,0.10329
2902.23634,0.10369
2901.20608,0.10375
2900.17583,0.10349
2899.14557,0.10362
2898.11531,0.10406
2897.08505,0.10439
2896.05480,0.10463
2895.02454,0.10491
2893.99428,0.10525
2892.96402,0.10569
2891.93376,0.10620
2890.90351,0.10668
2889.87325,0.10721
2888.84299,0.10776
2887.81273,0.10824
2886.78247,0.10868
2885.75222,0.10943
2884.72196,0.11062
2883.69170,0.11164
2882.66144,0.11229
2881.63119,0.11276
2880.60093,0.11322
2879.57067,0.11400
2878.54041,0.11488
2877.51015,0.11543
2876.47990,0.11579
2875.44964,0.11612
2874.41938,0.11610
2873.38912,0.11564
2872.35887,0.11532
2871.32861,0.11512
2870.29835,0.11450
2869.26809,0.11348
2868.23783,0.11230
2867.20758,0.11108
2866.17732,0.10968
2865.14706,0.10787
2864.11680,0.10581
2863.08654,0.10375
2862.05629,0.10169
2861.02603,0.09942
2859.99577,0.09695
2858.96551,0.09444
2857.93526,0.09172
2856.90500,0.08904
2855.87474,0.08689
2854.84448,0.08498
2853.81422,0.08282
2852.78397,0.08032
2851.75371,0.07768
2850.72345,0.07526
2849.69319,0.07338
2848.66293,0.07174
2847.63268,0.06990
2846.60242,0.06778
2845.57216,0.06588
2844.54190,0.06450
2843.51165,0.06323
2842.48139,0.06175
2841.45113,0.06000
2840.42087,0.05829
2839.39061,0.05711
2838.36036,0.05629
2837.33010,0.05542
2836.29984,0.05437
2835.26958,0.05323
2834.23933,0.05222
2833.20907,0.05150
2832.17881,0.05099
2831.14855,0.05040
2830.11829,0.04938
2829.08804,0.04832
2828.05778,0.04773
2827.02752,0.04703
2825.99726,0.04621
2824.96700,0.04592
2823.93675,0.04558
2822.90649,0.04472
2821.87623,0.04400
2820.84597,0.04365
2819.81572,0.04330
2818.78546,0.04268
2817.75520,0.04187
2816.72494,0.04130
2815.69468,0.04101
2814.66443,0.04064
2813.63417,0.04008
2812.60391,0.03936
2811.57365,0.03879
2810.54339,0.03838
2809.51314,0.03796
2808.48288,0.03771
2807.45262,0.03744
2806.42236,0.03683
2805.39211,0.03612
2804.36185,0.03560
2803.33159,0.03537
2802.30133,0.03508
2801.27107,0.03459
2800.24082,0.03411
2799.21056,0.03338
2798.18030,0.03258
2797.15004,0.03220
2796.11978,0.03196
2795.08953,0.03163
2794.05927,0.03114
2793.02901,0.03047
2791.99875,0.03012
2790.96850,0.03017
2789.93824,0.03009
2788.90798,0.02978
2787.87772,0.02928
2786.84746,0.02869
2785.81721,0.02818
2784.78695,0.02766
2783.75669,0.02730
2782.72643,0.02722
2781.69618,0.02708
2780.66592,0.02666
2779.63566,0.02614
2778.60540,0.02584
2777.57514,0.02582
2776.54489,0.02578
2775.51463,0.02540
2774.48437,0.02476
2773.45411,0.02413
2772.42385,0.02372
2771.39360,0.02364
2770.36334,0.02376
2769.33308,0.02380
2768.30282,0.02373
2767.27257,0.02372
2766.24231,0.02364
2765.21205,0.02341
2764.18179,0.02311
2763.15153,0.02306
2762.12128,0.02330
2761.09102,0.02330
2760.06076,0.02285
2759.03050,0.02235
2758.00024,0.02214
2756.96999,0.02210
2755.93973,0.02206
2754.90947,0.02211
2753.87921,0.02221
2752.84896,0.02227
2751.81870,0.02219
2750.78844,0.02190
2749.75818,0.02167
2748.72792,0.02172
2747.69767,0.02190
2746.66741,0.02193
2745.63715,0.02167
2744.60689,0.02123
2743.57663,0.02085
2742.54638,0.02069
2741.51612,0.02062
2740.48586,0.02071
2739.45560,0.02081
2738.42535,0.02049
2737.39509,0.01997
2736.36483,0.01975
2735.33457,0.01977
2734.30431,0.01981
2733.27406,0.01982
2732.24380,0.01961
2731.21354,0.01913
2730.18328,0.01882
2729.15303,0.01882
2728.12277,0.01885
2727.09251,0.01890
2726.06225,0.01892
2725.03199,0.01876
2724.00174,0.01849
2722.97148,0.01835
2721.94122,0.01820
2720.91096,0.01784
2719.88070,0.01748
2718.85045,0.01733
2717.82019,0.01734
2716.78993,0.01718
2715.75967,0.01679
2714.72942,0.01661
2713.69916,0.01673
2712.66890,0.01681
2711.63864,0.01676
2710.60838,0.01662
2709.57813,0.01644
2708.54787,0.01627
2707.51761,0.01613
2706.48735,0.01600
2705.45709,0.01594
2704.42684,0.01595
2703.39658,0.01581
2702.36632,0.01569
2701.33606,0.01573
2700.30581,0.01565
2699.27555,0.01536
2698.24529,0.01508
2697.21503,0.01482
2696.18477,0.01455
2695.15452,0.01441
2694.12426,0.01433
2693.09400,0.01428
2692.06374,0.01426
2691.03348,0.01413
2690.00323,0.01389
2688.97297,0.01366
2687.94271,0.01335
2686.91245,0.01301
2685.88220,0.01297
2684.85194,0.01309
2683.82168,0.01294
2682.79142,0.01248
2681.76116,0.01220
2680.73091,0.01233
2679.70065,0.01255
2678.67039,0.01252
2677.64013,0.01203
2676.60988,0.01133
2675.57962,0.01103
2674.54936,0.01126
2673.51910,0.01157
2672.48884,0.01154
2671.45859,0.01130
2670.42833,0.01121
2669.39807,0.01126
2668.36781,0.01128
2667.33755,0.01132
2666.30730,0.01138
2665.27704,0.01126
2664.24678,0.01104
2663.21652,0.01086
2662.18627,0.01073
2661.15601,0.01074
2660.12575,0.01081
2659.09549,0.01060
2658.06523,0.01029
2657.03498,0.01028
2656.00472,0.01030
2654.97446,0.00999
2653.94420,0.00953
2652.91394,0.00925
2651.88369,0.00931
2650.85343,0.00956
2649.82317,0.00966
2648.79291,0.00968
2647.76266,0.00972
2646.73240,0.00941
2645.70214,0.00902
2644.67188,0.00911
2643.64162,0.00937
2642.61137,0.00928
2641.58111,0.00897
2640.55085,0.00886
2639.52059,0.00889
2638.49033,0.00892
2637.46008,0.00911
2636.42982,0.00932
2635.39956,0.00925
2634.36930,0.00897
2633.33905,0.00868
2632.30879,0.00857
2631.27853,0.00869
2630.24827,0.00872
2629.21801,0.00851
2628.18776,0.00847
2627.15750,0.00881
2626.12724,0.00905
2625.09698,0.00889
2624.06673,0.00847
2623.03647,0.00821
2622.00621,0.00838
2620.97595,0.00846
2619.94569,0.00816
2618.91544,0.00812
2617.88518,0.00831
2616.85492,0.00814
2615.82466,0.00771
2614.79440,0.00755
2613.76415,0.00778
2612.73389,0.00773
2611.70363,0.00755
2610.67337,0.00795
2609.64312,0.00840
2608.61286,0.00823
2607.58260,0.00774
2606.55234,0.00735
2605.52208,0.00717
2604.49183,0.00716
2603.46157,0.00755
2602.43131,0.00803
2601.40105,0.00772
2600.37079,0.00717
2599.34054,0.00694
2598.31028,0.00684
2597.28002,0.00711
2596.24976,0.00737
2595.21951,0.00720
2594.18925,0.00704
2593.15899,0.00699
2592.12873,0.00694
2591.09847,0.00723
2590.06822,0.00776
2589.03796,0.00770
2588.00770,0.00701
2586.97744,0.00657
2585.94718,0.00643
2584.91693,0.00651
2583.88667,0.00691
2582.85641,0.00725
2581.82615,0.00737
2580.79590,0.00722
2579.76564,0.00685
2578.73538,0.00667
2577.70512,0.00687
2576.67486,0.00709
2575.64461,0.00682
2574.61435,0.00621
2573.58409,0.00602
2572.55383,0.00646
2571.52358,0.00683
2570.49332,0.00683
2569.46306,0.00679
2568.43280,0.00658
2567.40254,0.00614
2566.37229,0.00609
2565.34203,0.00639
2564.31177,0.00651
2563.28151,0.00645
2562.25125,0.00642
2561.22100,0.00674
2560.19074,0.00707
2559.16048,0.00682
2558.13022,0.00646
2557.09997,0.00637
2556.06971,0.00606
2555.03945,0.00569
2554.00919,0.00584
2552.97893,0.00614
2551.94868,0.00613
2550.91842,0.00611
2549.88816,0.00627
2548.85790,0.00653
2547.82764,0.00659
2546.79739,0.00618
2545.76713,0.00575
2544.73687,0.00561
2543.70661,0.00569
2542.67636,0.00582
2541.64610,0.00571
2540.61584,0.00557
2539.58558,0.00581
2538.55532,0.00630
2537.52507,0.00629
2536.49481,0.00597
2535.46455,0.00601
2534.43429,0.00592
2533.40403,0.00560
2532.37378,0.00543
2531.34352,0.00543
2530.31326,0.00562
2529.28300,0.00611
2528.25275,0.00673
2527.22249,0.00700
2526.19223,0.00686
2525.16197,0.00671
2524.13171,0.00673
2523.10146,0.00667
2522.07120,0.00641
2521.04094,0.00636
2520.01068,0.00653
2518.98043,0.00627
2517.95017,0.00559
2516.91991,0.00538
2515.88965,0.00622
2514.85939,0.00714
2513.82914,0.00670
2512.79888,0.00557
2511.76862,0.00512
2510.73836,0.00521
2509.70810,0.00550
2508.67785,0.00577
2507.64759,0.00564
2506.61733,0.00561
2505.58707,0.00598
2504.55682,0.00613
2503.52656,0.00583
2502.49630,0.00538
2501.46604,0.00516
2500.43578,0.00526
2499.40553,0.00545
2498.37527,0.00550
2497.34501,0.00547
2496.31475,0.00555
2495.28449,0.00542
2494.25424,0.00483
2493.22398,0.00436
2492.19372,0.00475
2491.16346,0.00551
2490.13321,0.00559
2489.10295,0.00523
2488.07269,0.00543
2487.04243,0.00608
2486.01217,0.00610
2484.98192,0.00560
2483.95166,0.00536
2482.92140,0.00523
2481.89114,0.00499
2480.86088,0.00482
2479.83063,0.00490
2478.80037,0.00520
2477.77011,0.00530
2476.73985,0.00534
2475.70960,0.00577
2474.67934,0.00599
2473.64908,0.00584
2472.61882,0.00610
2471.58856,0.00653
2470.55831,0.00667
2469.52805,0.00670
2468.49779,0.00647
2467.46753,0.00595
2466.43728,0.00560
2465.40702,0.00558
2464.37676,0.00561
2463.34650,0.00567
2462.31624,0.00579
2461.28599,0.00574
2460.25573,0.00560
2459.22547,0.00575
2458.19521,0.00610
2457.16495,0.00613
2456.13470,0.00555
2455.10444,0.00487
2454.07418,0.00497
2453.04392,0.00553
2452.01367,0.00582
2450.98341,0.00582
2449.95315,0.00581
2448.92289,0.00566
2447.89263,0.00531
2446.86238,0.00536
2445.83212,0.00578
2444.80186,0.00603
2443.77160,0.00586
2442.74134,0.00548
2441.71109,0.00545
2440.68083,0.00567
2439.65057,0.00580
2438.62031,0.00590
2437.59006,0.00612
2436.55980,0.00621
2435.52954,0.00617
2434.49928,0.00639
2433.46902,0.00649
2432.43877,0.00648
2431.40851,0.00668
2430.37825,0.00672
2429.34799,0.00639
2428.31774,0.00596
2427.28748,0.00579
2426.25722,0.00586
2425.22696,0.00581
2424.19670,0.00583
2423.16645,0.00602
2422.13619,0.00597
2421.10593,0.00588
2420.07567,0.00621
2419.04541,0.00668
2418.01516,0.00676
2416.98490,0.00657
2415.95464,0.00622
2414.92438,0.00569
2413.89413,0.00542
2412.86387,0.00564
2411.83361,0.00617
2410.80335,0.00675
2409.77309,0.00719
2408.74284,0.00721
2407.71258,0.00669
2406.68232,0.00611
2405.65206,0.00575
2404.62180,0.00575
2403.59155,0.00622
2402.56129,0.00678
2401.53103,0.00704
2400.50077,0.00680
2399.47052,0.00629
2398.44026,0.00603
2397.41000,0.00609
2396.37974,0.00647
2395.34948,0.00703
2394.31923,0.00723
2393.28897,0.00684
2392.25871,0.00635
2391.22845,0.00639
2390.19819,0.00695
2389.16794,0.00741
2388.13768,0.00744
2387.10742,0.00745
2386.07716,0.00779
2385.04691,0.00826
2384.01665,0.00854
2382.98639,0.00874
2381.95613,0.00910
2380.92587,0.00944
2379.89562,0.00943
2378.86536,0.00944
2377.83510,0.01030
2376.80484,0.01193
2375.77459,0.01344
2374.74433,0.01437
2373.71407,0.01482
2372.68381,0.01562
2371.65355,0.01702
2370.62330,0.01769
2369.59304,0.01749
2368.56278,0.01771
2367.53252,0.01860
2366.50226,0.02028
2365.47201,0.02294
2364.44175,0.02535
2363.41149,0.02589
2362.38123,0.02459
2361.35098,0.02287
2360.32072,0.02168
2359.29046,0.02119
2358.26020,0.02049
2357.22994,0.01909
2356.19969,0.01884
2355.16943,0.01966
2354.13917,0.01927
2353.10891,0.01776
2352.07865,0.01668
2351.04840,0.01628
2350.01814,0.01575
2348.98788,0.01520
2347.95762,0.01533
2346.92737,0.01607
2345.89711,0.01709
2344.86685,0.01817
2343.83659,0.01868
2342.80633,0.01872
2341.77608,0.01934
2340.74582,0.02021
2339.71556,0.01966
2338.68530,0.01813
2337.65504,0.01767
2336.62479,0.01817
2335.59453,0.01833
2334.56427,0.01824
2333.53401,0.01817
2332.50376,0.01802
2331.47350,0.01818
2330.44324,0.01854
2329.41298,0.01842
2328.38272,0.01777
2327.35247,0.01693
2326.32221,0.01607
2325.29195,0.01576
2324.26169,0.01601
2323.23144,0.01630
2322.20118,0.01631
2321.17092,0.01588
2320.14066,0.01513
2319.11040,0.01437
2318.08015,0.01381
2317.04989,0.01349
2316.01963,0.01332
2314.98937,0.01292
2313.95911,0.01229
2312.92886,0.01159
2311.89860,0.01101
2310.86834,0.01080
2309.83808,0.01089
2308.80783,0.01115
2307.77757,0.01147
2306.74731,0.01152
2305.71705,0.01117
2304.68679,0.01084
2303.65654,0.01036
2302.62628,0.00960
2301.59602,0.00955
2300.56576,0.01013
2299.53550,0.01027
2298.50525,0.00996
2297.47499,0.00971
2296.44473,0.00970
2295.41447,0.00992
2294.38422,0.00980
2293.35396,0.00937
2292.32370,0.00907
2291.29344,0.00920
2290.26318,0.00969
2289.23293,0.00960
2288.20267,0.00884
2287.17241,0.00844
2286.14215,0.00870
2285.11189,0.00904
2284.08164,0.00920
2283.05138,0.00929
2282.02112,0.00930
2280.99086,0.00866
2279.96061,0.00789
2278.93035,0.00864
2277.90009,0.00961
2276.86983,0.00890
2275.83957,0.00784
2274.80932,0.00807
2273.77906,0.00925
2272.74880,0.00963
2271.71854,0.00838
2270.68829,0.00722
2269.65803,0.00735
2268.62777,0.00777
2267.59751,0.00763
2266.56725,0.00734
2265.53700,0.00779
2264.50674,0.00832
2263.47648,0.00790
2262.44622,0.00750
2261.41596,0.00794
2260.38571,0.00845
2259.35545,0.00813
2258.32519,0.00685
2257.29493,0.00622
2256.26468,0.00693
2255.23442,0.00759
2254.20416,0.00772
2253.17390,0.00815
2252.14364,0.00888
2251.11339,0.00904
2250.08313,0.00904
2249.05287,0.00916
2248.02261,0.00879
2246.99235,0.00814
2245.96210,0.00780
2244.93184,0.00798
2243.90158,0.00847
2242.87132,0.00872
2241.84107,0.00882
2240.81081,0.00912
2239.78055,0.00937
2238.75029,0.00953
2237.72003,0.00939
2236.68978,0.00881
2235.65952,0.00795
2234.62926,0.00750
2233.59900,0.00846
2232.56874,0.01005
2231.53849,0.01101
2230.50823,0.01063
2229.47797,0.00926
2228.44771,0.00881
2227.41746,0.00950
2226.38720,0.00950
2225.35694,0.00901
2224.32668,0.00877
2223.29642,0.00801
2222.26617,0.00829
2221.23591,0.01000
2220.20565,0.01029
2219.17539,0.00927
2218.14514,0.00890
2217.11488,0.00927
2216.08462,0.00972
2215.05436,0.00931
2214.02410,0.00830
2212.99385,0.00812
2211.96359,0.00848
2210.93333,0.00865
2209.90307,0.00928
2208.87281,0.01032
2207.84256,0.01064
2206.81230,0.01025
2205.78204,0.01029
2204.75178,0.01089
2203.72153,0.01090
2202.69127,0.00998
2201.66101,0.00935
2200.63075,0.00955
2199.60049,0.00964
2198.57024,0.00903
2197.53998,0.00800
2196.50972,0.00731
2195.47946,0.00693
2194.44920,0.00704
2193.41895,0.00861
2192.38869,0.01013
2191.35843,0.00984
2190.32817,0.00979
2189.29792,0.01090
2188.26766,0.01081
2187.23740,0.00941
2186.20714,0.00907
2185.17688,0.00966
2184.14663,0.00998
2183.11637,0.01061
2182.08611,0.01073
2181.05585,0.00980
2180.02559,0.00998
2178.99534,0.01099
2177.96508,0.01085
2176.93482,0.01005
2175.90456,0.01017
2174.87431,0.00985
2173.84405,0.00740
2172.81379,0.00511
2171.78353,0.00557
2170.75327,0.00851
2169.72302,0.01010
2168.69276,0.00937
2167.66250,0.00966
2166.63224,0.00984
2165.60199,0.00871
2164.57173,0.00876
2163.54147,0.00874
2162.51121,0.00722
2161.48095,0.00663
2160.45070,0.00692
2159.42044,0.00755
2158.39018,0.00939
2157.35992,0.01027
2156.32966,0.00946
2155.29941,0.00922
2154.26915,0.00989
2153.23889,0.00963
2152.20863,0.00833
2151.17838,0.00893
2150.14812,0.01153
2149.11786,0.01215
2148.08760,0.01035
2147.05734,0.00851
2146.02709,0.00800
2144.99683,0.00881
2143.96657,0.00990
2142.93631,0.01072
2141.90605,0.01057
2140.87580,0.00955
2139.84554,0.00887
2138.81528,0.00954
2137.78502,0.01077
2136.75477,0.01126
2135.72451,0.01080
2134.69425,0.00994
2133.66399,0.01000
2132.63373,0.01063
2131.60348,0.01048
2130.57322,0.01033
2129.54296,0.01104
2128.51270,0.01168
2127.48244,0.01182
2126.45219,0.01162
2125.42193,0.01139
2124.39167,0.01173
2123.36141,0.01244
2122.33116,0.01281
2121.30090,0.01201
2120.27064,0.01056
2119.24038,0.01045
2118.21012,0.01213
2117.17987,0.01355
2116.14961,0.01308
2115.11935,0.01179
2114.08909,0.01152
2113.05884,0.01182
2112.02858,0.01153
2110.99832,0.01148
2109.96806,0.01156
2108.93780,0.01122
2107.90755,0.01131
2106.87729,0.01133
2105.84703,0.01066
2104.81677,0.01015
2103.78651,0.01033
2102.75626,0.01059
2101.72600,0.01044
2100.69574,0.01035
2099.66548,0.01080
2098.63523,0.01116
2097.60497,0.01097
2096.57471,0.01056
2095.54445,0.00998
2094.51419,0.00965
2093.48394,0.01003
2092.45368,0.01025
2091.42342,0.00991
2090.39316,0.00980
2089.36290,0.01001
2088.33265,0.01016
2087.30239,0.01073
2086.27213,0.01079
2085.24187,0.00958
2084.21162,0.00874
2083.18136,0.00868
2082.15110,0.00885
2081.12084,0.00951
2080.09058,0.01047
2079.06033,0.01084
2078.03007,0.01015
2076.99981,0.00926
2075.96955,0.00896
2074.93930,0.00908
2073.90904,0.00958
2072.87878,0.01033
2071.84852,0.01036
2070.81826,0.00976
2069.78801,0.00943
2068.75775,0.00923
2067.72749,0.00901
2066.69723,0.00877
2065.66697,0.00878
2064.63672,0.00945
2063.60646,0.01028
2062.57620,0.01069
2061.54594,0.01114
2060.51569,0.01175
2059.48543,0.01156
2058.45517,0.01104
2057.42491,0.01079
2056.39465,0.01012
2055.36440,0.01012
2054.33414,0.01130
2053.30388,0.01168
2052.27362,0.01041
2051.24336,0.00849
2050.21311,0.00738
2049.18285,0.00749
2048.15259,0.00799
2047.12233,0.00852
2046.09208,0.00883
2045.06182,0.00882
2044.03156,0.00916
2043.00130,0.00909
2041.97104,0.00780
2040.94079,0.00671
2039.91053,0.00720
2038.88027,0.00804
2037.85001,0.00704
2036.81975,0.00503
2035.78950,0.00434
2034.75924,0.00496
2033.72898,0.00499
2032.69872,0.00485
2031.66847,0.00607
2030.63821,0.00798
2029.60795,0.00935
2028.57769,0.00984
2027.54743,0.00952
2026.51718,0.00896
2025.48692,0.00842
2024.45666,0.00702
2023.42640,0.00601
2022.39615,0.00662
2021.36589,0.00655
2020.33563,0.00457
2019.30537,0.00322
2018.27511,0.00439
2017.24486,0.00572
2016.21460,0.00571
2015.18434,0.00650
2014.15408,0.00815
2013.12382,0.00901
2012.09357,0.00878
2011.06331,0.00823
2010.03305,0.00798
2009.00279,0.00768
2007.97254,0.00807
2006.94228,0.00890
2005.91202,0.00862
2004.88176,0.00850
2003.85150,0.00905
2002.82125,0.00932
2001.79099,0.00956
2000.76073,0.00936
1999.73047,0.00872
1998.70021,0.00871
1997.66996,0.00811
1996.63970,0.00592
1995.60944,0.00475
1994.57918,0.00535
1993.54893,0.00513
1992.51867,0.00455
1991.48841,0.00604
1990.45815,0.00824
1989.42789,0.00966
1988.39764,0.01083
1987.36738,0.01109
1986.33712,0.00999
1985.30686,0.00906
1984.27660,0.00893
1983.24635,0.00901
1982.21609,0.00929
1981.18583,0.00903
1980.15557,0.00744
1979.12532,0.00520
1978.09506,0.00393
1977.06480,0.00455
1976.03454,0.00566
1975.00428,0.00572
1973.97403,0.00625
1972.94377,0.00848
1971.91351,0.01063
1970.88325,0.01078
1969.85300,0.00879
1968.82274,0.00728
1967.79248,0.00850
1966.76222,0.01005
1965.73196,0.00930
1964.70171,0.00840
1963.67145,0.00859
1962.64119,0.00868
1961.61093,0.00909
1960.58067,0.00985
1959.55042,0.01027
1958.52016,0.01020
1957.48990,0.00917
1956.45964,0.00709
1955.42939,0.00575
1954.39913,0.00685
1953.36887,0.00857
1952.33861,0.00892
1951.30835,0.00866
1950.27810,0.00873
1949.24784,0.00847
1948.21758,0.00770
1947.18732,0.00822
1946.15706,0.00953
1945.12681,0.00980
1944.09655,0.00950
1943.06629,0.00870
1942.03603,0.00779
1941.00578,0.00797
1939.97552,0.00856
1938.94526,0.00856
1937.91500,0.00815
1936.88474,0.00815
1935.85449,0.00866
1934.82423,0.00928
1933.79397,0.00955
1932.76371,0.00930
1931.73345,0.00905
1930.70320,0.00904
1929.67294,0.00914
1928.64268,0.00903
1927.61242,0.00853
1926.58217,0.00821
1925.55191,0.00818
1924.52165,0.00824
1923.49139,0.00846
1922.46113,0.00831
1921.43088,0.00782
1920.40062,0.00739
1919.37036,0.00675
1918.34010,0.00616
1917.30985,0.00638
1916.27959,0.00709
1915.24933,0.00782
1914.21907,0.00829
1913.18881,0.00788
1912.15856,0.00708
1911.12830,0.00704
1910.09804,0.00755
1909.06778,0.00773
1908.03752,0.00757
1907.00727,0.00738
1905.97701,0.00729
1904.94675,0.00730
1903.91649,0.00698
1902.88624,0.00647
1901.85598,0.00613
1900.82572,0.00585
1899.79546,0.00571
1898.76520,0.00575
1897.73495,0.00583
1896.70469,0.00603
1895.67443,0.00625
1894.64417,0.00638
1893.61391,0.00646
1892.58366,0.00651
1891.55340,0.00662
1890.52314,0.00657
1889.49288,0.00657
1888.46263,0.00686
1887.43237,0.00695
1886.40211,0.00691
1885.37185,0.00682
1884.34159,0.00653
1883.31134,0.00639
1882.28108,0.00657
1881.25082,0.00683
1880.22056,0.00721
1879.19030,0.00738
1878.16005,0.00701
1877.12979,0.00636
1876.09953,0.00571
1875.06927,0.00566
1874.03902,0.00608
1873.00876,0.00608
1871.97850,0.00581
1870.94824,0.00616
1869.91798,0.00676
1868.88773,0.00640
1867.85747,0.00577
1866.82721,0.00603
1865.79695,0.00663
1864.76670,0.00695
1863.73644,0.00709
1862.70618,0.00718
1861.67592,0.00686
1860.64566,0.00606
1859.61541,0.00564
1858.58515,0.00581
1857.55489,0.00597
1856.52463,0.00602
1855.49437,0.00616
1854.46412,0.00625
1853.43386,0.00610
1852.40360,0.00612
1851.37334,0.00617
1850.34309,0.00594
1849.31283,0.00596
1848.28257,0.00607
1847.25231,0.00585
1846.22205,0.00586
1845.19180,0.00605
1844.16154,0.00615
1843.13128,0.00643
1842.10102,0.00659
1841.07076,0.00652
1840.04051,0.00658
1839.01025,0.00677
1837.97999,0.00667
1836.94973,0.00635
1835.91948,0.00613
1834.88922,0.00614
1833.85896,0.00653
1832.82870,0.00697
1831.79844,0.00734
1830.76819,0.00747
1829.73793,0.00705
1828.70767,0.00683
1827.67741,0.00724
1826.64715,0.00729
1825.61690,0.00660
1824.58664,0.00656
1823.55638,0.00724
1822.52612,0.00723
1821.49587,0.00690
1820.46561,0.00674
1819.43535,0.00669
1818.40509,0.00700
1817.37483,0.00754
1816.34458,0.00787
1815.31432,0.00780
1814.28406,0.00760
1813.25380,0.00754
1812.22355,0.00740
1811.19329,0.00724
1810.16303,0.00743
1809.13277,0.00771
1808.10251,0.00795
1807.07226,0.00829
1806.04200,0.00849
1805.01174,0.00862
1803.98148,0.00873
1802.95122,0.00839
1801.92097,0.00791
1800.89071,0.00781
1799.86045,0.00783
1798.83019,0.00790
1797.79994,0.00790
1796.76968,0.00790
1795.73942,0.00840
1794.70916,0.00898
1793.67890,0.00900
1792.64865,0.00878
1791.61839,0.00888
1790.58813,0.00908
1789.55787,0.00892
1788.52761,0.00851
1787.49736,0.00840
1786.46710,0.00876
1785.43684,0.00908
1784.40658,0.00903
1783.37633,0.00894
1782.34607,0.00907
1781.31581,0.00936
1780.28555,0.00973
1779.25529,0.00999
1778.22504,0.01017
1777.19478,0.01022
1776.16452,0.00987
1775.13426,0.00960
1774.10400,0.00987
1773.07375,0.01012
1772.04349,0.00990
1771.01323,0.00963
1769.98297,0.00957
1768.95272,0.00948
1767.92246,0.00948
1766.89220,0.00995
1765.86194,0.01051
1764.83168,0.01081
1763.80143,0.01075
1762.77117,0.01045
1761.74091,0.01054
1760.71065,0.01121
1759.68040,0.01170
1758.65014,0.01193
1757.61988,0.01207
1756.58962,0.01223
1755.55936,0.01254
1754.52911,0.01295
1753.49885,0.01312
1752.46859,0.01274
1751.43833,0.01227
1750.40807,0.01246
1749.37782,0.01286
1748.34756,0.01317
1747.31730,0.01360
1746.28704,0.01391
1745.25679,0.01414
1744.22653,0.01446
1743.19627,0.01457
1742.16601,0.01454
1741.13575,0.01473
1740.10550,0.01509
1739.07524,0.01541
1738.04498,0.01574
1737.01472,0.01605
1735.98446,0.01603
1734.95421,0.01563
1733.92395,0.01549
1732.89369,0.01631
1731.86343,0.01707
1730.83318,0.01749
1729.80292,0.01779
1728.77266,0.01811
1727.74240,0.01848
1726.71214,0.01897
1725.68189,0.01956
1724.65163,0.02020
1723.62137,0.02071
1722.59111,0.02104
1721.56085,0.02133
1720.53060,0.02161
1719.50034,0.02191
1718.47008,0.02198
1717.43982,0.02200
1716.40957,0.02251
1715.37931,0.02340
1714.34905,0.02445
1713.31879,0.02531
1712.28853,0.02588
1711.25828,0.02645
1710.22802,0.02717
1709.19776,0.02776
1708.16750,0.02826
1707.13725,0.02899
1706.10699,0.02993
1705.07673,0.03083
1704.04647,0.03167
1703.01621,0.03249
1701.98596,0.03316
1700.95570,0.03366
1699.92544,0.03462
1698.89518,0.03598
1697.86492,0.03691
1696.83467,0.03733
1695.80441,0.03768
1694.77415,0.03916
1693.74389,0.04095
1692.71364,0.04248
1691.68338,0.04365
1690.65312,0.04462
1689.62286,0.04575
1688.59260,0.04712
1687.56235,0.04873
1686.53209,0.05021
1685.50183,0.05117
1684.47157,0.05192
1683.44131,0.05342
1682.41106,0.05515
1681.38080,0.05675
1680.35054,0.05832
1679.32028,0.05987
1678.29003,0.06145
1677.25977,0.06289
1676.22951,0.06398
1675.19925,0.06540
1674.16899,0.06739
1673.13874,0.06892
1672.10848,0.07016
1671.07822,0.07157
1670.04796,0.07315
1669.01771,0.07494
1667.98745,0.07677
1666.95719,0.07824
1665.92693,0.07958
1664.89667,0.08121
1663.86642,0.08298
1662.83616,0.08447
1661.80590,0.08566
1660.77564,0.08673
1659.74538,0.08787
1658.71513,0.08926
1657.68487,0.09085
1656.65461,0.09218
1655.62435,0.09288
1654.59410,0.09328
1653.56384,0.09369
1652.53358,0.09404
1651.50332,0.09493
1650.47306,0.09601
1649.44281,0.09670
1648.41255,0.09672
1647.38229,0.09631
1646.35203,0.09601
1645.32177,0.09622
1644.29152,0.09669
1643.26126,0.09679
1642.23100,0.09640
1641.20074,0.09579
1640.17049,0.09530
1639.14023,0.09479
1638.10997,0.09383
1637.07971,0.09259
1636.04945,0.09114
1635.01920,0.08940
1633.98894,0.08844
1632.95868,0.08775
1631.92842,0.08688
1630.89816,0.08586
1629.86791,0.08450
1628.83765,0.08290
1627.80739,0.08101
1626.77713,0.07904
1625.74688,0.07746
1624.71662,0.07589
1623.68636,0.07352
1622.65610,0.07095
1621.62584,0.06925
1620.59559,0.06763
1619.56533,0.06595
1618.53507,0.06469
1617.50481,0.06339
1616.47456,0.06105
1615.44430,0.05908
1614.41404,0.05792
1613.38378,0.05663
1612.35352,0.05526
1611.32327,0.05386
1610.29301,0.05232
1609.26275,0.05089
1608.23249,0.04967
1607.20223,0.04841
1606.17198,0.04719
1605.14172,0.04604
1604.11146,0.04487
1603.08120,0.04369
1602.05095,0.04269
1601.02069,0.04186
1599.99043,0.04126
1598.96017,0.04092
1597.92991,0.04040
1596.89966,0.03952
1595.86940,0.03865
1594.83914,0.03799
1593.80888,0.03744
1592.77862,0.03685
1591.74837,0.03615
1590.71811,0.03549
1589.68785,0.03493
1588.65759,0.03450
1587.62734,0.03408
1586.59708,0.03350
1585.56682,0.03300
1584.53656,0.03275
1583.50630,0.03246
1582.47605,0.03203
1581.44579,0.03160
1580.41553,0.03120
1579.38527,0.03092
1578.35501,0.03062
1577.32476,0.03030
1576.29450,0.02992
1575.26424,0.02935
1574.23398,0.02887
1573.20373,0.02844
1572.17347,0.02797
1571.14321,0.02752
1570.11295,0.02706
1569.08269,0.02687
1568.05244,0.02698
1567.02218,0.02687
1565.99192,0.02654
1564.96166,0.02616
1563.93141,0.02591
1562.90115,0.02584
1561.87089,0.02567
1560.84063,0.02535
1559.81037,0.02512
1558.78012,0.02476
1557.74986,0.02429
1556.71960,0.02444
1555.68934,0.02465
1554.65908,0.02468
1553.62883,0.02467
1552.59857,0.02464
1551.56831,0.02444
1550.53805,0.02405
1549.50780,0.02383
1548.47754,0.02396
1547.44728,0.02405
1546.41702,0.02386
1545.38676,0.02348
1544.35651,0.02347
1543.32625,0.02378
1542.29599,0.02361
1541.26573,0.02297
1540.23547,0.02254
1539.20522,0.02253
1538.17496,0.02273
1537.14470,0.02290
1536.11444,0.02301
1535.08419,0.02286
1534.05393,0.02243
1533.02367,0.02225
1531.99341,0.02242
1530.96315,0.02267
1529.93290,0.02297
1528.90264,0.02312
1527.87238,0.02315
1526.84212,0.02321
1525.81186,0.02298
1524.78161,0.02248
1523.75135,0.02231
1522.72109,0.02225
1521.69083,0.02188
1520.66058,0.02175
1519.63032,0.02240
1518.60006,0.02296
1517.56980,0.02284
1516.53954,0.02254
1515.50929,0.02260
1514.47903,0.02262
1513.44877,0.02269
1512.41851,0.02294
1511.38826,0.02317
1510.35800,0.02323
1509.32774,0.02311
1508.29748,0.02282
1507.26722,0.02269
1506.23697,0.02320
1505.20671,0.02410
1504.17645,0.02468
1503.14619,0.02496
1502.11593,0.02519
1501.08568,0.02542
1500.05542,0.02552
1499.02516,0.02571
1497.99490,0.02630
1496.96465,0.02690
1495.93439,0.02766
1494.90413,0.02890
1493.87387,0.03032
1492.84361,0.03178
1491.81336,0.03317
1490.78310,0.03454
1489.75284,0.03648
1488.72258,0.03868
1487.69232,0.04093
1486.66207,0.04418
1485.63181,0.04823
1484.60155,0.05250
1483.57129,0.05686
1482.54104,0.06086
1481.51078,0.06357
1480.48052,0.06464
1479.45026,0.06482
1478.42000,0.06493
1477.38975,0.06521
1476.35949,0.06597
1475.32923,0.06761
1474.29897,0.06975
1473.26871,0.07216
1472.23846,0.07466
1471.20820,0.07723
1470.17794,0.07971
1469.14768,0.08184
1468.11743,0.08338
1467.08717,0.08456
1466.05691,0.08553
1465.02665,0.08616
1463.99639,0.08673
1462.96614,0.08704
1461.93588,0.08666
1460.90562,0.08591
1459.87536,0.08522
1458.84511,0.08441
1457.81485,0.08355
1456.78459,0.08276
1455.75433,0.08261
1454.72407,0.08259
1453.69382,0.08202
1452.66356,0.08081
1451.63330,0.07915
1450.60304,0.07719
1449.57278,0.07495
1448.54253,0.07265
1447.51227,0.07064
1446.48201,0.06906
1445.45175,0.06751
1444.42150,0.06599
1443.39124,0.06437
1442.36098,0.06247
1441.33072,0.06058
1440.30046,0.05887
1439.27021,0.05699
1438.23995,0.05499
1437.20969,0.05258
1436.17943,0.04962
1435.14917,0.04785
1434.11892,0.04671
1433.08866,0.04543
1432.05840,0.04412
1431.02814,0.04289
1429.99789,0.04187
1428.96763,0.04107
1427.93737,0.04039
1426.90711,0.03998
1425.87685,0.03973
1424.84660,0.03922
1423.81634,0.03860
1422.78608,0.03814
1421.75582,0.03764
1420.72556,0.03711
1419.69531,0.03669
1418.66505,0.03663
1417.63479,0.03681
1416.60453,0.03693
1415.57428,0.03701
1414.54402,0.03716
1413.51376,0.03731
1412.48350,0.03726
1411.45324,0.03719
1410.42299,0.03743
1409.39273,0.03776
1408.36247,0.03814
1407.33221,0.03880
1406.30196,0.03960
1405.27170,0.04040
1404.24144,0.04128
1403.21118,0.04182
1402.18092,0.04182
1401.15067,0.04164
1400.12041,0.04142
1399.09015,0.04105
1398.05989,0.04060
1397.02963,0.04021
1395.99938,0.03970
1394.96912,0.03901
1393.93886,0.03862
1392.90860,0.03848
1391.87835,0.03826
1390.84809,0.03808
1389.81783,0.03801
1388.78757,0.03788
1387.75731,0.03770
1386.72706,0.03790
1385.69680,0.03842
1384.66654,0.03878
1383.63628,0.03912
1382.60602,0.03954
1381.57577,0.03993
1380.54551,0.04018
1379.51525,0.04030
1378.48499,0.04062
1377.45474,0.04120
1376.42448,0.04173
1375.39422,0.04212
1374.36396,0.04254
1373.33370,0.04330
1372.30345,0.04444
1371.27319,0.04567
1370.24293,0.04677
1369.21267,0.04790
1368.18241,0.04915
1367.15216,0.05038
1366.12190,0.05185
1365.09164,0.05374
1364.06138,0.05556
1363.03113,0.05745
1362.00087,0.05991
1360.97061,0.06278
1359.94035,0.06572
1358.91009,0.06859
1357.87984,0.07175
1356.84958,0.07554
1355.81932,0.07955
1354.78906,0.08339
1353.75881,0.08738
1352.72855,0.09166
1351.69829,0.09560
1350.66803,0.09849
1349.63777,0.10018
1348.60752,0.10034
1347.57726,0.09835
1346.54700,0.09376
1345.51674,0.08649
1344.48648,0.07748
1343.45623,0.06849
1342.42597,0.06117
1341.39571,0.05589
1340.36545,0.05219
1339.33520,0.04980
1338.30494,0.04853
1337.27468,0.04815
1336.24442,0.04829
1335.21416,0.04848
1334.18391,0.04856
1333.15365,0.04869
1332.12339,0.04922
1331.09313,0.05007
1330.06287,0.05075
1329.03262,0.05098
1328.00236,0.05074
1326.97210,0.05003
1325.94184,0.04917
1324.91159,0.04835
1323.88133,0.04748
1322.85107,0.04668
1321.82081,0.04610
1320.79055,0.04567
1319.76030,0.04541
1318.73004,0.04548
1317.69978,0.04592
1316.66952,0.04671
1315.63927,0.04774
1314.60901,0.04895
1313.57875,0.05052
1312.54849,0.05243
1311.51823,0.05445
1310.48798,0.05650
1309.45772,0.05868
1308.42746,0.06103
1307.39720,0.06322
1306.36694,0.06489
1305.33669,0.06613
1304.30643,0.06713
1303.27617,0.06816
1302.24591,0.06928
1301.21566,0.07021
1300.18540,0.07078
1299.15514,0.07100
1298.12488,0.07088
1297.09462,0.07067
1296.06437,0.07066
1295.03411,0.07077
1294.00385,0.07076
1292.97359,0.07040
1291.94333,0.06989
1290.91308,0.06965
1289.88282,0.06961
1288.85256,0.06949
1287.82230,0.06928
1286.79205,0.06890
1285.76179,0.06826
1284.73153,0.06751
1283.70127,0.06665
1282.67101,0.06557
1281.64076,0.06433
1280.61050,0.06325
1279.58024,0.06230
1278.54998,0.06118
1277.51972,0.05997
1276.48947,0.05888
1275.45921,0.05787
1274.42895,0.05687
1273.39869,0.05601
1272.36844,0.05541
1271.33818,0.05509
1270.30792,0.05500
1269.27766,0.05497
1268.24740,0.05501
1267.21715,0.05536
1266.18689,0.05601
1265.15663,0.05712
1264.12637,0.05886
1263.09612,0.06081
1262.06586,0.06278
1261.03560,0.06492
1260.00534,0.06711
1258.97508,0.06930
1257.94483,0.07159
1256.91457,0.07380
1255.88431,0.07585
1254.85405,0.07787
1253.82379,0.07967
1252.79354,0.08109
1251.76328,0.08239
1250.73302,0.08349
1249.70276,0.08399
1248.67251,0.08406
1247.64225,0.08404
1246.61199,0.08402
1245.58173,0.08388
1244.55147,0.08338
1243.52122,0.08266
1242.49096,0.08204
1241.46070,0.08141
1240.43044,0.08051
1239.40018,0.07932
1238.36993,0.07800
1237.33967,0.07643
1236.30941,0.07436
1235.27915,0.07185
1234.24890,0.06892
1233.21864,0.06560
1232.18838,0.06227
1231.15812,0.05916
1230.12786,0.05623
1229.09761,0.05376
1228.06735,0.05193
1227.03709,0.05038
1226.00683,0.04882
1224.97657,0.04749
1223.94632,0.04645
1222.91606,0.04535
1221.88580,0.04400
1220.85554,0.04267
1219.82529,0.04170
1218.79503,0.04097
1217.76477,0.04033
1216.73451,0.03975
1215.70425,0.03919
1214.67400,0.03850
1213.64374,0.03778
1212.61348,0.03730
1211.58322,0.03703
1210.55297,0.03679
1209.52271,0.03641
1208.49245,0.03592
1207.46219,0.03543
1206.43193,0.03496
1205.40168,0.03464
1204.37142,0.03457
1203.34116,0.03464
1202.31090,0.03481
1201.28064,0.03497
1200.25039,0.03487
1199.22013,0.03460
1198.18987,0.03432
1197.15961,0.03408
1196.12936,0.03398
1195.09910,0.03407
1194.06884,0.03432
1193.03858,0.03459
1192.00832,0.03481
1190.97807,0.03499
1189.94781,0.03514
1188.91755,0.03527
1187.88729,0.03542
1186.85703,0.03556
1185.82678,0.03567
1184.79652,0.03583
1183.76626,0.03606
1182.73600,0.03642
1181.70575,0.03705
1180.67549,0.03769
1179.64523,0.03812
1178.61497,0.03848
1177.58471,0.03902
1176.55446,0.03963
1175.52420,0.03998
1174.49394,0.04034
1173.46368,0.04100
1172.43342,0.04174
1171.40317,0.04269
1170.37291,0.04399
1169.34265,0.04535
1168.31239,0.04669
1167.28214,0.04822
1166.25188,0.04996
1165.22162,0.05195
1164.19136,0.05439
1163.16110,0.05729
1162.13085,0.06058
1161.10059,0.06417
1160.07033,0.06800
1159.04007,0.07237
1158.00982,0.07743
1156.97956,0.08266
1155.94930,0.08788
1154.91904,0.09358
1153.88878,0.09994
1152.85853,0.10657
1151.82827,0.11314
1150.79801,0.11973
1149.76775,0.12653
1148.73749,0.13328
1147.70724,0.13968
1146.67698,0.14591
1145.64672,0.15201
1144.61646,0.15792
1143.58621,0.16383
1142.55595,0.16946
1141.52569,0.17446
1140.49543,0.17888
1139.46517,0.18281
1138.43492,0.18656
1137.40466,0.19047
1136.37440,0.19434
1135.34414,0.19778
1134.31388,0.20067
1133.28363,0.20316
1132.25337,0.20570
1131.22311,0.20838
1130.19285,0.21094
1129.16260,0.21364
1128.13234,0.21702
1127.10208,0.22087
1126.07182,0.22462
1125.04156,0.22834
1124.01131,0.23217
1122.98105,0.23644
1121.95079,0.24135
1120.92053,0.24631
1119.89027,0.25099
1118.86002,0.25581
1117.82976,0.26076
1116.79950,0.26584
1115.76924,0.27102
1114.73899,0.27577
1113.70873,0.28044
1112.67847,0.28548
1111.64821,0.29039
1110.61795,0.29533
1109.58770,0.30069
1108.55744,0.30605
1107.52718,0.31132
1106.49692,0.31671
1105.46667,0.32208
1104.43641,0.32784
1103.40615,0.33392
1102.37589,0.33947
1101.34563,0.34444
1100.31538,0.34934
1099.28512,0.35439
1098.25486,0.35930
1097.22460,0.36349
1096.19434,0.36745
1095.16409,0.37156
1094.13383,0.37511
1093.10357,0.37776
1092.07331,0.37973
1091.04306,0.38153
1090.01280,0.38340
1088.98254,0.38476
1087.95228,0.38492
1086.92202,0.38438
1085.89177,0.38391
1084.86151,0.38306
1083.83125,0.38125
1082.80099,0.37876
1081.77073,0.37608
1080.74048,0.37336
1079.71022,0.37047
1078.67996,0.36726
1077.64970,0.36373
1076.61945,0.36014
1075.58919,0.35681
1074.55893,0.35343
1073.52867,0.34969
1072.49841,0.34614
1071.46816,0.34267
1070.43790,0.33847
1069.40764,0.33371
1068.37738,0.32870
1067.34712,0.32358
1066.31687,0.31808
1065.28661,0.31181
1064.25635,0.30502
1063.22609,0.29747
1062.19584,0.28884
1061.16558,0.27964
1060.13532,0.27023
1059.10506,0.26055
1058.07480,0.25071
1057.04455,0.24121
1056.01429,0.23180
1054.98403,0.22201
1053.95377,0.21258
1052.92352,0.20451
1051.89326,0.19737
1050.86300,0.19027
1049.83274,0.18347
1048.80248,0.17773
1047.77223,0.17337
1046.74197,0.17036
1045.71171,0.16796
1044.68145,0.16569
1043.65119,0.16404
1042.62094,0.16330
1041.59068,0.16297
1040.56042,0.16258
1039.53016,0.16206
1038.49991,0.16147
1037.46965,0.16088
1036.43939,0.16001
1035.40913,0.15881
1034.37887,0.15744
1033.34862,0.15583
1032.31836,0.15402
1031.28810,0.15177
1030.25784,0.14890
1029.22758,0.14575
1028.19733,0.14227
1027.16707,0.13834
1026.13681,0.13438
1025.10655,0.13076
1024.07630,0.12722
1023.04604,0.12327
1022.01578,0.11916
1020.98552,0.11532
1019.95526,0.11164
1018.92501,0.10799
1017.89475,0.10437
1016.86449,0.10081
1015.83423,0.09756
1014.80397,0.09455
1013.77372,0.09143
1012.74346,0.08863
1011.71320,0.08670
1010.68294,0.08533
1009.65269,0.08382
1008.62243,0.08236
1007.59217,0.08141
1006.56191,0.08068
1005.53165,0.07991
1004.50140,0.07915
1003.47114,0.07853
1002.44088,0.07821
1001.41062,0.07805
1000.38037,0.07802
999.35011,0.07815
998.31985,0.07820
997.28959,0.07796
996.25933,0.07743
995.22908,0.07697
994.19882,0.07701
993.16856,0.07726
992.13830,0.07709
991.10804,0.07658
990.07779,0.07592
989.04753,0.07507
988.01727,0.07412
986.98701,0.07359
985.95676,0.07342
984.92650,0.07278
983.89624,0.07187
982.86598,0.07139
981.83572,0.07095
980.80547,0.07017
979.77521,0.06944
978.74495,0.06896
977.71469,0.06879
976.68443,0.06883
975.65418,0.06871
974.62392,0.06866
973.59366,0.06887
972.56340,0.06936
971.53315,0.07031
970.50289,0.07170
969.47263,0.07334
968.44237,0.07503
967.41211,0.07678
966.38186,0.07918
965.35160,0.08264
964.32134,0.08674
963.29108,0.09109
962.26082,0.09602
961.23057,0.10192
960.20031,0.10861
959.17005,0.11593
958.13979,0.12387
957.10954,0.13198
956.07928,0.14030
955.04902,0.14925
954.01876,0.15854
952.98850,0.16750
951.95825,0.17562
950.92799,0.18277
949.89773,0.18902
948.86747,0.19416
947.83722,0.19792
946.80696,0.19993
945.77670,0.19985
944.74644,0.19800
943.71618,0.19478
942.68593,0.19018
941.65567,0.18467
940.62541,0.17902
939.59515,0.17357
938.56489,0.16835
937.53464,0.16323
936.50438,0.15836
935.47412,0.15419
934.44386,0.15053
933.41361,0.14674
932.38335,0.14298
931.35309,0.13978
930.32283,0.13666
929.29257,0.13326
928.26232,0.13033
927.23206,0.12812
926.20180,0.12597
925.17154,0.12374
924.14128,0.12176
923.11103,0.12020
922.08077,0.11888
921.05051,0.11741
920.02025,0.11551
918.99000,0.11373
917.95974,0.11285
916.92948,0.11216
915.89922,0.11069
914.86896,0.10921
913.83871,0.10817
912.80845,0.10705
911.77819,0.10578
910.74793,0.10440
909.71768,0.10285
908.68742,0.10161
907.65716,0.10095
906.62690,0.10017
905.59664,0.09887
904.56639,0.09756
903.53613,0.09672
902.50587,0.09626
901.47561,0.09594
900.44535,0.09598
899.41510,0.09656
898.38484,0.09695
897.35458,0.09696
896.32432,0.09773
895.29407,0.09931
894.26381,0.10055
893.23355,0.10179
892.20329,0.10378
891.17303,0.10613
890.14278,0.10828
889.11252,0.10990
888.08226,0.11098
887.05200,0.11189
886.02174,0.11284
884.99149,0.11360
883.96123,0.11398
882.93097,0.11411
881.90071,0.11390
880.87046,0.11317
879.84020,0.11238
878.80994,0.11195
877.77968,0.11168
876.74942,0.11143
875.71917,0.11117
874.68891,0.11101
873.65865,0.11112
872.62839,0.11139
871.59813,0.11193
870.56788,0.11303
869.53762,0.11427
868.50736,0.11539
867.47710,0.11686
866.44685,0.11858
865.41659,0.11977
864.38633,0.12040
863.35607,0.12112
862.32581,0.12231
861.29556,0.12400
860.26530,0.12562
859.23504,0.12690
858.20478,0.12846
857.17453,0.13031
856.14427,0.13194
855.11401,0.13384
854.08375,0.13632
853.05349,0.13824
852.02324,0.13931
850.99298,0.14074
849.96272,0.14288
848.93246,0.14520
847.90220,0.14715
846.87195,0.14861
845.84169,0.15000
844.81143,0.15158
843.78117,0.15300
842.75092,0.15384
841.72066,0.15407
840.69040,0.15455
839.66014,0.15608
838.62988,0.15796
837.59963,0.15925
836.56937,0.16014
835.53911,0.16052
834.50885,0.16014
833.47859,0.15936
832.44834,0.15844
831.41808,0.15787
830.38782,0.15780
829.35756,0.15798
828.32731,0.15806
827.29705,0.15747
826.26679,0.15673
825.23653,0.15653
824.20627,0.15615
823.17602,0.15514
822.14576,0.15430
821.11550,0.15426
820.08524,0.15470
819.05498,0.15504
818.02473,0.15533
816.99447,0.15579
815.96421,0.15595
814.93395,0.15604
813.90370,0.15662
812.87344,0.15710
811.84318,0.15757
810.81292,0.15857
809.78266,0.15928
808.75241,0.15905
807.72215,0.15856
806.69189,0.15878
805.66163,0.15963
804.63138,0.16049
803.60112,0.16119
802.57086,0.16153
801.54060,0.16194
800.51034,0.16238
799.48009,0.16183
798.44983,0.16080
797.41957,0.16090
796.38931,0.16241
795.35905,0.16356
794.32880,0.16363
793.29854,0.16398
792.26828,0.16479
791.23802,0.16533
790.20777,0.16578
789.17751,0.16653
788.14725,0.16734
787.11699,0.16806
786.08673,0.16868
785.05648,0.16912
784.02622,0.16960
782.99596,0.17038
781.96570,0.17154
780.93544,0.17293
779.90519,0.17413
778.87493,0.17516
777.84467,0.17606
776.81441,0.17649
775.78416,0.17715
774.75390,0.17859
773.72364,0.18011
772.69338,0.18157
771.66312,0.18297
770.63287,0.18402
769.60261,0.18532
768.57235,0.18741
767.54209,0.18986
766.51183,0.19226
765.48158,0.19463
764.45132,0.19696
763.42106,0.19919
762.39080,0.20127
761.36055,0.20310
760.33029,0.20515
759.30003,0.20751
758.26977,0.20940
757.23951,0.21045
756.20926,0.21066
755.17900,0.20997
754.14874,0.20878
753.11848,0.20790
752.08823,0.20772
751.05797,0.20778
750.02771,0.20758
748.99745,0.20739
747.96719,0.20748
746.93694,0.20736
745.90668,0.20689
744.87642,0.20705
743.84616,0.20842
742.81590,0.20993
741.78565,0.21067
740.75539,0.21124
739.72513,0.21218
738.69487,0.21343
737.66462,0.21449
736.63436,0.21489
735.60410,0.21553
734.57384,0.21720
733.54358,0.21907
732.51333,0.22014
731.48307,0.22038
730.45281,0.22084
729.42255,0.22176
728.39229,0.22281
727.36204,0.22402
726.33178,0.22464
725.30152,0.22496
724.27126,0.22620
723.24101,0.22792
722.21075,0.22939
721.18049,0.23114
720.15023,0.23270
719.11997,0.23342
718.08972,0.23428
717.05946,0.23529
716.02920,0.23550
714.99894,0.23570
713.96868,0.23695
712.93843,0.23835
711.90817,0.23937
710.87791,0.24052
709.84765,0.24131
708.81740,0.24133
707.78714,0.24195
706.75688,0.24394
705.72662,0.24575
704.69636,0.24685
703.66611,0.24794
702.63585,0.24818
701.60559,0.24797
700.57533,0.24896
699.54508,0.25043
698.51482,0.25205
697.48456,0.25421
696.45430,0.25598
695.42404,0.25710
694.39379,0.25821
693.36353,0.25929
692.33327,0.25973
691.30301,0.25973
690.27275,0.26076
689.24250,0.26232
688.21224,0.26282
687.18198,0.26352
686.15172,0.26500
685.12147,0.26562
684.09121,0.26535
683.06095,0.26584
682.03069,0.26811
681.00043,0.27062
679.97018,0.27125
678.93992,0.27139
677.90966,0.27280
676.87940,0.27393
675.84914,0.27435
674.81889,0.27530
673.78863,0.27638
672.75837,0.27700
671.72811,0.27707
670.69786,0.27803
669.66760,0.28183
668.63734,0.28666
667.60708,0.28341
666.57682,0.27883
665.54657,0.27889
664.51631,0.28045
663.48605,0.28226
662.45579,0.28423
661.42553,0.28571
660.39528,0.28617
659.36502,0.28630
658.33476,0.28723
657.30450,0.28890
656.27425,0.29036
655.24399,0.29129
654.21373,0.29188
653.18347,0.29242
652.15321,0.29305
651.12296,0.29317
650.09270,0.29376
649.06244,0.29575
648.03218,0.29734
647.00193,0.29772
645.97167,0.29786
644.94141,0.29786
643.91115,0.29733
642.88089,0.29723
641.85064,0.29810
640.82038,0.29859
639.79012,0.29894
638.75986,0.30007
637.72960,0.30048
636.69935,0.29975
635.66909,0.30013
634.63883,0.30189
633.60857,0.30283
632.57832,0.30261
631.54806,0.30238
630.51780,0.30275
629.48754,0.30377
628.45728,0.30468
627.42703,0.30538
626.39677,0.30625
625.36651,0.30715
624.33625,0.30855
623.30599,0.30958
622.27574,0.30851
621.24548,0.30728
620.21522,0.30801
619.18496,0.30935
618.15471,0.31053
617.12445,0.31210
616.09419,0.31396
615.06393,0.31497
614.03367,0.31524
613.00342,0.31598
611.97316,0.31675
610.94290,0.31701
609.91264,0.31695
608.88238,0.31711
607.85213,0.31769
606.82187,0.31797
605.79161,0.31851
604.76135,0.32020
603.73110,0.32150
602.70084,0.32127
601.67058,0.32119
600.64032,0.32202
599.61006,0.32235
598.57981,0.32199
597.54955,0.32260
596.51929,0.32456
595.48903,0.32568
594.45878,0.32666
593.42852,0.32920
592.39826,0.33029
591.36800,0.32912
590.33774,0.32797
589.30749,0.32843
588.27723,0.33071
587.24697,0.33263
586.21671,0.33350
585.18645,0.33389
584.15620,0.33442
583.12594,0.33462
582.09568,0.33425
581.06542,0.33487
580.03517,0.33663
579.00491,0.33841
577.97465,0.33921
576.94439,0.33897
575.91413,0.33875
574.88388,0.33972
573.85362,0.34097
572.82336,0.34044
571.79310,0.33856
570.76284,0.33792
569.73259,0.33898
568.70233,0.33973
567.67207,0.34011
566.64181,0.34235
565.61156,0.34513
564.58130,0.34493
563.55104,0.34330
562.52078,0.34284
561.49052,0.34319
560.46027,0.34311
559.43001,0.34313
558.39975,0.34483
557.36949,0.34808
556.33924,0.35102
555.30898,0.35183
554.27872,0.35115
553.24846,0.34949
552.21820,0.34830
551.18795,0.34885
550.15769,0.34892
549.12743,0.35015
548.09717,0.35422
547.06691,0.35700
546.03666,0.35688
545.00640,0.35534
543.97614,0.35361
542.94588,0.35249
541.91563,0.35150
540.88537,0.35139
539.85511,0.35264
538.82485,0.35332
537.79459,0.35355
536.76434,0.35384
535.73408,0.35398
534.70382,0.35522
533.67356,0.35780
532.64330,0.36096
531.61305,0.36237
530.58279,0.36136
529.55253,0.36104
528.52227,0.36218
527.49202,0.36366
526.46176,0.36296
525.43150,0.36063
524.40124,0.36226
523.37098,0.36685
522.34073,0.36942
521.31047,0.36960
520.28021,0.37133
519.24995,0.37575
518.21969,0.37863
517.18944,0.37849
516.15918,0.37782
515.12892,0.37789
514.09866,0.37922
513.06841,0.38279
512.03815,0.38819
511.00789,0.39174
509.97763,0.39153
508.94737,0.39175
507.91712,0.39380
506.88686,0.39425
505.85660,0.39291
504.82634,0.39226
503.79609,0.39367
502.76583,0.39463
501.73557,0.39179
500.70531,0.39043
499.67505,0.39299
498.64480,0.39435
497.61454,0.39415
496.58428,0.39436
495.55402,0.39304
494.52376,0.39001
493.49351,0.38753
492.46325,0.38492
491.43299,0.38176
490.40273,0.38012
489.37248,0.37957
488.34222,0.37864
487.31196,0.37810
486.28170,0.37928
485.25144,0.38072
484.22119,0.37968
483.19093,0.37601
482.16067,0.37048
481.13041,0.36502
480.10015,0.36259
479.06990,0.36244
478.03964,0.36344
477.00938,0.36557
475.97912,0.36671
474.94887,0.36666
473.91861,0.36792
472.88835,0.37056
471.85809,0.37336
470.82783,0.37418
469.79758,0.37377
468.76732,0.37768
467.73706,0.38715
466.70680,0.39651
465.67654,0.40275
464.64629,0.40800
463.61603,0.41264
462.58577,0.41294
461.55551,0.40874
460.52526,0.40572
459.49500,0.40593
458.46474,0.40281
457.43448,0.39238
456.40422,0.38347
455.37397,0.37774
454.34371,0.37180
453.31345,0.36877
452.28319,0.36908
451.25294,0.36928
450.22268,0.37007
449.19242,0.37158
448.16216,0.37129
447.13190,0.37027
446.10165,0.36860
445.07139,0.36237
444.04113,0.35841
443.01087,0.35931
441.98061,0.35436
440.95036,0.34837
439.92010,0.35033
438.88984,0.35426
437.85958,0.35583
436.82933,0.35506
435.79907,0.35193
434.76881,0.35266
433.73855,0.35459
432.70829,0.34987
431.67804,0.34433
430.64778,0.34304
429.61752,0.34068
428.58726,0.33843
427.55700,0.33931
426.52675,0.33821
425.49649,0.33811
424.46623,0.34441
423.43597,0.34913
422.40572,0.34556
421.37546,0.34162
420.34520,0.34491
419.31494,0.35157
418.28468,0.34923
417.25443,0.34503
416.22417,0.34683
415.19391,0.34584
414.16365,0.34018
413.13339,0.33764
412.10314,0.33499
411.07288,0.32761
410.04262,0.32565
409.01236,0.33207
407.98211,0.33637
406.95185,0.33358
405.92159,0.32469
404.89133,0.31620
403.86107,0.31379
402.83082,0.31523
401.80056,0.31886
400.77030,0.32403
399.74004,0.32981
