4998.81105,0.00243
4997.78079,0.00299
4996.75054,0.00259
4995.72028,0.00197
4994.69002,0.00198
4993.65976,0.00190
4992.62951,0.00120
4991.59925,0.00068
4990.56899,0.00020
4989.53873,-0.00037
4988.50847,-0.00054
4987.47822,-0.00072
4986.44796,-0.00081
4985.41770,0.00042
4984.38744,0.00228
4983.35718,0.00255
4982.32693,0.00174
4981.29667,0.00206
4980.26641,0.00298
4979.23615,0.00269
4978.20590,0.00190
4977.17564,0.00154
4976.14538,0.00132
4975.11512,0.00168
4974.08486,0.00259
4973.05461,0.00272
4972.02435,0.00165
4970.99409,0.00031
4969.96383,-0.00040
4968.93357,0.00004
4967.90332,0.00165
4966.87306,0.00297
4965.84280,0.00252
4964.81254,0.00135
4963.78229,0.00097
4962.75203,0.00089
4961.72177,0.00040
4960.69151,0.00028
4959.66125,0.00106
4958.63100,0.00156
4957.60074,0.00094
4956.57048,0.00038
4955.54022,0.00035
4954.50997,0.00040
4953.47971,0.00089
4952.44945,0.00161
4951.41919,0.00191
4950.38893,0.00179
4949.35868,0.00156
4948.32842,0.00122
4947.29816,0.00083
4946.26790,0.00043
4945.23764,0.00000
4944.20739,-0.00024
4943.17713,-0.00025
4942.14687,0.00011
4941.11661,0.00069
4940.08636,0.00121
4939.05610,0.00180
4938.02584,0.00234
4936.99558,0.00219
4935.96532,0.00142
4934.93507,0.00053
4933.90481,-0.00057
4932.87455,-0.00110
4931.84429,-0.00040
4930.81403,0.00060
4929.78378,0.00119
4928.75352,0.00084
4927.72326,0.00007
4926.69300,0.00075
4925.66275,0.00198
4924.63249,0.00165
4923.60223,0.00036
4922.57197,-0.00057
4921.54171,-0.00029
4920.51146,0.00121
4919.48120,0.00246
4918.45094,0.00232
4917.42068,0.00127
4916.39042,0.00103
4915.36017,0.00199
4914.32991,0.00254
4913.29965,0.00212
4912.26939,0.00180
4911.23914,0.00180
4910.20888,0.00144
4909.17862,0.00060
4908.14836,-0.00007
4907.11810,0.00039
4906.08785,0.00146
4905.05759,0.00188
4904.02733,0.00166
4902.99707,0.00147
4901.96682,0.00144
4900.93656,0.00100
4899.90630,0.00011
4898.87604,-0.00030
4897.84578,-0.00002
4896.81553,-0.00003
4895.78527,-0.00033
4894.75501,0.00021
4893.72475,0.00115
4892.69449,0.00117
4891.66424,0.00069
4890.63398,0.00076
4889.60372,0.00110
4888.57346,0.00140
4887.54321,0.00146
4886.51295,0.00119
4885.48269,0.00123
4884.45243,0.00149
4883.42217,0.00147
4882.39192,0.00109
4881.36166,0.00026
4880.33140,-0.00026
4879.30114,0.00038
4878.27088,0.00101
4877.24063,0.00054
4876.21037,-0.00032
4875.18011,-0.00036
4874.14985,0.00052
4873.11960,0.00094
4872.08934,0.00053
4871.05908,0.00035
4870.02882,0.00068
4868.99856,0.00066
4867.96831,0.00033
4866.93805,0.00035
4865.90779,0.00076
4864.87753,0.00181
4863.84727,0.00290
4862.81702,0.00225
4861.78676,0.00022
4860.75650,-0.00074
4859.72624,-0.00010
4858.69599,0.00044
4857.66573,-0.00004
4856.63547,-0.00036
4855.60521,0.00013
4854.57495,0.00024
4853.54470,-0.00008
4852.51444,-0.00008
4851.48418,-0.00003
4850.45392,-0.00008
4849.42367,0.00003
4848.39341,0.00025
4847.36315,0.00038
4846.33289,0.00084
4845.30263,0.00184
4844.27238,0.00222
4843.24212,0.00170
4842.21186,0.00120
4841.18160,0.00115
4840.15134,0.00141
4839.12109,0.00135
4838.09083,0.00094
4837.06057,0.00067
4836.03031,0.00086
4835.00006,0.00146
4833.96980,0.00155
4832.93954,0.00070
4831.90928,-0.00009
4830.87902,-0.00004
4829.84877,0.00016
4828.81851,0.00007
4827.78825,0.00041
4826.75799,0.00114
4825.72773,0.00102
4824.69748,0.00025
4823.66722,0.00023
4822.63696,0.00070
4821.60670,0.00094
4820.57645,0.00095
4819.54619,0.00095
4818.51593,0.00110
4817.48567,0.00076
4816.45541,0.00007
4815.42516,0.00012
4814.39490,0.00075
4813.36464,0.00103
4812.33438,0.00121
4811.30412,0.00199
4810.27387,0.00263
4809.24361,0.00234
4808.21335,0.00159
4807.18309,0.00102
4806.15284,0.00082
4805.12258,0.00110
4804.09232,0.00154
4803.06206,0.00143
4802.03180,0.00094
4801.00155,0.00064
4799.97129,0.00063
4798.94103,0.00052
4797.91077,0.00017
4796.88052,0.00026
4795.85026,0.00077
4794.82000,0.00122
4793.78974,0.00134
4792.75948,0.00079
4791.72923,0.00011
4790.69897,-0.00010
4789.66871,-0.00022
4788.63845,-0.00032
4787.60819,0.00017
4786.57794,0.00070
4785.54768,0.00046
4784.51742,0.00017
4783.48716,-0.00014
4782.45691,-0.00127
4781.42665,-0.00209
4780.39639,-0.00119
4779.36613,0.00076
4778.33587,0.00210
4777.30562,0.00204
4776.27536,0.00129
4775.24510,0.00045
4774.21484,0.00016
4773.18458,0.00074
4772.15433,0.00116
4771.12407,0.00114
4770.09381,0.00102
4769.06355,0.00083
4768.03330,0.00035
4767.00304,-0.00004
4765.97278,-0.00009
4764.94252,-0.00017
4763.91226,-0.00028
4762.88201,-0.00014
4761.85175,0.00026
4760.82149,0.00051
4759.79123,0.00093
4758.76098,0.00169
4757.73072,0.00181
4756.70046,0.00130
4755.67020,0.00073
4754.63994,0.00046
4753.60969,0.00064
4752.57943,0.00059
4751.54917,0.00040
4750.51891,0.00048
4749.48865,0.00101
4748.45840,0.00196
4747.42814,0.00228
4746.39788,0.00142
4745.36762,0.00041
4744.33737,0.00028
4743.30711,0.00036
4742.27685,-0.00023
4741.24659,-0.00068
4740.21633,-0.00030
4739.18608,0.00047
4738.15582,0.00075
4737.12556,0.00020
4736.09530,-0.00073
4735.06504,-0.00120
4734.03479,-0.00088
4733.00453,-0.00021
4731.97427,0.00059
4730.94401,0.00111
4729.91376,0.00058
4728.88350,-0.00011
4727.85324,-0.00022
4726.82298,-0.00013
4725.79272,0.00043
4724.76247,0.00101
4723.73221,0.00099
4722.70195,0.00089
4721.67169,0.00115
4720.64143,0.00132
4719.61118,0.00105
4718.58092,0.00101
4717.55066,0.00140
4716.52040,0.00185
4715.49015,0.00261
4714.45989,0.00290
4713.42963,0.00178
4712.39937,0.00052
4711.36911,0.00045
4710.33886,0.00125
4709.30860,0.00177
4708.27834,0.00156
4707.24808,0.00121
4706.21783,0.00125
4705.18757,0.00099
4704.15731,-0.00013
4703.12705,-0.00129
4702.09679,-0.00143
4701.06654,-0.00033
4700.03628,0.00087
4699.00602,0.00112
4697.97576,0.00070
4696.94550,0.00049
4695.91525,0.00070
4694.88499,0.00037
4693.85473,-0.00054
4692.82447,-0.00120
4691.79422,-0.00117
4690.76396,-0.00032
4689.73370,0.00039
4688.70344,0.00052
4687.67318,0.00089
4686.64293,0.00107
4685.61267,0.00038
4684.58241,0.00008
4683.55215,0.00039
4682.52189,0.00010
4681.49164,-0.00017
4680.46138,0.00003
4679.43112,-0.00010
4678.40086,0.00023
4677.37061,0.00142
4676.34035,0.00203
4675.31009,0.00139
4674.27983,0.00049
4673.24957,0.00030
4672.21932,0.00053
4671.18906,0.00087
4670.15880,0.00146
4669.12854,0.00187
4668.09828,0.00193
4667.06803,0.00197
4666.03777,0.00184
4665.00751,0.00153
4663.97725,0.00125
4662.94700,0.00128
4661.91674,0.00152
4660.88648,0.00130
4659.85622,0.00078
4658.82596,0.00065
4657.79571,0.00085
4656.76545,0.00081
4655.73519,0.00041
4654.70493,0.00014
4653.67468,0.00021
4652.64442,0.00034
4651.61416,0.00038
4650.58390,0.00027
4649.55364,0.00024
4648.52339,0.00026
4647.49313,0.00028
4646.46287,0.00044
4645.43261,0.00045
4644.40235,0.00085
4643.37210,0.00166
4642.34184,0.00183
4641.31158,0.00132
4640.28132,0.00107
4639.25107,0.00133
4638.22081,0.00170
4637.19055,0.00191
4636.16029,0.00176
4635.13003,0.00134
4634.09978,0.00102
4633.06952,0.00098
4632.03926,0.00109
4631.00900,0.00125
4629.97874,0.00158
4628.94849,0.00193
4627.91823,0.00146
4626.88797,0.00003
4625.85771,-0.00099
4624.82746,-0.00080
4623.79720,0.00018
4622.76694,0.00119
4621.73668,0.00172
4620.70642,0.00164
4619.67617,0.00114
4618.64591,0.00070
4617.61565,0.00050
4616.58539,0.00022
4615.55513,-0.00038
4614.52488,-0.00074
4613.49462,-0.00038
4612.46436,0.00019
4611.43410,0.00011
4610.40385,-0.00064
4609.37359,-0.00104
4608.34333,-0.00056
4607.31307,0.00030
4606.28281,0.00102
4605.25256,0.00110
4604.22230,0.00032
4603.19204,-0.00031
4602.16178,-0.00011
4601.13153,0.00021
4600.10127,0.00052
4599.07101,0.00116
4598.04075,0.00144
4597.01049,0.00099
4595.98024,0.00071
4594.94998,0.00108
4593.91972,0.00124
4592.88946,0.00083
4591.85920,0.00055
4590.82895,0.00050
4589.79869,0.00015
4588.76843,-0.00024
4587.73817,-0.00007
4586.70792,0.00037
4585.67766,0.00069
4584.64740,0.00081
4583.61714,0.00105
4582.58688,0.00121
4581.55663,0.00102
4580.52637,0.00082
4579.49611,0.00055
4578.46585,0.00039
4577.43559,0.00053
4576.40534,0.00077
4575.37508,0.00109
4574.34482,0.00149
4573.31456,0.00157
4572.28431,0.00126
4571.25405,0.00092
4570.22379,0.00076
4569.19353,0.00060
4568.16327,0.00001
4567.13302,-0.00049
4566.10276,-0.00019
4565.07250,0.00063
4564.04224,0.00138
4563.01198,0.00136
4561.98173,0.00094
4560.95147,0.00085
4559.92121,0.00102
4558.89095,0.00106
4557.86070,0.00079
4556.83044,0.00076
4555.80018,0.00091
4554.76992,0.00048
4553.73966,0.00011
4552.70941,0.00073
4551.67915,0.00125
4550.64889,0.00052
4549.61863,-0.00001
4548.58838,0.00054
4547.55812,0.00112
4546.52786,0.00144
4545.49760,0.00150
4544.46734,0.00119
4543.43709,0.00117
4542.40683,0.00120
4541.37657,0.00061
4540.34631,0.00017
4539.31605,0.00056
4538.28580,0.00097
4537.25554,0.00086
4536.22528,0.00067
4535.19502,0.00056
4534.16477,0.00090
4533.13451,0.00110
4532.10425,0.00045
4531.07399,-0.00003
4530.04373,0.00013
4529.01348,0.00056
4527.98322,0.00106
4526.95296,0.00111
4525.92270,0.00075
4524.89244,0.00090
4523.86219,0.00169
4522.83193,0.00214
4521.80167,0.00192
4520.77141,0.00183
4519.74116,0.00202
4518.71090,0.00171
4517.68064,0.00115
4516.65038,0.00095
4515.62012,0.00098
4514.58987,0.00109
4513.55961,0.00094
4512.52935,0.00028
4511.49909,-0.00038
4510.46883,-0.00057
4509.43858,-0.00040
4508.40832,0.00025
4507.37806,0.00113
4506.34780,0.00121
4505.31755,0.00061
4504.28729,0.00019
4503.25703,-0.00012
4502.22677,-0.00008
4501.19651,0.00021
4500.16626,0.00012
4499.13600,-0.00013
4498.10574,-0.00007
4497.07548,0.00004
4496.04523,0.00003
4495.01497,0.00045
4493.98471,0.00093
4492.95445,0.00082
4491.92419,0.00053
4490.89394,0.00045
4489.86368,0.00028
4488.83342,0.00001
4487.80316,0.00009
4486.77290,0.00020
4485.74265,0.00011
4484.71239,0.00025
4483.68213,0.00056
4482.65187,0.00093
4481.62162,0.00118
4480.59136,0.00094
4479.56110,0.00054
4478.53084,0.00062
4477.50058,0.00109
4476.47033,0.00130
4475.44007,0.00112
4474.40981,0.00126
4473.37955,0.00162
4472.34929,0.00145
4471.31904,0.00086
4470.28878,0.00048
4469.25852,0.00078
4468.22826,0.00121
4467.19801,0.00112
4466.16775,0.00081
4465.13749,0.00078
4464.10723,0.00104
4463.07697,0.00099
4462.04672,0.00045
4461.01646,0.00015
4459.98620,0.00032
4458.95594,0.00071
4457.92568,0.00112
4456.89543,0.00161
4455.86517,0.00199
4454.83491,0.00216
4453.80465,0.00222
4452.77440,0.00195
4451.74414,0.00136
4450.71388,0.00062
4449.68362,0.00008
4448.65336,0.00034
4447.62311,0.00115
4446.59285,0.00149
4445.56259,0.00110
4444.53233,0.00055
4443.50208,0.00044
4442.47182,0.00089
4441.44156,0.00125
4440.41130,0.00122
4439.38104,0.00085
4438.35079,0.00026
4437.32053,0.00003
4436.29027,0.00042
4435.26001,0.00081
4434.22975,0.00065
4433.19950,0.00036
4432.16924,0.00039
4431.13898,0.00078
4430.10872,0.00130
4429.07847,0.00138
4428.04821,0.00101
4427.01795,0.00085
4425.98769,0.00080
4424.95743,0.00051
4423.92718,0.00034
4422.89692,0.00050
4421.86666,0.00071
4420.83640,0.00079
4419.80614,0.00104
4418.77589,0.00133
4417.74563,0.00137
4416.71537,0.00163
4415.68511,0.00189
4414.65486,0.00144
4413.62460,0.00087
4412.59434,0.00082
4411.56408,0.00124
4410.53382,0.00166
4409.50357,0.00138
4408.47331,0.00067
4407.44305,0.00036
4406.41279,0.00064
4405.38253,0.00099
4404.35228,0.00060
4403.32202,-0.00011
4402.29176,-0.00016
4401.26150,0.00012
4400.23125,0.00039
4399.20099,0.00100
4398.17073,0.00134
4397.14047,0.00081
4396.11021,0.00027
4395.07996,0.00064
4394.04970,0.00102
4393.01944,0.00059
4391.98918,0.00021
4390.95893,0.00046
4389.92867,0.00097
4388.89841,0.00147
4387.86815,0.00182
4386.83789,0.00184
4385.80764,0.00160
4384.77738,0.00132
4383.74712,0.00126
4382.71686,0.00138
4381.68660,0.00130
4380.65635,0.00098
4379.62609,0.00069
4378.59583,0.00070
4377.56557,0.00073
4376.53532,0.00017
4375.50506,-0.00048
4374.47480,-0.00013
4373.44454,0.00074
4372.41428,0.00099
4371.38403,0.00082
4370.35377,0.00099
4369.32351,0.00167
4368.29325,0.00232
4367.26299,0.00241
4366.23274,0.00203
4365.20248,0.00173
4364.17222,0.00183
4363.14196,0.00162
4362.11171,0.00122
4361.08145,0.00136
4360.05119,0.00152
4359.02093,0.00129
4357.99067,0.00092
4356.96042,0.00081
4355.93016,0.00093
4354.89990,0.00093
4353.86964,0.00093
4352.83939,0.00130
4351.80913,0.00171
4350.77887,0.00161
4349.74861,0.00128
4348.71835,0.00091
4347.68810,0.00046
4346.65784,0.00033
4345.62758,0.00059
4344.59732,0.00095
4343.56706,0.00103
4342.53681,0.00084
4341.50655,0.00068
4340.47629,0.00057
4339.44603,0.00046
4338.41578,0.00056
4337.38552,0.00061
4336.35526,0.00044
4335.32500,0.00051
4334.29474,0.00089
4333.26449,0.00096
4332.23423,0.00073
4331.20397,0.00098
4330.17371,0.00164
4329.14345,0.00184
4328.11320,0.00162
4327.08294,0.00148
4326.05268,0.00162
4325.02242,0.00184
4323.99217,0.00157
4322.96191,0.00121
4321.93165,0.00129
4320.90139,0.00144
4319.87113,0.00170
4318.84088,0.00172
4317.81062,0.00130
4316.78036,0.00118
4315.75010,0.00137
4314.71984,0.00118
4313.68959,0.00079
4312.65933,0.00089
4311.62907,0.00114
4310.59881,0.00122
4309.56856,0.00140
4308.53830,0.00139
4307.50804,0.00107
4306.47778,0.00066
4305.44752,0.00021
4304.41727,0.00038
4303.38701,0.00135
4302.35675,0.00190
4301.32649,0.00160
4300.29624,0.00156
4299.26598,0.00186
4298.23572,0.00185
4297.20546,0.00152
4296.17520,0.00123
4295.14495,0.00146
4294.11469,0.00182
4293.08443,0.00150
4292.05417,0.00113
4291.02391,0.00146
4289.99366,0.00178
4288.96340,0.00162
4287.93314,0.00114
4286.90288,0.00075
4285.87263,0.00075
4284.84237,0.00074
4283.81211,0.00079
4282.78185,0.00110
4281.75159,0.00124
4280.72134,0.00102
4279.69108,0.00046
4278.66082,0.00020
4277.63056,0.00070
4276.60030,0.00110
4275.57005,0.00085
4274.53979,0.00077
4273.50953,0.00121
4272.47927,0.00174
4271.44902,0.00207
4270.41876,0.00221
4269.38850,0.00210
4268.35824,0.00143
4267.32798,0.00064
4266.29773,0.00053
4265.26747,0.00074
4264.23721,0.00095
4263.20695,0.00137
4262.17669,0.00174
4261.14644,0.00152
4260.11618,0.00076
4259.08592,0.00055
4258.05566,0.00087
4257.02541,0.00098
4255.99515,0.00128
4254.96489,0.00175
4253.93463,0.00189
4252.90437,0.00185
4251.87412,0.00175
4250.84386,0.00146
4249.81360,0.00123
4248.78334,0.00141
4247.75309,0.00176
4246.72283,0.00182
4245.69257,0.00156
4244.66231,0.00154
4243.63205,0.00173
4242.60180,0.00155
4241.57154,0.00127
4240.54128,0.00148
4239.51102,0.00173
4238.48076,0.00142
4237.45051,0.00114
4236.42025,0.00152
4235.38999,0.00202
4234.35973,0.00193
4233.32948,0.00158
4232.29922,0.00144
4231.26896,0.00157
4230.23870,0.00184
4229.20844,0.00183
4228.17819,0.00162
4227.14793,0.00182
4226.11767,0.00221
4225.08741,0.00223
4224.05715,0.00195
4223.02690,0.00167
4221.99664,0.00176
4220.96638,0.00204
4219.93612,0.00194
4218.90587,0.00160
4217.87561,0.00131
4216.84535,0.00113
4215.81509,0.00118
4214.78483,0.00159
4213.75458,0.00194
4212.72432,0.00158
4211.69406,0.00087
4210.66380,0.00055
4209.63354,0.00021
4208.60329,-0.00049
4207.57303,-0.00082
4206.54277,-0.00023
4205.51251,0.00060
4204.48226,0.00097
4203.45200,0.00114
4202.42174,0.00141
4201.39148,0.00157
4200.36122,0.00141
4199.33097,0.00099
4198.30071,0.00060
4197.27045,0.00088
4196.24019,0.00156
4195.20994,0.00150
4194.17968,0.00095
4193.14942,0.00095
4192.11916,0.00147
4191.08890,0.00156
4190.05865,0.00097
4189.02839,0.00060
4187.99813,0.00083
4186.96787,0.00142
4185.93761,0.00196
4184.90736,0.00190
4183.87710,0.00175
4182.84684,0.00186
4181.81658,0.00157
4180.78633,0.00128
4179.75607,0.00144
4178.72581,0.00151
4177.69555,0.00120
4176.66529,0.00090
4175.63504,0.00108
4174.60478,0.00131
4173.57452,0.00104
4172.54426,0.00085
4171.51400,0.00130
4170.48375,0.00195
4169.45349,0.00184
4168.42323,0.00129
4167.39297,0.00137
4166.36272,0.00141
4165.33246,0.00062
4164.30220,-0.00008
4163.27194,0.00015
4162.24168,0.00090
4161.21143,0.00152
4160.18117,0.00195
4159.15091,0.00216
4158.12065,0.00192
4157.09039,0.00133
4156.06014,0.00072
4155.02988,0.00036
4153.99962,0.00033
4152.96936,0.00064
4151.93911,0.00129
4150.90885,0.00178
4149.87859,0.00158
4148.84833,0.00123
4147.81807,0.00122
4146.78782,0.00128
4145.75756,0.00135
4144.72730,0.00149
4143.69704,0.00165
4142.66679,0.00172
4141.63653,0.00153
4140.60627,0.00140
4139.57601,0.00125
4138.54575,0.00078
4137.51550,0.00080
4136.48524,0.00128
4135.45498,0.00131
4134.42472,0.00135
4133.39446,0.00167
4132.36421,0.00181
4131.33395,0.00188
4130.30369,0.00177
4129.27343,0.00172
4128.24318,0.00196
4127.21292,0.00189
4126.18266,0.00163
4125.15240,0.00168
4124.12214,0.00160
4123.09189,0.00123
4122.06163,0.00111
4121.03137,0.00141
4120.00111,0.00167
4118.97085,0.00154
4117.94060,0.00127
4116.91034,0.00086
4115.88008,0.00020
4114.84982,-0.00001
4113.81957,0.00042
4112.78931,0.00087
4111.75905,0.00108
4110.72879,0.00092
4109.69853,0.00054
4108.66828,0.00070
4107.63802,0.00131
4106.60776,0.00138
4105.57750,0.00089
4104.54724,0.00052
4103.51699,0.00053
4102.48673,0.00106
4101.45647,0.00158
4100.42621,0.00147
4099.39596,0.00132
4098.36570,0.00174
4097.33544,0.00194
4096.30518,0.00149
4095.27492,0.00131
4094.24467,0.00167
4093.21441,0.00173
4092.18415,0.00119
4091.15389,0.00087
4090.12364,0.00133
4089.09338,0.00182
4088.06312,0.00161
4087.03286,0.00126
4086.00260,0.00147
4084.97235,0.00194
4083.94209,0.00193
4082.91183,0.00146
4081.88157,0.00123
4080.85131,0.00145
4079.82106,0.00159
4078.79080,0.00138
4077.76054,0.00105
4076.73028,0.00077
4075.70003,0.00092
4074.66977,0.00143
4073.63951,0.00151
4072.60925,0.00133
4071.57899,0.00153
4070.54874,0.00205
4069.51848,0.00246
4068.48822,0.00242
4067.45796,0.00232
4066.42770,0.00261
4065.39745,0.00266
4064.36719,0.00223
4063.33693,0.00208
4062.30667,0.00226
4061.27642,0.00237
4060.24616,0.00210
4059.21590,0.00168
4058.18564,0.00146
4057.15538,0.00133
4056.12513,0.00152
4055.09487,0.00202
4054.06461,0.00218
4053.03435,0.00192
4052.00409,0.00185
4050.97384,0.00199
4049.94358,0.00204
4048.91332,0.00194
4047.88306,0.00172
4046.85281,0.00181
4045.82255,0.00209
4044.79229,0.00208
4043.76203,0.00185
4042.73177,0.00153
4041.70152,0.00162
4040.67126,0.00209
4039.64100,0.00199
4038.61074,0.00143
4037.58049,0.00128
4036.55023,0.00158
4035.51997,0.00182
4034.48971,0.00164
4033.45945,0.00154
4032.42920,0.00194
4031.39894,0.00239
4030.36868,0.00257
4029.33842,0.00249
4028.30816,0.00258
4027.27791,0.00305
4026.24765,0.00317
4025.21739,0.00260
4024.18713,0.00199
4023.15688,0.00179
4022.12662,0.00191
4021.09636,0.00205
4020.06610,0.00214
4019.03584,0.00225
4018.00559,0.00211
4016.97533,0.00178
4015.94507,0.00196
4014.91481,0.00254
4013.88455,0.00273
4012.85430,0.00258
4011.82404,0.00251
4010.79378,0.00244
4009.76352,0.00244
4008.73327,0.00248
4007.70301,0.00235
4006.67275,0.00217
4005.64249,0.00220
4004.61223,0.00253
4003.58198,0.00276
4002.55172,0.00260
4001.52146,0.00251
4000.49120,0.00268
3999.46095,0.00262
3998.43069,0.00237
3997.40043,0.00224
3996.37017,0.00229
3995.33991,0.00247
3994.30966,0.00265
3993.27940,0.00279
3992.24914,0.00277
3991.21888,0.00260
3990.18862,0.00246
3989.15837,0.00232
3988.12811,0.00240
3987.09785,0.00268
3986.06759,0.00265
3985.03734,0.00258
3984.00708,0.00294
3982.97682,0.00335
3981.94656,0.00328
3980.91630,0.00276
3979.88605,0.00225
3978.85579,0.00228
3977.82553,0.00277
3976.79527,0.00303
3975.76501,0.00274
3974.73476,0.00220
3973.70450,0.00180
3972.67424,0.00184
3971.64398,0.00225
3970.61373,0.00264
3969.58347,0.00276
3968.55321,0.00248
3967.52295,0.00191
3966.49269,0.00149
3965.46244,0.00151
3964.43218,0.00153
3963.40192,0.00122
3962.37166,0.00117
3961.34140,0.00167
3960.31115,0.00221
3959.28089,0.00236
3958.25063,0.00181
3957.22037,0.00108
3956.19012,0.00128
3955.15986,0.00196
3954.12960,0.00201
3953.09934,0.00178
3952.06908,0.00184
3951.03883,0.00180
3950.00857,0.00154
3948.97831,0.00147
3947.94805,0.00172
3946.91780,0.00205
3945.88754,0.00209
3944.85728,0.00187
3943.82702,0.00160
3942.79676,0.00137
3941.76651,0.00140
3940.73625,0.00172
3939.70599,0.00212
3938.67573,0.00222
3937.64547,0.00163
3936.61522,0.00092
3935.58496,0.00093
3934.55470,0.00156
3933.52444,0.00183
3932.49419,0.00128
3931.46393,0.00104
3930.43367,0.00150
3929.40341,0.00177
3928.37315,0.00171
3927.34290,0.00156
3926.31264,0.00131
3925.28238,0.00119
3924.25212,0.00133
3923.22186,0.00134
3922.19161,0.00125
3921.16135,0.00130
3920.13109,0.00114
3919.10083,0.00074
3918.07058,0.00068
3917.04032,0.00094
3916.01006,0.00097
3914.97980,0.00074
3913.94954,0.00106
3912.91929,0.00156
3911.88903,0.00146
3910.85877,0.00119
3909.82851,0.00102
3908.79825,0.00078
3907.76800,0.00060
3906.73774,0.00076
3905.70748,0.00132
3904.67722,0.00179
3903.64697,0.00153
3902.61671,0.00084
3901.58645,0.00072
3900.55619,0.00132
3899.52593,0.00163
3898.49568,0.00145
3897.46542,0.00139
3896.43516,0.00132
3895.40490,0.00103
3894.37465,0.00090
3893.34439,0.00138
3892.31413,0.00189
3891.28387,0.00174
3890.25361,0.00152
3889.22336,0.00146
3888.19310,0.00145
3887.16284,0.00138
3886.13258,0.00086
3885.10232,0.00054
3884.07207,0.00093
3883.04181,0.00104
3882.01155,0.00082
3880.98129,0.00060
3879.95104,0.00083
3878.92078,0.00141
3877.89052,0.00156
3876.86026,0.00158
3875.83000,0.00161
3874.79975,0.00158
3873.76949,0.00182
3872.73923,0.00202
3871.70897,0.00185
3870.67871,0.00142
3869.64846,0.00101
3868.61820,0.00121
3867.58794,0.00133
3866.55768,0.00101
3865.52743,0.00057
3864.49717,0.00031
3863.46691,0.00039
3862.43665,0.00055
3861.40639,0.00074
3860.37614,0.00123
3859.34588,0.00163
3858.31562,0.00143
3857.28536,0.00094
3856.25510,0.00086
3855.22485,0.00119
3854.19459,0.00145
3853.16433,0.00128
3852.13407,0.00081
3851.10382,0.00046
3850.07356,0.00051
3849.04330,0.00058
3848.01304,0.00060
3846.98278,0.00103
3845.95253,0.00159
3844.92227,0.00157
3843.89201,0.00108
3842.86175,0.00069
3841.83150,0.00044
3840.80124,0.00058
3839.77098,0.00136
3838.74072,0.00189
3837.71046,0.00182
3836.68021,0.00169
3835.64995,0.00145
3834.61969,0.00118
3833.58943,0.00132
3832.55917,0.00135
3831.52892,0.00093
3830.49866,0.00086
3829.46840,0.00124
3828.43814,0.00142
3827.40789,0.00140
3826.37763,0.00113
3825.34737,0.00073
3824.31711,0.00064
3823.28685,0.00084
3822.25660,0.00116
3821.22634,0.00141
3820.19608,0.00137
3819.16582,0.00125
3818.13556,0.00114
3817.10531,0.00104
3816.07505,0.00055
3815.04479,-0.00023
3814.01453,0.00001
3812.98428,0.00113
3811.95402,0.00189
3810.92376,0.00206
3809.89350,0.00213
3808.86324,0.00191
3807.83299,0.00122
3806.80273,0.00062
3805.77247,0.00091
3804.74221,0.00185
3803.71195,0.00266
3802.68170,0.00233
3801.65144,0.00077
3800.62118,0.00016
3799.59092,0.00090
3798.56067,0.00166
3797.53041,0.00211
3796.50015,0.00238
3795.46989,0.00255
3794.43963,0.00237
3793.40938,0.00199
3792.37912,0.00175
3791.34886,0.00165
3790.31860,0.00149
3789.28835,0.00121
3788.25809,0.00108
3787.22783,0.00110
3786.19757,0.00116
3785.16731,0.00132
3784.13706,0.00151
3783.10680,0.00152
3782.07654,0.00141
3781.04628,0.00154
3780.01602,0.00175
3778.98577,0.00174
3777.95551,0.00174
3776.92525,0.00159
3775.89499,0.00122
3774.86474,0.00108
3773.83448,0.00121
3772.80422,0.00132
3771.77396,0.00144
3770.74370,0.00188
3769.71345,0.00235
3768.68319,0.00241
3767.65293,0.00221
3766.62267,0.00190
3765.59241,0.00149
3764.56216,0.00111
3763.53190,0.00120
3762.50164,0.00160
3761.47138,0.00145
3760.44113,0.00055
3759.41087,0.00016
3758.38061,0.00118
3757.35035,0.00203
3756.32009,0.00199
3755.28984,0.00196
3754.25958,0.00211
3753.22932,0.00208
3752.19906,0.00175
3751.16880,0.00099
3750.13855,0.00013
3749.10829,0.00021
3748.07803,0.00117
3747.04777,0.00202
3746.01752,0.00279
3744.98726,0.00232
3743.95700,0.00021
3742.92674,0.00085
3741.89648,0.00263
3740.86623,0.00330
3739.83597,0.00307
3738.80571,0.00273
3737.77545,0.00248
3736.74520,0.00216
3735.71494,0.00189
3734.68468,0.00253
3733.65442,0.00338
3732.62416,0.00329
3731.59391,0.00276
3730.56365,0.00285
3729.53339,0.00353
3728.50313,0.00415
3727.47287,0.00412
3726.44262,0.00341
3725.41236,0.00297
3724.38210,0.00334
3723.35184,0.00374
3722.32159,0.00345
3721.29133,0.00288
3720.26107,0.00279
3719.23081,0.00336
3718.20055,0.00399
3717.17030,0.00407
3716.14004,0.00366
3715.10978,0.00300
3714.07952,0.00250
3713.04926,0.00245
3712.01901,0.00317
3710.98875,0.00400
3709.95849,0.00430
3708.92823,0.00449
3707.89798,0.00454
3706.86772,0.00459
3705.83746,0.00492
3704.80720,0.00508
3703.77694,0.00474
3702.74669,0.00439
3701.71643,0.00407
3700.68617,0.00358
3699.65591,0.00358
3698.62565,0.00428
3697.59540,0.00510
3696.56514,0.00543
3695.53488,0.00540
3694.50462,0.00530
3693.47437,0.00525
3692.44411,0.00550
3691.41385,0.00582
3690.38359,0.00599
3689.35333,0.00651
3688.32308,0.00716
3687.29282,0.00695
3686.26256,0.00636
3685.23230,0.00628
3684.20205,0.00658
3683.17179,0.00677
3682.14153,0.00706
3681.11127,0.00752
3680.08101,0.00760
3679.05076,0.00732
3678.02050,0.00742
3676.99024,0.00821
3675.95998,0.00924
3674.92972,0.00948
3673.89947,0.00943
3672.86921,0.00986
3671.83895,0.01014
3670.80869,0.00986
3669.77844,0.01007
3668.74818,0.01085
3667.71792,0.01120
3666.68766,0.01158
3665.65740,0.01220
3664.62715,0.01295
3663.59689,0.01379
3662.56663,0.01430
3661.53637,0.01462
3660.50611,0.01507
3659.47586,0.01558
3658.44560,0.01601
3657.41534,0.01624
3656.38508,0.01625
3655.35483,0.01649
3654.32457,0.01745
3653.29431,0.01861
3652.26405,0.01858
3651.23379,0.01719
3650.20354,0.01710
3649.17328,0.01903
3648.14302,0.02047
3647.11276,0.02147
3646.08250,0.02242
3645.05225,0.02282
3644.02199,0.02269
3642.99173,0.02278
3641.96147,0.02358
3640.93122,0.02447
3639.90096,0.02490
3638.87070,0.02528
3637.84044,0.02628
3636.81018,0.02771
3635.77993,0.02879
3634.74967,0.02914
3633.71941,0.02907
3632.68915,0.02927
3631.65890,0.02983
3630.62864,0.03065
3629.59838,0.03142
3628.56812,0.03148
3627.53786,0.03190
3626.50761,0.03322
3625.47735,0.03439
3624.44709,0.03514
3623.41683,0.03580
3622.38657,0.03654
3621.35632,0.03723
3620.32606,0.03727
3619.29580,0.03712
3618.26554,0.03826
3617.23529,0.03976
3616.20503,0.04006
3615.17477,0.04006
3614.14451,0.04068
3613.11425,0.04129
3612.08400,0.04174
3611.05374,0.04269
3610.02348,0.04417
3608.99322,0.04550
3607.96296,0.04616
3606.93271,0.04676
3605.90245,0.04781
3604.87219,0.04899
3603.84193,0.04963
3602.81168,0.04952
3601.78142,0.04961
3600.75116,0.05055
3599.72090,0.05174
3598.69064,0.05237
3597.66039,0.05284
3596.63013,0.05402
3595.59987,0.05535
3594.56961,0.05633
3593.53936,0.05736
3592.50910,0.05855
3591.47884,0.05969
3590.44858,0.06026
3589.41832,0.06028
3588.38807,0.06057
3587.35781,0.06153
3586.32755,0.06273
3585.29729,0.06402
3584.26703,0.06519
3583.23678,0.06607
3582.20652,0.06679
3581.17626,0.06748
3580.14600,0.06842
3579.11575,0.06963
3578.08549,0.07045
3577.05523,0.07088
3576.02497,0.07170
3574.99471,0.07262
3573.96446,0.07341
3572.93420,0.07469
3571.90394,0.07621
3570.87368,0.07744
3569.84342,0.07825
3568.81317,0.07886
3567.78291,0.07979
3566.75265,0.08092
3565.72239,0.08207
3564.69214,0.08349
3563.66188,0.08490
3562.63162,0.08609
3561.60136,0.08696
3560.57110,0.08746
3559.54085,0.08793
3558.51059,0.08865
3557.48033,0.08974
3556.45007,0.09126
3555.41981,0.09253
3554.38956,0.09312
3553.35930,0.09365
3552.32904,0.09453
3551.29878,0.09548
3550.26853,0.09642
3549.23827,0.09782
3548.20801,0.09960
3547.17775,0.10082
3546.14749,0.10148
3545.11724,0.10239
3544.08698,0.10313
3543.05672,0.10345
3542.02646,0.10423
3540.99621,0.10556
3539.96595,0.10667
3538.93569,0.10738
3537.90543,0.10823
3536.87517,0.10943
3535.84492,0.11061
3534.81466,0.11162
3533.78440,0.11242
3532.75414,0.11307
3531.72388,0.11387
3530.69363,0.11484
3529.66337,0.11535
3528.63311,0.11542
3527.60285,0.11612
3526.57260,0.11744
3525.54234,0.11832
3524.51208,0.11894
3523.48182,0.11997
3522.45156,0.12097
3521.42131,0.12202
3520.39105,0.12345
3519.36079,0.12463
3518.33053,0.12529
3517.30027,0.12582
3516.27002,0.12632
3515.23976,0.12702
3514.20950,0.12791
3513.17924,0.12873
3512.14899,0.12942
3511.11873,0.12985
3510.08847,0.13068
3509.05821,0.13225
3508.02795,0.13351
3506.99770,0.13391
3505.96744,0.13395
3504.93718,0.13425
3503.90692,0.13495
3502.87666,0.13570
3501.84641,0.13643
3500.81615,0.13737
3499.78589,0.13804
3498.75563,0.13815
3497.72538,0.13858
3496.69512,0.13978
3495.66486,0.14127
3494.63460,0.14243
3493.60434,0.14279
3492.57409,0.14283
3491.54383,0.14345
3490.51357,0.14440
3489.48331,0.14533
3488.45306,0.14625
3487.42280,0.14670
3486.39254,0.14687
3485.36228,0.14732
3484.33202,0.14785
3483.30177,0.14808
3482.27151,0.14824
3481.24125,0.14886
3480.21099,0.14972
3479.18073,0.15019
3478.15048,0.15049
3477.12022,0.15138
3476.08996,0.15271
3475.05970,0.15363
3474.02945,0.15406
3472.99919,0.15427
3471.96893,0.15426
3470.93867,0.15422
3469.90841,0.15474
3468.87816,0.15576
3467.84790,0.15646
3466.81764,0.15681
3465.78738,0.15711
3464.75712,0.15742
3463.72687,0.15810
3462.69661,0.15906
3461.66635,0.15993
3460.63609,0.16074
3459.60584,0.16154
3458.57558,0.16268
3457.54532,0.16396
3456.51506,0.16411
3455.48480,0.16312
3454.45455,0.16260
3453.42429,0.16320
3452.39403,0.16436
3451.36377,0.16550
3450.33351,0.16617
3449.30326,0.16627
3448.27300,0.16623
3447.24274,0.16680
3446.21248,0.16785
3445.18223,0.16843
3444.15197,0.16882
3443.12171,0.16962
3442.09145,0.17036
3441.06119,0.17059
3440.03094,0.17060
3439.00068,0.17072
3437.97042,0.17120
3436.94016,0.17205
3435.90991,0.17296
3434.87965,0.17333
3433.84939,0.17314
3432.81913,0.17343
3431.78887,0.17439
3430.75862,0.17515
3429.72836,0.17559
3428.69810,0.17607
3427.66784,0.17665
3426.63758,0.17733
3425.60733,0.17821
3424.57707,0.17891
3423.54681,0.17886
3422.51655,0.17863
3421.48630,0.17890
3420.45604,0.17953
3419.42578,0.18040
3418.39552,0.18103
3417.36526,0.18096
3416.33501,0.18106
3415.30475,0.18168
3414.27449,0.18204
3413.24423,0.18202
3412.21397,0.18215
3411.18372,0.18233
3410.15346,0.18228
3409.12320,0.18245
3408.09294,0.18293
3407.06269,0.18313
3406.03243,0.18308
3405.00217,0.18336
3403.97191,0.18387
3402.94165,0.18450
3401.91140,0.18500
3400.88114,0.18489
3399.85088,0.18475
3398.82062,0.18501
3397.79036,0.18508
3396.76011,0.18452
3395.72985,0.18377
3394.69959,0.18372
3393.66933,0.18410
3392.63908,0.18407
3391.60882,0.18418
3390.57856,0.18483
3389.54830,0.18532
3388.51804,0.18559
3387.48779,0.18585
3386.45753,0.18580
3385.42727,0.18566
3384.39701,0.18576
3383.36676,0.18566
3382.33650,0.18543
3381.30624,0.18536
3380.27598,0.18545
3379.24572,0.18559
3378.21547,0.18519
3377.18521,0.18442
3376.15495,0.18423
3375.12469,0.18432
3374.09443,0.18383
3373.06418,0.18303
3372.03392,0.18271
3371.00366,0.18278
3369.97340,0.18262
3368.94315,0.18231
3367.91289,0.18216
3366.88263,0.18223
3365.85237,0.18247
3364.82211,0.18235
3363.79186,0.18183
3362.76160,0.18144
3361.73134,0.18115
3360.70108,0.18081
3359.67082,0.18061
3358.64057,0.18057
3357.61031,0.18055
3356.58005,0.18054
3355.54979,0.18037
3354.51954,0.17968
3353.48928,0.17876
3352.45902,0.17814
3351.42876,0.17762
3350.39850,0.17714
3349.36825,0.17703
3348.33799,0.17695
3347.30773,0.17636
3346.27747,0.17544
3345.24721,0.17503
3344.21696,0.17511
3343.18670,0.17498
3342.15644,0.17473
3341.12618,0.17462
3340.09593,0.17460
3339.06567,0.17439
3338.03541,0.17401
3337.00515,0.17375
3335.97489,0.17336
3334.94464,0.17276
3333.91438,0.17233
3332.88412,0.17203
3331.85386,0.17181
3330.82361,0.17149
3329.79335,0.17089
3328.76309,0.17031
3327.73283,0.16994
3326.70257,0.16997
3325.67232,0.17020
3324.64206,0.16976
3323.61180,0.16888
3322.58154,0.16831
3321.55128,0.16804
3320.52103,0.16796
3319.49077,0.16791
3318.46051,0.16778
3317.43025,0.16761
3316.40000,0.16746
3315.36974,0.16732
3314.33948,0.16723
3313.30922,0.16719
3312.27896,0.16698
3311.24871,0.16650
3310.21845,0.16613
3309.18819,0.16596
3308.15793,0.16591
3307.12767,0.16585
3306.09742,0.16541
3305.06716,0.16496
3304.03690,0.16506
3303.00664,0.16503
3301.97639,0.16447
3300.94613,0.16418
3299.91587,0.16448
3298.88561,0.16468
3297.85535,0.16443
3296.82510,0.16392
3295.79484,0.16370
3294.76458,0.16407
3293.73432,0.16423
3292.70406,0.16371
3291.67381,0.16322
3290.64355,0.16329
3289.61329,0.16360
3288.58303,0.16364
3287.55278,0.16327
3286.52252,0.16287
3285.49226,0.16284
3284.46200,0.16312
3283.43174,0.16327
3282.40149,0.16290
3281.37123,0.16228
3280.34097,0.16213
3279.31071,0.16228
3278.28046,0.16191
3277.25020,0.16156
3276.21994,0.16206
3275.18968,0.16278
3274.15942,0.16260
3273.12917,0.16157
3272.09891,0.16065
3271.06865,0.16032
3270.03839,0.16025
3269.00813,0.16027
3267.97788,0.16055
3266.94762,0.16052
3265.91736,0.15988
3264.88710,0.15923
3263.85685,0.15874
3262.82659,0.15850
3261.79633,0.15847
3260.76607,0.15812
3259.73581,0.15746
3258.70556,0.15714
3257.67530,0.15730
3256.64504,0.15735
3255.61478,0.15716
3254.58452,0.15697
3253.55427,0.15686
3252.52401,0.15671
3251.49375,0.15635
3250.46349,0.15562
3249.43324,0.15464
3248.40298,0.15385
3247.37272,0.15353
3246.34246,0.15347
3245.31220,0.15333
3244.28195,0.15300
3243.25169,0.15265
3242.22143,0.15244
3241.19117,0.15222
3240.16092,0.15180
3239.13066,0.15147
3238.10040,0.15131
3237.07014,0.15113
3236.03988,0.15070
3235.00963,0.14969
3233.97937,0.14861
3232.94911,0.14795
3231.91885,0.14736
3230.88859,0.14723
3229.85834,0.14785
3228.82808,0.14820
3227.79782,0.14757
3226.76756,0.14638
3225.73731,0.14524
3224.70705,0.14443
3223.67679,0.14400
3222.64653,0.14376
3221.61627,0.14339
3220.58602,0.14281
3219.55576,0.14217
3218.52550,0.14153
3217.49524,0.14091
3216.46498,0.14040
3215.43473,0.13989
3214.40447,0.13926
3213.37421,0.13885
3212.34395,0.13869
3211.31370,0.13837
3210.28344,0.13773
3209.25318,0.13707
3208.22292,0.13669
3207.19266,0.13609
3206.16241,0.13496
3205.13215,0.13397
3204.10189,0.13338
3203.07163,0.13303
3202.04137,0.13281
3201.01112,0.13258
3199.98086,0.13227
3198.95060,0.13157
3197.92034,0.13085
3196.89009,0.13022
3195.85983,0.12914
3194.82957,0.12828
3193.79931,0.12796
3192.76905,0.12738
3191.73880,0.12614
3190.70854,0.12470
3189.67828,0.12385
3188.64802,0.12342
3187.61777,0.12285
3186.58751,0.12257
3185.55725,0.12267
3184.52699,0.12259
3183.49673,0.12230
3182.46648,0.12174
3181.43622,0.12108
3180.40596,0.12027
3179.37570,0.11927
3178.34544,0.11856
3177.31519,0.11791
3176.28493,0.11699
3175.25467,0.11617
3174.22441,0.11582
3173.19416,0.11557
3172.16390,0.11484
3171.13364,0.11390
3170.10338,0.11345
3169.07312,0.11341
3168.04287,0.11300
3167.01261,0.11205
3165.98235,0.11120
3164.95209,0.11066
3163.92183,0.11010
3162.89158,0.10932
3161.86132,0.10844
3160.83106,0.10783
3159.80080,0.10775
3158.77055,0.10782
3157.74029,0.10748
3156.71003,0.10660
3155.67977,0.10551
3154.64951,0.10479
3153.61926,0.10459
3152.58900,0.10443
3151.55874,0.10395
3150.52848,0.10347
3149.49822,0.10302
3148.46797,0.10235
3147.43771,0.10161
3146.40745,0.10130
3145.37719,0.10128
3144.34694,0.10086
3143.31668,0.10006
3142.28642,0.09923
3141.25616,0.09830
3140.22590,0.09761
3139.19565,0.09738
3138.16539,0.09697
3137.13513,0.09631
3136.10487,0.09577
3135.07462,0.09527
3134.04436,0.09496
3133.01410,0.09481
3131.98384,0.09437
3130.95358,0.09383
3129.92333,0.09359
3128.89307,0.09304
3127.86281,0.09221
3126.83255,0.09174
3125.80229,0.09131
3124.77204,0.09067
3123.74178,0.09009
3122.71152,0.08959
3121.68126,0.08889
3120.65101,0.08817
3119.62075,0.08776
3118.59049,0.08727
3117.56023,0.08678
3116.52997,0.08654
3115.49972,0.08630
3114.46946,0.08599
3113.43920,0.08539
3112.40894,0.08465
3111.37868,0.08448
3110.34843,0.08465
3109.31817,0.08452
3108.28791,0.08399
3107.25765,0.08306
3106.22740,0.08208
3105.19714,0.08149
3104.16688,0.08142
3103.13662,0.08167
3102.10636,0.08148
3101.07611,0.08066
3100.04585,0.07996
3099.01559,0.07974
3097.98533,0.07937
3096.95507,0.07838
3095.92482,0.07739
3094.89456,0.07718
3093.86430,0.07717
3092.83404,0.07659
3091.80379,0.07582
3090.77353,0.07530
3089.74327,0.07507
3088.71301,0.07511
3087.68275,0.07514
3086.65250,0.07485
3085.62224,0.07424
3084.59198,0.07348
3083.56172,0.07294
3082.53147,0.07279
3081.50121,0.07264
3080.47095,0.07227
3079.44069,0.07179
3078.41043,0.07145
3077.38018,0.07134
3076.34992,0.07114
3075.31966,0.07075
3074.28940,0.07035
3073.25914,0.06994
3072.22889,0.06951
3071.19863,0.06906
3070.16837,0.06875
3069.13811,0.06852
3068.10786,0.06800
3067.07760,0.06742
3066.04734,0.06711
3065.01708,0.06684
3063.98682,0.06649
3062.95657,0.06611
3061.92631,0.06563
3060.89605,0.06518
3059.86579,0.06478
3058.83553,0.06438
3057.80528,0.06425
3056.77502,0.06431
3055.74476,0.06411
3054.71450,0.06363
3053.68425,0.06308
3052.65399,0.06282
3051.62373,0.06293
3050.59347,0.06273
3049.56321,0.06215
3048.53296,0.06182
3047.50270,0.06204
3046.47244,0.06204
3045.44218,0.06158
3044.41192,0.06159
3043.38167,0.06170
3042.35141,0.06115
3041.32115,0.06061
3040.29089,0.06039
3039.26064,0.06006
3038.23038,0.05966
3037.20012,0.05959
3036.16986,0.05977
3035.13960,0.05976
3034.10935,0.05950
3033.07909,0.05909
3032.04883,0.05856
3031.01857,0.05806
3029.98832,0.05768
3028.95806,0.05753
3027.92780,0.05732
3026.89754,0.05686
3025.86728,0.05634
3024.83703,0.05603
3023.80677,0.05614
3022.77651,0.05609
3021.74625,0.05546
3020.71599,0.05484
3019.68574,0.05466
3018.65548,0.05458
3017.62522,0.05424
3016.59496,0.05384
3015.56471,0.05359
3014.53445,0.05328
3013.50419,0.05280
3012.47393,0.05237
3011.44367,0.05210
3010.41342,0.05182
3009.38316,0.05150
3008.35290,0.05124
3007.32264,0.05101
3006.29238,0.05072
3005.26213,0.05033
3004.23187,0.05000
3003.20161,0.04984
3002.17135,0.04972
3001.14110,0.04977
3000.11084,0.04997
2999.08058,0.04991
2998.05032,0.04945
2997.02006,0.04909
2995.98981,0.04912
2994.95955,0.04904
2993.92929,0.04893
2992.89903,0.04914
2991.86877,0.04907
2990.83852,0.04885
2989.80826,0.04915
2988.77800,0.04961
2987.74774,0.04974
2986.71749,0.04971
2985.68723,0.04980
2984.65697,0.05011
2983.62671,0.05070
2982.59645,0.05122
2981.56620,0.05139
2980.53594,0.05178
2979.50568,0.05255
2978.47542,0.05328
2977.44517,0.05395
2976.41491,0.05481
2975.38465,0.05590
2974.35439,0.05693
2973.32413,0.05788
2972.29388,0.05907
2971.26362,0.06033
2970.23336,0.06134
2969.20310,0.06235
2968.17284,0.06355
2967.14259,0.06482
2966.11233,0.06614
2965.08207,0.06748
2964.05181,0.06888
2963.02156,0.07023
2961.99130,0.07118
2960.96104,0.07179
2959.93078,0.07255
2958.90052,0.07376
2957.87027,0.07510
2956.84001,0.07604
2955.80975,0.07658
2954.77949,0.07698
2953.74923,0.07770
2952.71898,0.07890
2951.68872,0.08011
2950.65846,0.08074
2949.62820,0.08090
2948.59795,0.08121
2947.56769,0.08178
2946.53743,0.08239
2945.50717,0.08299
2944.47691,0.08346
2943.44666,0.08369
2942.41640,0.08389
2941.38614,0.08427
2940.35588,0.08471
2939.32562,0.08502
2938.29537,0.08522
2937.26511,0.08555
2936.23485,0.08619
2935.20459,0.08692
2934.17434,0.08735
2933.14408,0.08786
2932.11382,0.08895
2931.08356,0.09010
2930.05330,0.09103
2929.02305,0.09207
2927.99279,0.09307
2926.96253,0.09362
2925.93227,0.09379
2924.90202,0.09417
2923.87176,0.09488
2922.84150,0.09566
2921.81124,0.09662
2920.78098,0.09779
2919.75073,0.09893
2918.72047,0.09957
2917.69021,0.09976
2916.65995,0.10012
2915.62969,0.10097
2914.59944,0.10175
2913.56918,0.10203
2912.53892,0.10224
2911.50866,0.10259
2910.47841,0.10287
2909.44815,0.10297
2908.41789,0.10312
2907.38763,0.10340
2906.35737,0.10350
2905.32712,0.10341
2904.29686,0.10314
2903.26660,0.10280
2902.23634,0.10282
2901.20608,0.10305
2900.17583,0.10285
2899.14557,0.10243
2898.11531,0.10235
2897.08505,0.10291
2896.05480,0.10373
2895.02454,0.10427
2893.99428,0.10465
2892.96402,0.10487
2891.93376,0.10490
2890.90351,0.10542
2889.87325,0.10621
2888.84299,0.10657
2887.81273,0.10691
2886.78247,0.10762
2885.75222,0.10829
2884.72196,0.10902
2883.69170,0.11012
2882.66144,0.11119
2881.63119,0.11196
2880.60093,0.11249
2879.57067,0.11294
2878.54041,0.11346
2877.51015,0.11397
2876.47990,0.11452
2875.44964,0.11500
2874.41938,0.11500
2873.38912,0.11451
2872.35887,0.11402
2871.32861,0.11353
2870.29835,0.11266
2869.26809,0.11163
2868.23783,0.11073
2867.20758,0.10967
2866.17732,0.10805
2865.14706,0.10606
2864.11680,0.10408
2863.08654,0.10200
2862.05629,0.09984
2861.02603,0.09781
2859.99577,0.09582
2858.96551,0.09358
2857.93526,0.09089
2856.90500,0.08831
2855.87474,0.08622
2854.84448,0.08417
2853.81422,0.08175
2852.78397,0.07919
2851.75371,0.07706
2850.72345,0.07522
2849.69319,0.07326
2848.66293,0.07130
2847.63268,0.06932
2846.60242,0.06712
2845.57216,0.06533
2844.54190,0.06414
2843.51165,0.06284
2842.48139,0.06143
2841.45113,0.06026
2840.42087,0.05906
2839.39061,0.05782
2838.36036,0.05665
2837.33010,0.05544
2836.29984,0.05430
2835.26958,0.05331
2834.23933,0.05243
2833.20907,0.05164
2832.17881,0.05098
2831.14855,0.05040
2830.11829,0.04976
2829.08804,0.04909
2828.05778,0.04846
2827.02752,0.04776
2825.99726,0.04714
2824.96700,0.04667
2823.93675,0.04590
2822.90649,0.04504
2821.87623,0.04454
2820.84597,0.04430
2819.81572,0.04402
2818.78546,0.04355
2817.75520,0.04294
2816.72494,0.04228
2815.69468,0.04157
2814.66443,0.04088
2813.63417,0.04039
2812.60391,0.03996
2811.57365,0.03929
2810.54339,0.03859
2809.51314,0.03805
2808.48288,0.03766
2807.45262,0.03746
2806.42236,0.03726
2805.39211,0.03689
2804.36185,0.03653
2803.33159,0.03616
2802.30133,0.03557
2801.27107,0.03492
2800.24082,0.03432
2799.21056,0.03361
2798.18030,0.03314
2797.15004,0.03297
2796.11978,0.03259
2795.08953,0.03215
2794.05927,0.03189
2793.02901,0.03160
2791.99875,0.03139
2790.96850,0.03131
2789.93824,0.03113
2788.90798,0.03083
2787.87772,0.03023
2786.84746,0.02952
2785.81721,0.02898
2784.78695,0.02848
2783.75669,0.02809
2782.72643,0.02786
2781.69618,0.02770
2780.66592,0.02744
2779.63566,0.02703
2778.60540,0.02671
2777.57514,0.02657
2776.54489,0.02631
2775.51463,0.02589
2774.48437,0.02563
2773.45411,0.02547
2772.42385,0.02524
2771.39360,0.02497
2770.36334,0.02473
2769.33308,0.02458
2768.30282,0.02455
2767.27257,0.02461
2766.24231,0.02455
2765.21205,0.02425
2764.18179,0.02385
2763.15153,0.02376
2762.12128,0.02397
2761.09102,0.02402
2760.06076,0.02368
2759.03050,0.02318
2758.00024,0.02289
2756.96999,0.02285
2755.93973,0.02294
2754.90947,0.02311
2753.87921,0.02320
2752.84896,0.02298
2751.81870,0.02254
2750.78844,0.02215
2749.75818,0.02203
2748.72792,0.02216
2747.69767,0.02236
2746.66741,0.02230
2745.63715,0.02191
2744.60689,0.02143
2743.57663,0.02122
2742.54638,0.02141
2741.51612,0.02159
2740.48586,0.02161
2739.45560,0.02151
2738.42535,0.02121
2737.39509,0.02083
2736.36483,0.02062
2735.33457,0.02054
2734.30431,0.02049
2733.27406,0.02045
2732.24380,0.02036
2731.21354,0.02007
2730.18328,0.01960
2729.15303,0.01924
2728.12277,0.01924
2727.09251,0.01943
2726.06225,0.01954
2725.03199,0.01944
2724.00174,0.01926
2722.97148,0.01911
2721.94122,0.01885
2720.91096,0.01851
2719.88070,0.01821
2718.85045,0.01788
2717.82019,0.01761
2716.78993,0.01754
2715.75967,0.01747
2714.72942,0.01729
2713.69916,0.01710
2712.66890,0.01698
2711.63864,0.01695
2710.60838,0.01692
2709.57813,0.01689
2708.54787,0.01686
2707.51761,0.01666
2706.48735,0.01634
2705.45709,0.01629
2704.42684,0.01637
2703.39658,0.01636
2702.36632,0.01644
2701.33606,0.01644
2700.30581,0.01622
2699.27555,0.01599
2698.24529,0.01574
2697.21503,0.01534
2696.18477,0.01484
2695.15452,0.01454
2694.12426,0.01456
2693.09400,0.01469
2692.06374,0.01464
2691.03348,0.01432
2690.00323,0.01399
2688.97297,0.01384
2687.94271,0.01368
2686.91245,0.01349
2685.88220,0.01337
2684.85194,0.01327
2683.82168,0.01315
2682.79142,0.01303
2681.76116,0.01300
2680.73091,0.01303
2679.70065,0.01284
2678.67039,0.01246
2677.64013,0.01213
2676.60988,0.01191
2675.57962,0.01181
2674.54936,0.01182
2673.51910,0.01193
2672.48884,0.01207
2671.45859,0.01214
2670.42833,0.01213
2669.39807,0.01211
2668.36781,0.01193
2667.33755,0.01160
2666.30730,0.01128
2665.27704,0.01108
2664.24678,0.01108
2663.21652,0.01119
2662.18627,0.01109
2661.15601,0.01077
2660.12575,0.01063
2659.09549,0.01067
2658.06523,0.01068
2657.03498,0.01076
2656.00472,0.01089
2654.97446,0.01072
2653.94420,0.01040
2652.91394,0.01032
2651.88369,0.01041
2650.85343,0.01053
2649.82317,0.01051
2648.79291,0.01010
2647.76266,0.00962
2646.73240,0.00942
2645.70214,0.00937
2644.67188,0.00939
2643.64162,0.00968
2642.61137,0.00998
2641.58111,0.00985
2640.55085,0.00956
2639.52059,0.00947
2638.49033,0.00966
2637.46008,0.01002
2636.42982,0.01006
2635.39956,0.00962
2634.36930,0.00924
2633.33905,0.00916
2632.30879,0.00927
2631.27853,0.00955
2630.24827,0.00975
2629.21801,0.00961
2628.18776,0.00939
2627.15750,0.00944
2626.12724,0.00958
2625.09698,0.00945
2624.06673,0.00908
2623.03647,0.00885
2622.00621,0.00884
2620.97595,0.00887
2619.94569,0.00898
2618.91544,0.00906
2617.88518,0.00890
2616.85492,0.00867
2615.82466,0.00844
2614.79440,0.00823
2613.76415,0.00800
2612.73389,0.00760
2611.70363,0.00743
2610.67337,0.00781
2609.64312,0.00829
2608.61286,0.00857
2607.58260,0.00859
2606.55234,0.00840
2605.52208,0.00824
2604.49183,0.00823
2603.46157,0.00844
2602.43131,0.00859
2601.40105,0.00817
2600.37079,0.00748
2599.34054,0.00722
2598.31028,0.00738
2597.28002,0.00755
2596.24976,0.00750
2595.21951,0.00732
2594.18925,0.00750
2593.15899,0.00800
2592.12873,0.00812
2591.09847,0.00786
2590.06822,0.00792
2589.03796,0.00792
2588.00770,0.00732
2586.97744,0.00687
2585.94718,0.00711
2584.91693,0.00743
2583.88667,0.00738
2582.85641,0.00733
2581.82615,0.00739
2580.79590,0.00732
2579.76564,0.00716
2578.73538,0.00695
2577.70512,0.00680
2576.67486,0.00704
2575.64461,0.00745
2574.61435,0.00747
2573.58409,0.00725
2572.55383,0.00698
2571.52358,0.00662
2570.49332,0.00668
2569.46306,0.00714
2568.43280,0.00717
2567.40254,0.00667
2566.37229,0.00667
2565.34203,0.00745
2564.31177,0.00797
2563.28151,0.00762
2562.25125,0.00709
2561.22100,0.00726
2560.19074,0.00752
2559.16048,0.00709
2558.13022,0.00666
2557.09997,0.00651
2556.06971,0.00620
2555.03945,0.00614
2554.00919,0.00671
2552.97893,0.00720
2551.94868,0.00699
2550.91842,0.00660
2549.88816,0.00645
2548.85790,0.00646
2547.82764,0.00663
2546.79739,0.00685
2545.76713,0.00709
2544.73687,0.00724
2543.70661,0.00722
2542.67636,0.00702
2541.64610,0.00666
2540.61584,0.00656
2539.58558,0.00703
2538.55532,0.00761
2537.52507,0.00760
2536.49481,0.00711
2535.46455,0.00669
2534.43429,0.00636
2533.40403,0.00614
2532.37378,0.00601
2531.34352,0.00585
2530.31326,0.00599
2529.28300,0.00645
2528.25275,0.00674
2527.22249,0.00686
2526.19223,0.00699
2525.16197,0.00700
2524.13171,0.00704
2523.10146,0.00733
2522.07120,0.00742
2521.04094,0.00704
2520.01068,0.00651
2518.98043,0.00602
2517.95017,0.00567
2516.91991,0.00578
2515.88965,0.00659
2514.85939,0.00720
2513.82914,0.00663
2512.79888,0.00582
2511.76862,0.00589
2510.73836,0.00625
2509.70810,0.00635
2508.67785,0.00664
2507.64759,0.00696
2506.61733,0.00680
2505.58707,0.00645
2504.55682,0.00631
2503.52656,0.00627
2502.49630,0.00626
2501.46604,0.00625
2500.43578,0.00630
2499.40553,0.00659
2498.37527,0.00677
2497.34501,0.00637
2496.31475,0.00579
2495.28449,0.00576
2494.25424,0.00629
2493.22398,0.00677
2492.19372,0.00698
2491.16346,0.00688
2490.13321,0.00646
2489.10295,0.00595
2488.07269,0.00586
2487.04243,0.00614
2486.01217,0.00607
2484.98192,0.00590
2483.95166,0.00595
2482.92140,0.00569
2481.89114,0.00542
2480.86088,0.00556
2479.83063,0.00564
2478.80037,0.00559
2477.77011,0.00587
2476.73985,0.00657
2475.70960,0.00714
2474.67934,0.00705
2473.64908,0.00650
2472.61882,0.00623
2471.58856,0.00649
2470.55831,0.00692
2469.52805,0.00707
2468.49779,0.00669
2467.46753,0.00621
2466.43728,0.00610
2465.40702,0.00605
2464.37676,0.00598
2463.34650,0.00598
2462.31624,0.00594
2461.28599,0.00594
2460.25573,0.00587
2459.22547,0.00588
2458.19521,0.00609
2457.16495,0.00613
2456.13470,0.00597
2455.10444,0.00581
2454.07418,0.00575
2453.04392,0.00573
2452.01367,0.00567
2450.98341,0.00576
2449.95315,0.00605
2448.92289,0.00604
2447.89263,0.00571
2446.86238,0.00578
2445.83212,0.00632
2444.80186,0.00670
2443.77160,0.00652
2442.74134,0.00605
2441.71109,0.00583
2440.68083,0.00608
2439.65057,0.00638
2438.62031,0.00638
2437.59006,0.00667
2436.55980,0.00702
2435.52954,0.00683
2434.49928,0.00647
2433.46902,0.00620
2432.43877,0.00610
2431.40851,0.00641
2430.37825,0.00678
2429.34799,0.00688
2428.31774,0.00677
2427.28748,0.00640
2426.25722,0.00612
2425.22696,0.00613
2424.19670,0.00610
2423.16645,0.00596
2422.13619,0.00578
2421.10593,0.00565
2420.07567,0.00583
2419.04541,0.00613
2418.01516,0.00617
2416.98490,0.00603
2415.95464,0.00580
2414.92438,0.00566
2413.89413,0.00592
2412.86387,0.00671
2411.83361,0.00752
2410.80335,0.00774
2409.77309,0.00752
2408.74284,0.00733
2407.71258,0.00715
2406.68232,0.00681
2405.65206,0.00650
2404.62180,0.00658
2403.59155,0.00700
2402.56129,0.00750
2401.53103,0.00796
2400.50077,0.00799
2399.47052,0.00750
2398.44026,0.00687
2397.41000,0.00656
2396.37974,0.00688
2395.34948,0.00749
2394.31923,0.00780
2393.28897,0.00788
2392.25871,0.00785
2391.22845,0.00759
2390.19819,0.00730
2389.16794,0.00723
2388.13768,0.00747
2387.10742,0.00776
2386.07716,0.00774
2385.04691,0.00788
2384.01665,0.00841
2382.98639,0.00898
2381.95613,0.00955
2380.92587,0.01003
2379.89562,0.01029
2378.86536,0.01053
2377.83510,0.01097
2376.80484,0.01166
2375.77459,0.01262
2374.74433,0.01353
2373.71407,0.01433
2372.68381,0.01516
2371.65355,0.01593
2370.62330,0.01678
2369.59304,0.01767
2368.56278,0.01843
2367.53252,0.01903
2366.50226,0.01955
2365.47201,0.02074
2364.44175,0.02291
2363.41149,0.02468
2362.38123,0.02439
2361.35098,0.02263
2360.32072,0.02103
2359.29046,0.02036
2358.26020,0.02028
2357.22994,0.01978
2356.19969,0.01912
2355.16943,0.01882
2354.13917,0.01836
2353.10891,0.01768
2352.07865,0.01732
2351.04840,0.01696
2350.01814,0.01602
2348.98788,0.01532
2347.95762,0.01558
2346.92737,0.01647
2345.89711,0.01761
2344.86685,0.01827
2343.83659,0.01802
2342.80633,0.01782
2341.77608,0.01816
2340.74582,0.01864
2339.71556,0.01873
2338.68530,0.01860
2337.65504,0.01861
2336.62479,0.01813
2335.59453,0.01706
2334.56427,0.01657
2333.53401,0.01677
2332.50376,0.01682
2331.47350,0.01693
2330.44324,0.01770
2329.41298,0.01816
2328.38272,0.01730
2327.35247,0.01619
2326.32221,0.01599
2325.29195,0.01624
2324.26169,0.01628
2323.23144,0.01640
2322.20118,0.01658
2321.17092,0.01603
2320.14066,0.01505
2319.11040,0.01458
2318.08015,0.01423
2317.04989,0.01341
2316.01963,0.01254
2314.98937,0.01221
2313.95911,0.01235
2312.92886,0.01221
2311.89860,0.01183
2310.86834,0.01167
2309.83808,0.01143
2308.80783,0.01110
2307.77757,0.01105
2306.74731,0.01121
2305.71705,0.01136
2304.68679,0.01141
2303.65654,0.01115
2302.62628,0.01057
2301.59602,0.01006
2300.56576,0.01008
2299.53550,0.01020
2298.50525,0.01005
2297.47499,0.01003
2296.44473,0.01017
2295.41447,0.01039
2294.38422,0.01064
2293.35396,0.01049
2292.32370,0.00989
2291.29344,0.00945
2290.26318,0.00940
2289.23293,0.00930
2288.20267,0.00915
2287.17241,0.00923
2286.14215,0.00951
2285.11189,0.00961
2284.08164,0.00902
2283.05138,0.00814
2282.02112,0.00819
2280.99086,0.00874
2279.96061,0.00884
2278.93035,0.00933
2277.90009,0.01000
2276.86983,0.00964
2275.83957,0.00899
2274.80932,0.00909
2273.77906,0.00958
2272.74880,0.00961
2271.71854,0.00895
2270.68829,0.00842
2269.65803,0.00840
2268.62777,0.00855
2267.59751,0.00871
2266.56725,0.00882
2265.53700,0.00914
2264.50674,0.00981
2263.47648,0.00998
2262.44622,0.00937
2261.41596,0.00915
2260.38571,0.00973
2259.35545,0.01013
2258.32519,0.00964
2257.29493,0.00947
2256.26468,0.00993
2255.23442,0.00920
2254.20416,0.00760
2253.17390,0.00728
2252.14364,0.00824
2251.11339,0.00896
2250.08313,0.00902
2249.05287,0.00845
2248.02261,0.00818
2246.99235,0.00872
2245.96210,0.00903
2244.93184,0.00915
2243.90158,0.00926
2242.87132,0.00919
2241.84107,0.00935
2240.81081,0.00915
2239.78055,0.00839
2238.75029,0.00828
2237.72003,0.00841
2236.68978,0.00808
2235.65952,0.00786
2234.62926,0.00825
2233.59900,0.00953
2232.56874,0.01102
2231.53849,0.01140
2230.50823,0.01026
2229.47797,0.00939
2228.44771,0.01049
2227.41746,0.01184
2226.38720,0.01148
2225.35694,0.01059
2224.32668,0.00991
2223.29642,0.00863
2222.26617,0.00825
2221.23591,0.00956
2220.20565,0.01030
2219.17539,0.00968
2218.14514,0.00851
2217.11488,0.00771
2216.08462,0.00807
2215.05436,0.00844
2214.02410,0.00807
2212.99385,0.00792
2211.96359,0.00787
2210.93333,0.00781
2209.90307,0.00818
2208.87281,0.00901
2207.84256,0.01000
2206.81230,0.00964
2205.78204,0.00892
2204.75178,0.00963
2203.72153,0.01001
2202.69127,0.00957
2201.66101,0.00940
2200.63075,0.00918
2199.60049,0.00893
2198.57024,0.00902
2197.53998,0.00915
2196.50972,0.00892
2195.47946,0.00840
2194.44920,0.00819
2193.41895,0.00858
2192.38869,0.00865
2191.35843,0.00767
2190.32817,0.00772
2189.29792,0.01017
2188.26766,0.01174
2187.23740,0.01078
2186.20714,0.00978
2185.17688,0.01019
2184.14663,0.01142
2183.11637,0.01243
2182.08611,0.01193
2181.05585,0.01038
2180.02559,0.01014
2178.99534,0.01086
2177.96508,0.01082
2176.93482,0.01044
2175.90456,0.01033
2174.87431,0.01032
2173.84405,0.01000
2172.81379,0.00860
2171.78353,0.00741
2170.75327,0.00895
2169.72302,0.01100
2168.69276,0.01072
2167.66250,0.00968
2166.63224,0.00897
2165.60199,0.00855
2164.57173,0.00827
2163.54147,0.00715
2162.51121,0.00619
2161.48095,0.00724
2160.45070,0.00850
2159.42044,0.00909
2158.39018,0.01060
2157.35992,0.01162
2156.32966,0.01067
2155.29941,0.00885
2154.26915,0.00793
2153.23889,0.00789
2152.20863,0.00771
2151.17838,0.00868
2150.14812,0.01025
2149.11786,0.00933
2148.08760,0.00754
2147.05734,0.00825
2146.02709,0.01001
2144.99683,0.01011
2143.96657,0.00926
2142.93631,0.00960
2141.90605,0.01076
2140.87580,0.01065
2139.84554,0.00969
2138.81528,0.00974
2137.78502,0.01005
2136.75477,0.00988
2135.72451,0.00938
2134.69425,0.00837
2133.66399,0.00789
2132.63373,0.00845
2131.60348,0.00919
2130.57322,0.01011
2129.54296,0.01140
2128.51270,0.01222
2127.48244,0.01241
2126.45219,0.01244
2125.42193,0.01260
2124.39167,0.01319
2123.36141,0.01376
2122.33116,0.01364
2121.30090,0.01263
2120.27064,0.01109
2119.24038,0.01052
2118.21012,0.01236
2117.17987,0.01460
2116.14961,0.01427
2115.11935,0.01238
2114.08909,0.01149
2113.05884,0.01189
2112.02858,0.01196
2110.99832,0.01168
2109.96806,0.01164
2108.93780,0.01143
2107.90755,0.01131
2106.87729,0.01088
2105.84703,0.01012
2104.81677,0.01006
2103.78651,0.01052
2102.75626,0.01084
2101.72600,0.01081
2100.69574,0.01085
2099.66548,0.01129
2098.63523,0.01146
2097.60497,0.01116
2096.57471,0.01091
2095.54445,0.01040
2094.51419,0.00986
2093.48394,0.01009
2092.45368,0.01072
2091.42342,0.01106
2090.39316,0.01062
2089.36290,0.00979
2088.33265,0.00956
2087.30239,0.00986
2086.27213,0.00996
2085.24187,0.00976
2084.21162,0.00997
2083.18136,0.01070
2082.15110,0.01123
2081.12084,0.01175
2080.09058,0.01267
2079.06033,0.01312
2078.03007,0.01266
2076.99981,0.01185
2075.96955,0.01070
2074.93930,0.00953
2073.90904,0.00936
2072.87878,0.01050
2071.84852,0.01143
2070.81826,0.01125
2069.78801,0.01077
2068.75775,0.01032
2067.72749,0.01010
2066.69723,0.00992
2065.66697,0.00982
2064.63672,0.01023
2063.60646,0.01054
2062.57620,0.01088
2061.54594,0.01178
2060.51569,0.01193
2059.48543,0.01076
2058.45517,0.01044
2057.42491,0.01124
2056.39465,0.01069
2055.36440,0.00938
2054.33414,0.00978
2053.30388,0.01076
2052.27362,0.01048
2051.24336,0.00941
2050.21311,0.00820
2049.18285,0.00755
2048.15259,0.00803
2047.12233,0.00956
2046.09208,0.01057
2045.06182,0.01009
2044.03156,0.01009
2043.00130,0.01088
2041.97104,0.01113
2040.94079,0.01124
2039.91053,0.01175
2038.88027,0.01179
2037.85001,0.01015
2036.81975,0.00738
2035.78950,0.00516
2034.75924,0.00445
2033.72898,0.00476
2032.69872,0.00551
2031.66847,0.00767
2030.63821,0.01054
2029.60795,0.01130
2028.57769,0.00993
2027.54743,0.00855
2026.51718,0.00870
2025.48692,0.00938
2024.45666,0.00831
2023.42640,0.00733
2022.39615,0.00773
2021.36589,0.00717
2020.33563,0.00568
2019.30537,0.00456
2018.27511,0.00487
2017.24486,0.00638
2016.21460,0.00654
2015.18434,0.00555
2014.15408,0.00572
2013.12382,0.00702
2012.09357,0.00750
2011.06331,0.00635
2010.03305,0.00563
2009.00279,0.00705
2007.97254,0.00880
2006.94228,0.00900
2005.91202,0.00841
2004.88176,0.00855
2003.85150,0.00993
2002.82125,0.01068
2001.79099,0.00950
2000.76073,0.00796
1999.73047,0.00713
1998.70021,0.00695
1997.66996,0.00701
1996.63970,0.00648
1995.60944,0.00644
1994.57918,0.00806
1993.54893,0.00890
1992.51867,0.00806
1991.48841,0.00864
1990.45815,0.01018
1989.42789,0.01021
1988.39764,0.00983
1987.36738,0.00936
1986.33712,0.00851
1985.30686,0.00875
1984.27660,0.00955
1983.24635,0.00907
1982.21609,0.00808
1981.18583,0.00774
1980.15557,0.00751
1979.12532,0.00669
1978.09506,0.00581
1977.06480,0.00600
1976.03454,0.00625
1975.00428,0.00583
1973.97403,0.00602
1972.94377,0.00761
1971.91351,0.00968
1970.88325,0.01116
1969.85300,0.01144
1968.82274,0.01029
1967.79248,0.00887
1966.76222,0.00757
1965.73196,0.00664
1964.70171,0.00682
1963.67145,0.00763
1962.64119,0.00916
1961.61093,0.01079
1960.58067,0.01144
1959.55042,0.01105
1958.52016,0.00935
1957.48990,0.00722
1956.45964,0.00622
1955.42939,0.00669
1954.39913,0.00786
1953.36887,0.00847
1952.33861,0.00805
1951.30835,0.00717
1950.27810,0.00715
1949.24784,0.00770
1948.21758,0.00735
1947.18732,0.00711
1946.15706,0.00821
1945.12681,0.00999
1944.09655,0.01109
1943.06629,0.01052
1942.03603,0.00913
1941.00578,0.00831
1939.97552,0.00866
1938.94526,0.00929
1937.91500,0.00882
1936.88474,0.00840
1935.85449,0.00886
1934.82423,0.00939
1933.79397,0.00962
1932.76371,0.00930
1931.73345,0.00851
1930.70320,0.00792
1929.67294,0.00777
1928.64268,0.00758
1927.61242,0.00751
1926.58217,0.00802
1925.55191,0.00850
1924.52165,0.00826
1923.49139,0.00767
1922.46113,0.00761
1921.43088,0.00771
1920.40062,0.00708
1919.37036,0.00618
1918.34010,0.00589
1917.30985,0.00663
1916.27959,0.00765
1915.24933,0.00816
1914.21907,0.00817
1913.18881,0.00775
1912.15856,0.00708
1911.12830,0.00699
1910.09804,0.00755
1909.06778,0.00791
1908.03752,0.00818
1907.00727,0.00850
1905.97701,0.00817
1904.94675,0.00753
1903.91649,0.00750
1902.88624,0.00751
1901.85598,0.00691
1900.82572,0.00631
1899.79546,0.00620
1898.76520,0.00641
1897.73495,0.00669
1896.70469,0.00689
1895.67443,0.00710
1894.64417,0.00757
1893.61391,0.00782
1892.58366,0.00749
1891.55340,0.00729
1890.52314,0.00723
1889.49288,0.00691
1888.46263,0.00663
1887.43237,0.00672
1886.40211,0.00706
1885.37185,0.00707
1884.34159,0.00651
1883.31134,0.00624
1882.28108,0.00659
1881.25082,0.00685
1880.22056,0.00728
1879.19030,0.00798
1878.16005,0.00790
1877.12979,0.00700
1876.09953,0.00626
1875.06927,0.00629
1874.03902,0.00692
1873.00876,0.00715
1871.97850,0.00670
1870.94824,0.00643
1869.91798,0.00656
1868.88773,0.00646
1867.85747,0.00624
1866.82721,0.00650
1865.79695,0.00713
1864.76670,0.00759
1863.73644,0.00779
1862.70618,0.00774
1861.67592,0.00733
1860.64566,0.00694
1859.61541,0.00714
1858.58515,0.00745
1857.55489,0.00719
1856.52463,0.00683
1855.49437,0.00690
1854.46412,0.00714
1853.43386,0.00709
1852.40360,0.00703
1851.37334,0.00704
1850.34309,0.00662
1849.31283,0.00608
1848.28257,0.00565
1847.25231,0.00521
1846.22205,0.00523
1845.19180,0.00594
1844.16154,0.00682
1843.13128,0.00720
1842.10102,0.00705
1841.07076,0.00671
1840.04051,0.00665
1839.01025,0.00701
1837.97999,0.00738
1836.94973,0.00724
1835.91948,0.00673
1834.88922,0.00647
1833.85896,0.00653
1832.82870,0.00683
1831.79844,0.00720
1830.76819,0.00702
1829.73793,0.00651
1828.70767,0.00681
1827.67741,0.00750
1826.64715,0.00752
1825.61690,0.00689
1824.58664,0.00663
1823.55638,0.00714
1822.52612,0.00769
1821.49587,0.00784
1820.46561,0.00764
1819.43535,0.00752
1818.40509,0.00770
1817.37483,0.00801
1816.34458,0.00801
1815.31432,0.00761
1814.28406,0.00739
1813.25380,0.00734
1812.22355,0.00718
1811.19329,0.00731
1810.16303,0.00773
1809.13277,0.00802
1808.10251,0.00807
1807.07226,0.00815
1806.04200,0.00825
1805.01174,0.00836
1803.98148,0.00859
1802.95122,0.00848
1801.92097,0.00810
1800.89071,0.00820
1799.86045,0.00847
1798.83019,0.00858
1797.79994,0.00868
1796.76968,0.00881
1795.73942,0.00909
1794.70916,0.00937
1793.67890,0.00936
1792.64865,0.00914
1791.61839,0.00907
1790.58813,0.00913
1789.55787,0.00906
1788.52761,0.00896
1787.49736,0.00903
1786.46710,0.00925
1785.43684,0.00943
1784.40658,0.00957
1783.37633,0.00984
1782.34607,0.01017
1781.31581,0.01025
1780.28555,0.01004
1779.25529,0.01000
1778.22504,0.01017
1777.19478,0.01029
1776.16452,0.01030
1775.13426,0.01043
1774.10400,0.01077
1773.07375,0.01096
1772.04349,0.01063
1771.01323,0.01029
1769.98297,0.01031
1768.95272,0.01040
1767.92246,0.01057
1766.89220,0.01100
1765.86194,0.01143
1764.83168,0.01181
1763.80143,0.01208
1762.77117,0.01212
1761.74091,0.01217
1760.71065,0.01245
1759.68040,0.01263
1758.65014,0.01263
1757.61988,0.01263
1756.58962,0.01265
1755.55936,0.01277
1754.52911,0.01300
1753.49885,0.01310
1752.46859,0.01300
1751.43833,0.01288
1750.40807,0.01307
1749.37782,0.01335
1748.34756,0.01343
1747.31730,0.01367
1746.28704,0.01413
1745.25679,0.01458
1744.22653,0.01498
1743.19627,0.01521
1742.16601,0.01522
1741.13575,0.01541
1740.10550,0.01588
1739.07524,0.01623
1738.04498,0.01646
1737.01472,0.01655
1735.98446,0.01624
1734.95421,0.01571
1733.92395,0.01609
1732.89369,0.01761
1731.86343,0.01852
1730.83318,0.01886
1729.80292,0.01899
1728.77266,0.01914
1727.74240,0.01940
1726.71214,0.01970
1725.68189,0.02007
1724.65163,0.02053
1723.62137,0.02102
1722.59111,0.02157
1721.56085,0.02211
1720.53060,0.02263
1719.50034,0.02295
1718.47008,0.02271
1717.43982,0.02289
1716.40957,0.02375
1715.37931,0.02446
1714.34905,0.02542
1713.31879,0.02655
1712.28853,0.02725
1711.25828,0.02768
1710.22802,0.02834
1709.19776,0.02914
1708.16750,0.02975
1707.13725,0.03029
1706.10699,0.03106
1705.07673,0.03201
1704.04647,0.03302
1703.01621,0.03404
1701.98596,0.03486
1700.95570,0.03556
1699.92544,0.03637
1698.89518,0.03743
1697.86492,0.03851
1696.83467,0.03943
1695.80441,0.04006
1694.77415,0.04101
1693.74389,0.04248
1692.71364,0.04403
1691.68338,0.04530
1690.65312,0.04640
1689.62286,0.04766
1688.59260,0.04911
1687.56235,0.05056
1686.53209,0.05173
1685.50183,0.05272
1684.47157,0.05403
1683.44131,0.05565
1682.41106,0.05713
1681.38080,0.05863
1680.35054,0.06024
1679.32028,0.06182
1678.29003,0.06335
1677.25977,0.06472
1676.22951,0.06579
1675.19925,0.06743
1674.16899,0.06955
1673.13874,0.07089
1672.10848,0.07191
1671.07822,0.07325
1670.04796,0.07483
1669.01771,0.07658
1667.98745,0.07818
1666.95719,0.07938
1665.92693,0.08079
1664.89667,0.08264
1663.86642,0.08434
1662.83616,0.08557
1661.80590,0.08689
1660.77564,0.08838
1659.74538,0.08980
1658.71513,0.09122
1657.68487,0.09253
1656.65461,0.09343
1655.62435,0.09401
1654.59410,0.09455
1653.56384,0.09496
1652.53358,0.09548
1651.50332,0.09637
1650.47306,0.09719
1649.44281,0.09781
1648.41255,0.09811
1647.38229,0.09791
1646.35203,0.09767
1645.32177,0.09777
1644.29152,0.09795
1643.26126,0.09774
1642.23100,0.09728
1641.20074,0.09691
1640.17049,0.09650
1639.14023,0.09585
1638.10997,0.09491
1637.07971,0.09395
1636.04945,0.09300
1635.01920,0.09155
1633.98894,0.09043
1632.95868,0.08942
1631.92842,0.08797
1630.89816,0.08663
1629.86791,0.08544
1628.83765,0.08384
1627.80739,0.08175
1626.77713,0.07996
1625.74688,0.07864
1624.71662,0.07710
1623.68636,0.07472
1622.65610,0.07213
1621.62584,0.07052
1620.59559,0.06909
1619.56533,0.06756
1618.53507,0.06626
1617.50481,0.06474
1616.47456,0.06216
1615.44430,0.06007
1614.41404,0.05895
1613.38378,0.05783
1612.35352,0.05658
1611.32327,0.05528
1610.29301,0.05393
1609.26275,0.05264
1608.23249,0.05141
1607.20223,0.05009
1606.17198,0.04887
1605.14172,0.04774
1604.11146,0.04657
1603.08120,0.04544
1602.05095,0.04442
1601.02069,0.04346
1599.99043,0.04267
1598.96017,0.04214
1597.92991,0.04162
1596.89966,0.04100
1595.86940,0.04037
1594.83914,0.03969
1593.80888,0.03888
1592.77862,0.03814
1591.74837,0.03754
1590.71811,0.03687
1589.68785,0.03604
1588.65759,0.03536
1587.62734,0.03493
1586.59708,0.03444
1585.56682,0.03397
1584.53656,0.03370
1583.50630,0.03347
1582.47605,0.03313
1581.44579,0.03279
1580.41553,0.03256
1579.38527,0.03238
1578.35501,0.03194
1577.32476,0.03131
1576.29450,0.03071
1575.26424,0.03028
1574.23398,0.03007
1573.20373,0.02995
1572.17347,0.02978
1571.14321,0.02945
1570.11295,0.02880
1569.08269,0.02818
1568.05244,0.02819
1567.02218,0.02820
1565.99192,0.02800
1564.96166,0.02763
1563.93141,0.02716
1562.90115,0.02697
1561.87089,0.02695
1560.84063,0.02682
1559.81037,0.02662
1558.78012,0.02611
1557.74986,0.02544
1556.71960,0.02539
1555.68934,0.02546
1554.65908,0.02548
1553.62883,0.02554
1552.59857,0.02549
1551.56831,0.02536
1550.53805,0.02518
1549.50780,0.02515
1548.47754,0.02525
1547.44728,0.02525
1546.41702,0.02503
1545.38676,0.02454
1544.35651,0.02431
1543.32625,0.02455
1542.29599,0.02464
1541.26573,0.02437
1540.23547,0.02383
1539.20522,0.02351
1538.17496,0.02382
1537.14470,0.02394
1536.11444,0.02384
1535.08419,0.02366
1534.05393,0.02335
1533.02367,0.02315
1531.99341,0.02340
1530.96315,0.02372
1529.93290,0.02389
1528.90264,0.02394
1527.87238,0.02403
1526.84212,0.02409
1525.81186,0.02374
1524.78161,0.02332
1523.75135,0.02336
1522.72109,0.02338
1521.69083,0.02292
1520.66058,0.02272
1519.63032,0.02341
1518.60006,0.02394
1517.56980,0.02377
1516.53954,0.02357
1515.50929,0.02387
1514.47903,0.02405
1513.44877,0.02411
1512.41851,0.02426
1511.38826,0.02430
1510.35800,0.02408
1509.32774,0.02378
1508.29748,0.02358
1507.26722,0.02364
1506.23697,0.02434
1505.20671,0.02554
1504.17645,0.02616
1503.14619,0.02621
1502.11593,0.02615
1501.08568,0.02630
1500.05542,0.02653
1499.02516,0.02679
1497.99490,0.02727
1496.96465,0.02780
1495.93439,0.02860
1494.90413,0.02985
1493.87387,0.03119
1492.84361,0.03263
1491.81336,0.03411
1490.78310,0.03558
1489.75284,0.03746
1488.72258,0.03967
1487.69232,0.04219
1486.66207,0.04558
1485.63181,0.04979
1484.60155,0.05458
1483.57129,0.05949
1482.54104,0.06380
1481.51078,0.06667
1480.48052,0.06746
1479.45026,0.06687
1478.42000,0.06619
1477.38975,0.06606
1476.35949,0.06679
1475.32923,0.06856
1474.29897,0.07074
1473.26871,0.07302
1472.23846,0.07537
1471.20820,0.07806
1470.17794,0.08056
1469.14768,0.08272
1468.11743,0.08462
1467.08717,0.08616
1466.05691,0.08706
1465.02665,0.08745
1463.99639,0.08785
1462.96614,0.08802
1461.93588,0.08755
1460.90562,0.08675
1459.87536,0.08599
1458.84511,0.08513
1457.81485,0.08422
1456.78459,0.08325
1455.75433,0.08295
1454.72407,0.08300
1453.69382,0.08249
1452.66356,0.08120
1451.63330,0.07936
1450.60304,0.07733
1449.57278,0.07523
1448.54253,0.07283
1447.51227,0.07041
1446.48201,0.06875
1445.45175,0.06752
1444.42150,0.06636
1443.39124,0.06496
1442.36098,0.06312
1441.33072,0.06134
1440.30046,0.05977
1439.27021,0.05798
1438.23995,0.05601
1437.20969,0.05358
1436.17943,0.05048
1435.14917,0.04859
1434.11892,0.04734
1433.08866,0.04584
1432.05840,0.04433
1431.02814,0.04307
1429.99789,0.04208
1428.96763,0.04149
1427.93737,0.04106
1426.90711,0.04052
1425.87685,0.04006
1424.84660,0.03970
1423.81634,0.03932
1422.78608,0.03885
1421.75582,0.03841
1420.72556,0.03800
1419.69531,0.03736
1418.66505,0.03689
1417.63479,0.03700
1416.60453,0.03715
1415.57428,0.03726
1414.54402,0.03748
1413.51376,0.03771
1412.48350,0.03770
1411.45324,0.03765
1410.42299,0.03788
1409.39273,0.03822
1408.36247,0.03863
1407.33221,0.03930
1406.30196,0.04021
1405.27170,0.04115
1404.24144,0.04202
1403.21118,0.04253
1402.18092,0.04258
1401.15067,0.04242
1400.12041,0.04207
1399.09015,0.04147
1398.05989,0.04103
1397.02963,0.04087
1395.99938,0.04051
1394.96912,0.03971
1393.93886,0.03900
1392.90860,0.03883
1391.87835,0.03885
1390.84809,0.03874
1389.81783,0.03846
1388.78757,0.03815
1387.75731,0.03792
1386.72706,0.03805
1385.69680,0.03851
1384.66654,0.03895
1383.63628,0.03936
1382.60602,0.03974
1381.57577,0.04017
1380.54551,0.04068
1379.51525,0.04101
1378.48499,0.04118
1377.45474,0.04154
1376.42448,0.04199
1375.39422,0.04217
1374.36396,0.04232
1373.33370,0.04314
1372.30345,0.04454
1371.27319,0.04571
1370.24293,0.04654
1369.21267,0.04759
1368.18241,0.04901
1367.15216,0.05039
1366.12190,0.05170
1365.09164,0.05319
1364.06138,0.05485
1363.03113,0.05696
1362.00087,0.05958
1360.97061,0.06228
1359.94035,0.06508
1358.91009,0.06804
1357.87984,0.07131
1356.84958,0.07489
1355.81932,0.07860
1354.78906,0.08238
1353.75881,0.08622
1352.72855,0.09004
1351.69829,0.09363
1350.66803,0.09662
1349.63777,0.09856
1348.60752,0.09870
1347.57726,0.09651
1346.54700,0.09184
1345.51674,0.08470
1344.48648,0.07614
1343.45623,0.06789
1342.42597,0.06121
1341.39571,0.05619
1340.36545,0.05241
1339.33520,0.04989
1338.30494,0.04866
1337.27468,0.04844
1336.24442,0.04861
1335.21416,0.04870
1334.18391,0.04871
1333.15365,0.04871
1332.12339,0.04886
1331.09313,0.04931
1330.06287,0.04991
1329.03262,0.05033
1328.00236,0.05037
1326.97210,0.04987
1325.94184,0.04908
1324.91159,0.04835
1323.88133,0.04752
1322.85107,0.04666
1321.82081,0.04608
1320.79055,0.04566
1319.76030,0.04535
1318.73004,0.04530
1317.69978,0.04562
1316.66952,0.04629
1315.63927,0.04724
1314.60901,0.04855
1313.57875,0.05031
1312.54849,0.05232
1311.51823,0.05439
1310.48798,0.05645
1309.45772,0.05854
1308.42746,0.06056
1307.39720,0.06226
1306.36694,0.06379
1305.33669,0.06526
1304.30643,0.06656
1303.27617,0.06771
1302.24591,0.06863
1301.21566,0.06929
1300.18540,0.06985
1299.15514,0.07015
1298.12488,0.06996
1297.09462,0.06958
1296.06437,0.06953
1295.03411,0.06979
1294.00385,0.06990
1292.97359,0.06953
1291.94333,0.06880
1290.91308,0.06833
1289.88282,0.06829
1288.85256,0.06819
1287.82230,0.06789
1286.79205,0.06762
1285.76179,0.06728
1284.73153,0.06651
1283.70127,0.06538
1282.67101,0.06436
1281.64076,0.06351
1280.61050,0.06265
1279.58024,0.06172
1278.54998,0.06067
1277.51972,0.05943
1276.48947,0.05807
1275.45921,0.05706
1274.42895,0.05634
1273.39869,0.05547
1272.36844,0.05468
1271.33818,0.05434
1270.30792,0.05430
1269.27766,0.05437
1268.24740,0.05461
1267.21715,0.05509
1266.18689,0.05583
1265.15663,0.05684
1264.12637,0.05819
1263.09612,0.05990
1262.06586,0.06188
1261.03560,0.06405
1260.00534,0.06636
1258.97508,0.06868
1257.94483,0.07076
1256.91457,0.07275
1255.88431,0.07483
1254.85405,0.07688
1253.82379,0.07876
1252.79354,0.08032
1251.76328,0.08148
1250.73302,0.08226
1249.70276,0.08268
1248.67251,0.08285
1247.64225,0.08299
1246.61199,0.08311
1245.58173,0.08302
1244.55147,0.08267
1243.52122,0.08219
1242.49096,0.08171
1241.46070,0.08125
1240.43044,0.08074
1239.40018,0.07998
1238.36993,0.07889
1237.33967,0.07732
1236.30941,0.07523
1235.27915,0.07273
1234.24890,0.06979
1233.21864,0.06659
1232.18838,0.06341
1231.15812,0.06029
1230.12786,0.05717
1229.09761,0.05436
1228.06735,0.05221
1227.03709,0.05053
1226.00683,0.04902
1224.97657,0.04772
1223.94632,0.04658
1222.91606,0.04539
1221.88580,0.04414
1220.85554,0.04301
1219.82529,0.04207
1218.79503,0.04121
1217.76477,0.04037
1216.73451,0.03967
1215.70425,0.03921
1214.67400,0.03868
1213.64374,0.03799
1212.61348,0.03743
1211.58322,0.03707
1210.55297,0.03681
1209.52271,0.03666
1208.49245,0.03641
1207.46219,0.03588
1206.43193,0.03535
1205.40168,0.03515
1204.37142,0.03521
1203.34116,0.03526
1202.31090,0.03522
1201.28064,0.03515
1200.25039,0.03507
1199.22013,0.03486
1198.18987,0.03465
1197.15961,0.03453
1196.12936,0.03453
1195.09910,0.03460
1194.06884,0.03462
1193.03858,0.03473
1192.00832,0.03491
1190.97807,0.03500
1189.94781,0.03509
1188.91755,0.03519
1187.88729,0.03533
1186.85703,0.03562
1185.82678,0.03587
1184.79652,0.03607
1183.76626,0.03619
1182.73600,0.03622
1181.70575,0.03666
1180.67549,0.03747
1179.64523,0.03830
1178.61497,0.03897
1177.58471,0.03943
1176.55446,0.03972
1175.52420,0.03992
1174.49394,0.04024
1173.46368,0.04104
1172.43342,0.04214
1171.40317,0.04310
1170.37291,0.04404
1169.34265,0.04511
1168.31239,0.04637
1167.28214,0.04800
1166.25188,0.04991
1165.22162,0.05193
1164.19136,0.05404
1163.16110,0.05650
1162.13085,0.05960
1161.10059,0.06326
1160.07033,0.06720
1159.04007,0.07148
1158.00982,0.07628
1156.97956,0.08141
1155.94930,0.08662
1154.91904,0.09207
1153.88878,0.09807
1152.85853,0.10441
1151.82827,0.11069
1150.79801,0.11706
1149.76775,0.12391
1148.73749,0.13075
1147.70724,0.13705
1146.67698,0.14292
1145.64672,0.14866
1144.61646,0.15447
1143.58621,0.16012
1142.55595,0.16537
1141.52569,0.17005
1140.49543,0.17432
1139.46517,0.17856
1138.43492,0.18263
1137.40466,0.18621
1136.37440,0.18939
1135.34414,0.19238
1134.31388,0.19504
1133.28363,0.19735
1132.25337,0.19984
1131.22311,0.20257
1130.19285,0.20522
1129.16260,0.20820
1128.13234,0.21163
1127.10208,0.21512
1126.07182,0.21889
1125.04156,0.22313
1124.01131,0.22721
1122.98105,0.23108
1121.95079,0.23545
1120.92053,0.24026
1119.89027,0.24508
1118.86002,0.25005
1117.82976,0.25501
1116.79950,0.25951
1115.76924,0.26391
1114.73899,0.26864
1113.70873,0.27350
1112.67847,0.27816
1111.64821,0.28285
1110.61795,0.28787
1109.58770,0.29294
1108.55744,0.29784
1107.52718,0.30284
1106.49692,0.30814
1105.46667,0.31338
1104.43641,0.31880
1103.40615,0.32492
1102.37589,0.33083
1101.34563,0.33557
1100.31538,0.33980
1099.28512,0.34435
1098.25486,0.34904
1097.22460,0.35313
1096.19434,0.35663
1095.16409,0.36006
1094.13383,0.36326
1093.10357,0.36580
1092.07331,0.36783
1091.04306,0.36990
1090.01280,0.37150
1088.98254,0.37209
1087.95228,0.37208
1086.92202,0.37157
1085.89177,0.37082
1084.86151,0.37002
1083.83125,0.36855
1082.80099,0.36647
1081.77073,0.36416
1080.74048,0.36135
1079.71022,0.35823
1078.67996,0.35528
1077.64970,0.35210
1076.61945,0.34843
1075.58919,0.34484
1074.55893,0.34139
1073.52867,0.33806
1072.49841,0.33496
1071.46816,0.33149
1070.43790,0.32745
1069.40764,0.32306
1068.37738,0.31842
1067.34712,0.31346
1066.31687,0.30778
1065.28661,0.30132
1064.25635,0.29460
1063.22609,0.28763
1062.19584,0.27977
1061.16558,0.27097
1060.13532,0.26167
1059.10506,0.25213
1058.07480,0.24259
1057.04455,0.23330
1056.01429,0.22405
1054.98403,0.21484
1053.95377,0.20631
1052.92352,0.19855
1051.89326,0.19135
1050.86300,0.18471
1049.83274,0.17830
1048.80248,0.17264
1047.77223,0.16864
1046.74197,0.16583
1045.71171,0.16336
1044.68145,0.16124
1043.65119,0.15955
1042.62094,0.15835
1041.59068,0.15797
1040.56042,0.15813
1039.53016,0.15790
1038.49991,0.15698
1037.46965,0.15595
1036.43939,0.15521
1035.40913,0.15447
1034.37887,0.15336
1033.34862,0.15195
1032.31836,0.15018
1031.28810,0.14767
1030.25784,0.14476
1029.22758,0.14179
1028.19733,0.13841
1027.16707,0.13464
1026.13681,0.13086
1025.10655,0.12716
1024.07630,0.12338
1023.04604,0.11934
1022.01578,0.11544
1020.98552,0.11210
1019.95526,0.10883
1018.92501,0.10526
1017.89475,0.10169
1016.86449,0.09832
1015.83423,0.09527
1014.80397,0.09256
1013.77372,0.08998
1012.74346,0.08748
1011.71320,0.08524
1010.68294,0.08344
1009.65269,0.08210
1008.62243,0.08105
1007.59217,0.08022
1006.56191,0.07941
1005.53165,0.07854
1004.50140,0.07793
1003.47114,0.07748
1002.44088,0.07684
1001.41062,0.07632
1000.38037,0.07634
999.35011,0.07670
998.31985,0.07699
997.28959,0.07684
996.25933,0.07648
995.22908,0.07648
994.19882,0.07662
993.16856,0.07651
992.13830,0.07618
991.10804,0.07561
990.07779,0.07496
989.04753,0.07444
988.01727,0.07394
986.98701,0.07345
985.95676,0.07290
984.92650,0.07221
983.89624,0.07163
982.86598,0.07129
981.83572,0.07080
980.80547,0.07007
979.77521,0.06940
978.74495,0.06906
977.71469,0.06910
976.68443,0.06911
975.65418,0.06878
974.62392,0.06864
973.59366,0.06895
972.56340,0.06949
971.53315,0.07039
970.50289,0.07173
969.47263,0.07335
968.44237,0.07510
967.41211,0.07708
966.38186,0.07961
965.35160,0.08292
964.32134,0.08663
963.29108,0.09060
962.26082,0.09550
961.23057,0.10145
960.20031,0.10797
959.17005,0.11523
958.13979,0.12325
957.10954,0.13148
956.07928,0.13982
955.04902,0.14863
954.01876,0.15802
952.98850,0.16763
951.95825,0.17676
950.92799,0.18468
949.89773,0.19081
948.86747,0.19526
947.83722,0.19864
946.80696,0.20075
945.77670,0.20084
944.74644,0.19889
943.71618,0.19545
942.68593,0.19051
941.65567,0.18419
940.62541,0.17780
939.59515,0.17232
938.56489,0.16730
937.53464,0.16209
936.50438,0.15716
935.47412,0.15304
934.44386,0.14928
933.41361,0.14560
932.38335,0.14205
931.35309,0.13872
930.32283,0.13563
929.29257,0.13265
928.26232,0.13000
927.23206,0.12780
926.20180,0.12562
925.17154,0.12328
924.14128,0.12112
923.11103,0.11947
922.08077,0.11807
921.05051,0.11661
920.02025,0.11532
918.99000,0.11434
917.95974,0.11343
916.92948,0.11216
915.89922,0.11060
914.86896,0.10923
913.83871,0.10806
912.80845,0.10692
911.77819,0.10601
910.74793,0.10525
909.71768,0.10411
908.68742,0.10248
907.65716,0.10115
906.62690,0.10043
905.59664,0.09971
904.56639,0.09878
903.53613,0.09791
902.50587,0.09700
901.47561,0.09622
900.44535,0.09627
899.41510,0.09696
898.38484,0.09733
897.35458,0.09763
896.32432,0.09854
895.29407,0.09968
894.26381,0.10082
893.23355,0.10224
892.20329,0.10422
891.17303,0.10653
890.14278,0.10851
889.11252,0.11022
888.08226,0.11186
887.05200,0.11311
886.02174,0.11387
884.99149,0.11437
883.96123,0.11456
882.93097,0.11457
881.90071,0.11467
880.87046,0.11451
879.84020,0.11389
878.80994,0.11312
877.77968,0.11267
876.74942,0.11275
875.71917,0.11283
874.68891,0.11257
873.65865,0.11228
872.62839,0.11250
871.59813,0.11336
870.56788,0.11476
869.53762,0.11634
868.50736,0.11746
867.47710,0.11829
866.44685,0.11930
865.41659,0.12047
864.38633,0.12190
863.35607,0.12334
862.32581,0.12457
861.29556,0.12580
860.26530,0.12675
859.23504,0.12779
858.20478,0.12976
857.17453,0.13170
856.14427,0.13261
855.11401,0.13393
854.08375,0.13656
853.05349,0.13891
852.02324,0.14033
850.99298,0.14187
849.96272,0.14392
848.93246,0.14617
847.90220,0.14809
846.87195,0.14951
845.84169,0.15093
844.81143,0.15257
843.78117,0.15408
842.75092,0.15536
841.72066,0.15643
840.69040,0.15744
839.66014,0.15874
838.62988,0.15993
837.59963,0.16065
836.56937,0.16126
835.53911,0.16166
834.50885,0.16152
833.47859,0.16111
832.44834,0.16085
831.41808,0.16096
830.38782,0.16086
829.35756,0.15999
828.32731,0.15897
827.29705,0.15853
826.26679,0.15884
825.23653,0.15910
824.20627,0.15865
823.17602,0.15789
822.14576,0.15737
821.11550,0.15723
820.08524,0.15758
819.05498,0.15834
818.02473,0.15883
816.99447,0.15902
815.96421,0.15941
814.93395,0.15981
813.90370,0.16023
812.87344,0.16068
811.84318,0.16079
810.81292,0.16079
809.78266,0.16088
808.75241,0.16120
807.72215,0.16186
806.69189,0.16242
805.66163,0.16281
804.63138,0.16357
803.60112,0.16473
802.57086,0.16534
801.54060,0.16517
800.51034,0.16525
799.48009,0.16600
798.44983,0.16679
797.41957,0.16737
796.38931,0.16788
795.35905,0.16776
794.32880,0.16708
793.29854,0.16704
792.26828,0.16817
791.23802,0.16947
790.20777,0.17017
789.17751,0.17089
788.14725,0.17183
787.11699,0.17300
786.08673,0.17432
785.05648,0.17503
784.02622,0.17492
782.99596,0.17503
781.96570,0.17617
780.93544,0.17763
779.90519,0.17871
778.87493,0.17960
777.84467,0.18039
776.81441,0.18087
775.78416,0.18142
774.75390,0.18269
773.72364,0.18437
772.69338,0.18591
771.66312,0.18724
770.63287,0.18886
769.60261,0.19059
768.57235,0.19214
767.54209,0.19424
766.51183,0.19691
765.48158,0.19956
764.45132,0.20196
763.42106,0.20417
762.39080,0.20645
761.36055,0.20915
760.33029,0.21208
759.30003,0.21431
758.26977,0.21536
757.23951,0.21582
756.20926,0.21614
755.17900,0.21622
754.14874,0.21553
753.11848,0.21409
752.08823,0.21293
751.05797,0.21235
750.02771,0.21191
748.99745,0.21152
747.96719,0.21138
746.93694,0.21166
745.90668,0.21206
744.87642,0.21276
743.84616,0.21439
742.81590,0.21627
741.78565,0.21689
740.75539,0.21650
739.72513,0.21682
738.69487,0.21822
737.66462,0.21908
736.63436,0.21881
735.60410,0.21933
734.57384,0.22123
733.54358,0.22295
732.51333,0.22431
731.48307,0.22554
730.45281,0.22604
729.42255,0.22641
728.39229,0.22778
727.36204,0.22949
726.33178,0.23004
725.30152,0.23003
724.27126,0.23096
723.24101,0.23244
722.21075,0.23387
721.18049,0.23559
720.15023,0.23725
719.11997,0.23873
718.08972,0.24019
717.05946,0.24063
716.02920,0.24047
714.99894,0.24150
713.96868,0.24324
712.93843,0.24444
711.90817,0.24523
710.87791,0.24614
709.84765,0.24710
708.81740,0.24768
707.78714,0.24816
706.75688,0.24900
705.72662,0.24997
704.69636,0.25099
703.66611,0.25161
702.63585,0.25155
701.60559,0.25221
700.57533,0.25389
699.54508,0.25513
698.51482,0.25610
697.48456,0.25785
696.45430,0.25970
695.42404,0.26080
694.39379,0.26175
693.36353,0.26297
692.33327,0.26433
691.30301,0.26548
690.27275,0.26599
689.24250,0.26597
688.21224,0.26620
687.18198,0.26722
686.15172,0.26871
685.12147,0.27016
684.09121,0.27124
683.06095,0.27218
682.03069,0.27335
681.00043,0.27473
679.97018,0.27601
678.93992,0.27713
677.90966,0.27857
676.87940,0.28003
675.84914,0.28094
674.81889,0.28118
673.78863,0.28103
672.75837,0.28080
671.72811,0.28091
670.69786,0.28186
669.66760,0.28359
668.63734,0.28522
667.60708,0.28422
666.57682,0.28363
665.54657,0.28492
664.51631,0.28657
663.48605,0.28811
662.45579,0.28982
661.42553,0.29101
660.39528,0.29108
659.36502,0.29083
658.33476,0.29115
657.30450,0.29213
656.27425,0.29306
655.24399,0.29352
654.21373,0.29388
653.18347,0.29409
652.15321,0.29415
651.12296,0.29480
650.09270,0.29638
649.06244,0.29835
648.03218,0.29984
647.00193,0.30069
645.97167,0.30095
644.94141,0.30037
643.91115,0.29962
642.88089,0.29986
641.85064,0.30147
640.82038,0.30342
639.79012,0.30448
638.75986,0.30538
637.72960,0.30644
636.69935,0.30672
635.66909,0.30655
634.63883,0.30688
633.60857,0.30737
632.57832,0.30754
631.54806,0.30832
630.51780,0.30941
629.48754,0.30981
628.45728,0.30990
627.42703,0.31045
626.39677,0.31146
625.36651,0.31189
624.33625,0.31185
623.30599,0.31200
622.27574,0.31235
621.24548,0.31301
620.21522,0.31385
619.18496,0.31449
618.15471,0.31491
617.12445,0.31545
616.09419,0.31652
615.06393,0.31791
614.03367,0.31858
613.00342,0.31811
611.97316,0.31732
610.94290,0.31776
609.91264,0.31974
608.88238,0.32149
607.85213,0.32180
606.82187,0.32224
605.79161,0.32357
604.76135,0.32394
603.73110,0.32346
602.70084,0.32282
601.67058,0.32239
600.64032,0.32367
599.61006,0.32493
598.57981,0.32476
597.54955,0.32594
596.51929,0.32833
595.48903,0.32910
594.45878,0.32916
593.42852,0.32969
592.39826,0.32975
591.36800,0.33049
590.33774,0.33216
589.30749,0.33309
588.27723,0.33346
587.24697,0.33450
586.21671,0.33610
585.18645,0.33684
584.15620,0.33696
583.12594,0.33735
582.09568,0.33762
581.06542,0.33675
580.03517,0.33581
579.00491,0.33650
577.97465,0.33822
576.94439,0.34074
575.91413,0.34312
574.88388,0.34401
573.85362,0.34380
572.82336,0.34328
571.79310,0.34322
570.76284,0.34293
569.73259,0.34215
568.70233,0.34286
567.67207,0.34503
566.64181,0.34644
565.61156,0.34675
564.58130,0.34803
563.55104,0.35015
562.52078,0.35015
561.49052,0.34877
560.46027,0.34841
559.43001,0.34938
558.39975,0.35058
557.36949,0.35055
556.33924,0.35041
555.30898,0.35276
554.27872,0.35582
553.24846,0.35572
552.21820,0.35380
551.18795,0.35224
550.15769,0.35169
549.12743,0.35204
548.09717,0.35160
547.06691,0.35099
546.03666,0.35186
545.00640,0.35357
543.97614,0.35456
542.94588,0.35501
541.91563,0.35557
540.88537,0.35629
539.85511,0.35854
538.82485,0.36096
537.79459,0.36028
536.76434,0.35780
535.73408,0.35720
534.70382,0.35982
533.67356,0.36382
532.64330,0.36603
531.61305,0.36707
530.58279,0.36859
529.55253,0.36874
528.52227,0.36792
527.49202,0.36729
526.46176,0.36640
525.43150,0.36707
524.40124,0.36895
523.37098,0.36999
522.34073,0.37138
521.31047,0.37400
520.28021,0.37706
519.24995,0.38007
518.21969,0.38149
517.18944,0.38070
516.15918,0.38035
515.12892,0.38135
514.09866,0.38203
513.06841,0.38374
512.03815,0.38819
511.00789,0.39156
509.97763,0.39192
508.94737,0.39221
507.91712,0.39402
506.88686,0.39655
505.85660,0.39714
504.82634,0.39686
503.79609,0.39974
502.76583,0.40441
501.73557,0.40604
500.70531,0.40495
499.67505,0.40433
498.64480,0.40458
497.61454,0.40397
496.58428,0.40150
495.55402,0.39965
494.52376,0.39938
493.49351,0.39629
492.46325,0.39166
491.43299,0.39128
490.40273,0.39214
489.37248,0.39098
488.34222,0.38922
487.31196,0.38686
486.28170,0.38425
485.25144,0.38152
484.22119,0.37735
483.19093,0.37387
482.16067,0.37270
481.13041,0.37318
480.10015,0.37545
479.06990,0.37503
478.03964,0.37119
477.00938,0.36790
475.97912,0.36483
474.94887,0.36316
473.91861,0.36467
472.88835,0.36946
471.85809,0.37637
470.82783,0.37941
469.79758,0.37901
468.76732,0.38211
467.73706,0.38929
466.70680,0.39713
465.67654,0.40475
464.64629,0.40898
463.61603,0.40954
462.58577,0.40989
461.55551,0.40924
460.52526,0.40710
459.49500,0.40348
458.46474,0.39850
457.43448,0.39458
456.40422,0.39025
455.37397,0.38501
454.34371,0.38165
453.31345,0.37973
452.28319,0.37746
451.25294,0.37523
450.22268,0.37310
449.19242,0.37078
448.16216,0.36800
447.13190,0.36321
446.10165,0.35885
445.07139,0.36008
444.04113,0.36597
443.01087,0.36955
441.98061,0.36493
440.95036,0.35650
439.92010,0.35157
438.88984,0.35027
437.85958,0.34934
436.82933,0.34738
435.79907,0.34642
434.76881,0.34737
433.73855,0.34793
432.70829,0.34802
431.67804,0.34838
430.64778,0.34889
429.61752,0.34780
428.58726,0.34280
427.55700,0.33871
426.52675,0.33823
425.49649,0.33638
424.46623,0.33253
423.43597,0.33129
422.40572,0.33445
421.37546,0.33730
420.34520,0.33645
419.31494,0.33237
418.28468,0.32874
417.25443,0.33281
416.22417,0.34105
415.19391,0.34475
414.16365,0.34375
413.13339,0.34022
412.10314,0.33173
411.07288,0.32466
410.04262,0.32429
409.01236,0.32588
407.98211,0.32843
406.95185,0.33473
405.92159,0.33803
404.89133,0.33256
403.86107,0.32721
402.83082,0.32839
401.80056,0.32896
400.77030,0.32655
399.74004,0.32963
