4998.81105,0.00068
4997.78079,0.00047
4996.75054,0.00052
4995.72028,0.00134
4994.69002,0.00222
4993.65976,0.00228
4992.62951,0.00186
4991.59925,0.00144
4990.56899,0.00081
4989.53873,0.00009
4988.50847,-0.00014
4987.47822,-0.00010
4986.44796,-0.00046
4985.41770,-0.00060
4984.38744,-0.00026
4983.35718,0.00034
4982.32693,0.00148
4981.29667,0.00232
4980.26641,0.00210
4979.23615,0.00092
4978.20590,-0.00055
4977.17564,-0.00091
4976.14538,0.00009
4975.11512,0.00093
4974.08486,0.00063
4973.05461,0.00003
4972.02435,0.00024
4970.99409,0.00081
4969.96383,0.00055
4968.93357,-0.00032
4967.90332,-0.00063
4966.87306,-0.00024
4965.84280,0.00047
4964.81254,0.00093
4963.78229,0.00097
4962.75203,0.00128
4961.72177,0.00184
4960.69151,0.00186
4959.66125,0.00136
4958.63100,0.00111
4957.60074,0.00056
4956.57048,-0.00067
4955.54022,-0.00113
4954.50997,-0.00069
4953.47971,0.00001
4952.44945,0.00074
4951.41919,0.00109
4950.38893,0.00112
4949.35868,0.00123
4948.32842,0.00131
4947.29816,0.00085
4946.26790,0.00052
4945.23764,0.00080
4944.20739,0.00119
4943.17713,0.00145
4942.14687,0.00147
4941.11661,0.00146
4940.08636,0.00116
4939.05610,0.00021
4938.02584,-0.00076
4936.99558,-0.00095
4935.96532,-0.00027
4934.93507,0.00035
4933.90481,0.00001
4932.87455,-0.00029
4931.84429,0.00070
4930.81403,0.00179
4929.78378,0.00186
4928.75352,0.00165
4927.72326,0.00170
4926.69300,0.00186
4925.66275,0.00171
4924.63249,0.00092
4923.60223,0.00022
4922.57197,0.00001
4921.54171,-0.00018
4920.51146,0.00050
4919.48120,0.00205
4918.45094,0.00251
4917.42068,0.00149
4916.39042,0.00071
4915.36017,0.00107
4914.32991,0.00167
4913.29965,0.00138
4912.26939,0.00088
4911.23914,0.00120
4910.20888,0.00089
4909.17862,-0.00040
4908.14836,-0.00079
4907.11810,-0.00012
4906.08785,0.00018
4905.05759,-0.00015
4904.02733,-0.00034
4902.99707,-0.00065
4901.96682,-0.00105
4900.93656,-0.00050
4899.90630,0.00082
4898.87604,0.00153
4897.84578,0.00148
4896.81553,0.00101
4895.78527,0.00014
4894.75501,-0.00004
4893.72475,0.00048
4892.69449,0.00056
4891.66424,0.00037
4890.63398,0.00019
4889.60372,-0.00051
4888.57346,-0.00111
4887.54321,-0.00042
4886.51295,0.00115
4885.48269,0.00199
4884.45243,0.00186
4883.42217,0.00124
4882.39192,0.00036
4881.36166,-0.00009
4880.33140,-0.00027
4879.30114,-0.00010
4878.27088,0.00090
4877.24063,0.00178
4876.21037,0.00176
4875.18011,0.00157
4874.14985,0.00151
4873.11960,0.00121
4872.08934,0.00084
4871.05908,0.00026
4870.02882,-0.00000
4868.99856,0.00057
4867.96831,0.00163
4866.93805,0.00272
4865.90779,0.00281
4864.87753,0.00200
4863.84727,0.00170
4862.81702,0.00198
4861.78676,0.00226
4860.75650,0.00204
4859.72624,0.00095
4858.69599,0.00011
4857.66573,0.00008
4856.63547,0.00036
4855.60521,0.00079
4854.57495,0.00081
4853.54470,0.00059
4852.51444,0.00070
4851.48418,0.00056
4850.45392,0.00003
4849.42367,-0.00028
4848.39341,0.00008
4847.36315,0.00093
4846.33289,0.00084
4845.30263,0.00002
4844.27238,0.00016
4843.24212,0.00060
4842.21186,0.00028
4841.18160,-0.00002
4840.15134,0.00038
4839.12109,0.00078
4838.09083,0.00077
4837.06057,0.00072
4836.03031,0.00060
4835.00006,0.00051
4833.96980,0.00063
4832.93954,0.00072
4831.90928,0.00063
4830.87902,0.00103
4829.84877,0.00173
4828.81851,0.00153
4827.78825,0.00094
4826.75799,0.00103
4825.72773,0.00109
4824.69748,0.00052
4823.66722,-0.00017
4822.63696,-0.00034
4821.60670,-0.00020
4820.57645,-0.00021
4819.54619,0.00013
4818.51593,0.00074
4817.48567,0.00080
4816.45541,0.00052
4815.42516,0.00044
4814.39490,0.00044
4813.36464,0.00065
4812.33438,0.00135
4811.30412,0.00180
4810.27387,0.00134
4809.24361,0.00056
4808.21335,0.00029
4807.18309,0.00042
4806.15284,0.00007
4805.12258,-0.00076
4804.09232,-0.00114
4803.06206,-0.00086
4802.03180,0.00007
4801.00155,0.00168
4799.97129,0.00285
4798.94103,0.00240
4797.91077,0.00158
4796.88052,0.00190
4795.85026,0.00234
4794.82000,0.00201
4793.78974,0.00124
4792.75948,0.00085
4791.72923,0.00137
4790.69897,0.00185
4789.66871,0.00135
4788.63845,0.00056
4787.60819,0.00016
4786.57794,-0.00015
4785.54768,-0.00041
4784.51742,-0.00014
4783.48716,0.00047
4782.45691,0.00087
4781.42665,0.00091
4780.39639,0.00071
4779.36613,0.00051
4778.33587,0.00063
4777.30562,0.00092
4776.27536,0.00053
4775.24510,-0.00015
4774.21484,-0.00003
4773.18458,0.00065
4772.15433,0.00128
4771.12407,0.00146
4770.09381,0.00139
4769.06355,0.00088
4768.03330,-0.00007
4767.00304,-0.00043
4765.97278,-0.00006
4764.94252,0.00049
4763.91226,0.00076
4762.88201,0.00043
4761.85175,-0.00004
4760.82149,0.00034
4759.79123,0.00164
4758.76098,0.00252
4757.73072,0.00207
4756.70046,0.00140
4755.67020,0.00137
4754.63994,0.00128
4753.60969,0.00113
4752.57943,0.00136
4751.54917,0.00171
4750.51891,0.00192
4749.48865,0.00186
4748.45840,0.00131
4747.42814,0.00041
4746.39788,-0.00021
4745.36762,-0.00048
4744.33737,-0.00064
4743.30711,-0.00019
4742.27685,0.00069
4741.24659,0.00091
4740.21633,0.00054
4739.18608,0.00058
4738.15582,0.00069
4737.12556,0.00027
4736.09530,-0.00004
4735.06504,0.00020
4734.03479,0.00105
4733.00453,0.00194
4731.97427,0.00182
4730.94401,0.00098
4729.91376,0.00040
4728.88350,0.00049
4727.85324,0.00072
4726.82298,0.00065
4725.79272,0.00099
4724.76247,0.00149
4723.73221,0.00128
4722.70195,0.00087
4721.67169,0.00070
4720.64143,0.00070
4719.61118,0.00107
4718.58092,0.00183
4717.55066,0.00225
4716.52040,0.00167
4715.49015,0.00036
4714.45989,-0.00005
4713.42963,0.00100
4712.39937,0.00166
4711.36911,0.00144
4710.33886,0.00140
4709.30860,0.00105
4708.27834,0.00025
4707.24808,0.00022
4706.21783,0.00075
4705.18757,0.00102
4704.15731,0.00062
4703.12705,-0.00037
4702.09679,-0.00074
4701.06654,-0.00032
4700.03628,-0.00001
4699.00602,0.00032
4697.97576,0.00135
4696.94550,0.00240
4695.91525,0.00238
4694.88499,0.00172
4693.85473,0.00110
4692.82447,0.00074
4691.79422,0.00050
4690.76396,-0.00014
4689.73370,-0.00069
4688.70344,-0.00020
4687.67318,0.00107
4686.64293,0.00201
4685.61267,0.00178
4684.58241,0.00103
4683.55215,0.00129
4682.52189,0.00213
4681.49164,0.00190
4680.46138,0.00092
4679.43112,0.00010
4678.40086,-0.00020
4677.37061,0.00018
4676.34035,0.00077
4675.31009,0.00137
4674.27983,0.00215
4673.24957,0.00269
4672.21932,0.00221
4671.18906,0.00104
4670.15880,0.00025
4669.12854,-0.00015
4668.09828,-0.00079
4667.06803,-0.00135
4666.03777,-0.00081
4665.00751,0.00061
4663.97725,0.00177
4662.94700,0.00211
4661.91674,0.00176
4660.88648,0.00113
4659.85622,0.00091
4658.82596,0.00093
4657.79571,0.00072
4656.76545,0.00073
4655.73519,0.00100
4654.70493,0.00076
4653.67468,-0.00022
4652.64442,-0.00112
4651.61416,-0.00097
4650.58390,0.00003
4649.55364,0.00088
4648.52339,0.00142
4647.49313,0.00166
4646.46287,0.00136
4645.43261,0.00118
4644.40235,0.00157
4643.37210,0.00200
4642.34184,0.00173
4641.31158,0.00077
4640.28132,0.00033
4639.25107,0.00109
4638.22081,0.00175
4637.19055,0.00138
4636.16029,0.00102
4635.13003,0.00108
4634.09978,0.00128
4633.06952,0.00166
4632.03926,0.00183
4631.00900,0.00149
4629.97874,0.00093
4628.94849,0.00065
4627.91823,0.00091
4626.88797,0.00131
4625.85771,0.00160
4624.82746,0.00220
4623.79720,0.00261
4622.76694,0.00247
4621.73668,0.00210
4620.70642,0.00156
4619.67617,0.00114
4618.64591,0.00094
4617.61565,0.00115
4616.58539,0.00190
4615.55513,0.00208
4614.52488,0.00139
4613.49462,0.00084
4612.46436,0.00096
4611.43410,0.00148
4610.40385,0.00121
4609.37359,0.00038
4608.34333,0.00022
4607.31307,0.00022
4606.28281,0.00012
4605.25256,0.00040
4604.22230,0.00075
4603.19204,0.00102
4602.16178,0.00123
4601.13153,0.00091
4600.10127,0.00064
4599.07101,0.00114
4598.04075,0.00144
4597.01049,0.00034
4595.98024,-0.00107
4594.94998,-0.00105
4593.91972,-0.00030
4592.88946,-0.00000
4591.85920,0.00012
4590.82895,0.00054
4589.79869,0.00114
4588.76843,0.00153
4587.73817,0.00110
4586.70792,0.00024
4585.67766,-0.00024
4584.64740,-0.00037
4583.61714,-0.00046
4582.58688,-0.00030
4581.55663,0.00054
4580.52637,0.00130
4579.49611,0.00157
4578.46585,0.00177
4577.43559,0.00131
4576.40534,0.00046
4575.37508,0.00064
4574.34482,0.00139
4573.31456,0.00170
4572.28431,0.00170
4571.25405,0.00112
4570.22379,0.00023
4569.19353,0.00007
4568.16327,0.00082
4567.13302,0.00131
4566.10276,0.00102
4565.07250,0.00085
4564.04224,0.00128
4563.01198,0.00149
4561.98173,0.00089
4560.95147,0.00034
4559.92121,0.00026
4558.89095,0.00044
4557.86070,0.00096
4556.83044,0.00150
4555.80018,0.00164
4554.76992,0.00140
4553.73966,0.00115
4552.70941,0.00124
4551.67915,0.00151
4550.64889,0.00147
4549.61863,0.00114
4548.58838,0.00088
4547.55812,0.00075
4546.52786,0.00051
4545.49760,0.00027
4544.46734,0.00026
4543.43709,0.00051
4542.40683,0.00068
4541.37657,0.00007
4540.34631,-0.00066
4539.31605,-0.00024
4538.28580,0.00085
4537.25554,0.00138
4536.22528,0.00128
4535.19502,0.00077
4534.16477,-0.00019
4533.13451,-0.00066
4532.10425,-0.00020
4531.07399,0.00054
4530.04373,0.00114
4529.01348,0.00117
4527.98322,0.00085
4526.95296,0.00080
4525.92270,0.00104
4524.89244,0.00114
4523.86219,0.00103
4522.83193,0.00115
4521.80167,0.00145
4520.77141,0.00150
4519.74116,0.00116
4518.71090,0.00070
4517.68064,0.00033
4516.65038,0.00026
4515.62012,0.00064
4514.58987,0.00103
4513.55961,0.00104
4512.52935,0.00090
4511.49909,0.00093
4510.46883,0.00108
4509.43858,0.00124
4508.40832,0.00139
4507.37806,0.00135
4506.34780,0.00106
4505.31755,0.00072
4504.28729,0.00042
4503.25703,0.00047
4502.22677,0.00076
4501.19651,0.00055
4500.16626,0.00014
4499.13600,0.00036
4498.10574,0.00080
4497.07548,0.00077
4496.04523,0.00057
4495.01497,0.00055
4493.98471,0.00059
4492.95445,0.00063
4491.92419,0.00082
4490.89394,0.00087
4489.86368,0.00084
4488.83342,0.00098
4487.80316,0.00057
4486.77290,0.00004
4485.74265,0.00011
4484.71239,0.00021
4483.68213,0.00052
4482.65187,0.00074
4481.62162,0.00036
4480.59136,0.00055
4479.56110,0.00140
4478.53084,0.00161
4477.50058,0.00106
4476.47033,0.00063
4475.44007,0.00083
4474.40981,0.00109
4473.37955,0.00101
4472.34929,0.00081
4471.31904,0.00073
4470.28878,0.00105
4469.25852,0.00156
4468.22826,0.00150
4467.19801,0.00080
4466.16775,0.00047
4465.13749,0.00096
4464.10723,0.00133
4463.07697,0.00105
4462.04672,0.00086
4461.01646,0.00101
4459.98620,0.00145
4458.95594,0.00219
4457.92568,0.00240
4456.89543,0.00179
4455.86517,0.00098
4454.83491,0.00017
4453.80465,-0.00008
4452.77440,0.00038
4451.74414,0.00023
4450.71388,-0.00024
4449.68362,0.00037
4448.65336,0.00121
4447.62311,0.00138
4446.59285,0.00135
4445.56259,0.00130
4444.53233,0.00156
4443.50208,0.00203
4442.47182,0.00175
4441.44156,0.00093
4440.41130,0.00031
4439.38104,0.00015
4438.35079,0.00046
4437.32053,0.00106
4436.29027,0.00142
4435.26001,0.00098
4434.22975,0.00028
4433.19950,-0.00029
4432.16924,-0.00079
4431.13898,-0.00050
4430.10872,0.00057
4429.07847,0.00145
4428.04821,0.00147
4427.01795,0.00110
4425.98769,0.00150
4424.95743,0.00232
4423.92718,0.00224
4422.89692,0.00131
4421.86666,0.00044
4420.83640,0.00013
4419.80614,0.00018
4418.77589,0.00025
4417.74563,0.00043
4416.71537,0.00067
4415.68511,0.00099
4414.65486,0.00171
4413.62460,0.00214
4412.59434,0.00186
4411.56408,0.00178
4410.53382,0.00198
4409.50357,0.00174
4408.47331,0.00123
4407.44305,0.00109
4406.41279,0.00125
4405.38253,0.00130
4404.35228,0.00154
4403.32202,0.00197
4402.29176,0.00203
4401.26150,0.00171
4400.23125,0.00146
4399.20099,0.00153
4398.17073,0.00157
4397.14047,0.00154
4396.11021,0.00166
4395.07996,0.00162
4394.04970,0.00126
4393.01944,0.00086
4391.98918,0.00105
4390.95893,0.00165
4389.92867,0.00167
4388.89841,0.00158
4387.86815,0.00212
4386.83789,0.00243
4385.80764,0.00215
4384.77738,0.00214
4383.74712,0.00219
4382.71686,0.00200
4381.68660,0.00214
4380.65635,0.00258
4379.62609,0.00276
4378.59583,0.00203
4377.56557,0.00090
4376.53532,0.00080
4375.50506,0.00161
4374.47480,0.00238
4373.44454,0.00310
4372.41428,0.00400
4371.38403,0.00415
4370.35377,0.00301
4369.32351,0.00195
4368.29325,0.00199
4367.26299,0.00215
4366.23274,0.00170
4365.20248,0.00138
4364.17222,0.00164
4363.14196,0.00226
4362.11171,0.00253
4361.08145,0.00202
4360.05119,0.00166
4359.02093,0.00195
4357.99067,0.00199
4356.96042,0.00171
4355.93016,0.00209
4354.89990,0.00260
4353.86964,0.00233
4352.83939,0.00199
4351.80913,0.00212
4350.77887,0.00228
4349.74861,0.00226
4348.71835,0.00210
4347.68810,0.00199
4346.65784,0.00180
4345.62758,0.00116
4344.59732,0.00086
4343.56706,0.00169
4342.53681,0.00265
4341.50655,0.00283
4340.47629,0.00274
4339.44603,0.00262
4338.41578,0.00210
4337.38552,0.00129
4336.35526,0.00072
4335.32500,0.00098
4334.29474,0.00176
4333.26449,0.00199
4332.23423,0.00206
4331.20397,0.00264
4330.17371,0.00281
4329.14345,0.00260
4328.11320,0.00310
4327.08294,0.00371
4326.05268,0.00331
4325.02242,0.00224
4323.99217,0.00155
4322.96191,0.00175
4321.93165,0.00206
4320.90139,0.00172
4319.87113,0.00124
4318.84088,0.00141
4317.81062,0.00206
4316.78036,0.00218
4315.75010,0.00156
4314.71984,0.00114
4313.68959,0.00107
4312.65933,0.00120
4311.62907,0.00171
4310.59881,0.00203
4309.56856,0.00194
4308.53830,0.00206
4307.50804,0.00220
4306.47778,0.00197
4305.44752,0.00168
4304.41727,0.00167
4303.38701,0.00204
4302.35675,0.00243
4301.32649,0.00237
4300.29624,0.00213
4299.26598,0.00235
4298.23572,0.00276
4297.20546,0.00263
4296.17520,0.00246
4295.14495,0.00264
4294.11469,0.00245
4293.08443,0.00208
4292.05417,0.00217
4291.02391,0.00234
4289.99366,0.00243
4288.96340,0.00217
4287.93314,0.00134
4286.90288,0.00077
4285.87263,0.00068
4284.84237,0.00073
4283.81211,0.00122
4282.78185,0.00197
4281.75159,0.00233
4280.72134,0.00197
4279.69108,0.00146
4278.66082,0.00143
4277.63056,0.00153
4276.60030,0.00157
4275.57005,0.00172
4274.53979,0.00165
4273.50953,0.00121
4272.47927,0.00112
4271.44902,0.00138
4270.41876,0.00117
4269.38850,0.00090
4268.35824,0.00097
4267.32798,0.00096
4266.29773,0.00095
4265.26747,0.00092
4264.23721,0.00070
4263.20695,0.00064
4262.17669,0.00096
4261.14644,0.00084
4260.11618,0.00037
4259.08592,0.00077
4258.05566,0.00179
4257.02541,0.00254
4255.99515,0.00263
4254.96489,0.00196
4253.93463,0.00105
4252.90437,0.00072
4251.87412,0.00097
4250.84386,0.00120
4249.81360,0.00119
4248.78334,0.00134
4247.75309,0.00184
4246.72283,0.00220
4245.69257,0.00206
4244.66231,0.00171
4243.63205,0.00146
4242.60180,0.00131
4241.57154,0.00129
4240.54128,0.00151
4239.51102,0.00195
4238.48076,0.00236
4237.45051,0.00236
4236.42025,0.00201
4235.38999,0.00174
4234.35973,0.00157
4233.32948,0.00119
4232.29922,0.00103
4231.26896,0.00128
4230.23870,0.00163
4229.20844,0.00198
4228.17819,0.00210
4227.14793,0.00195
4226.11767,0.00158
4225.08741,0.00140
4224.05715,0.00167
4223.02690,0.00186
4221.99664,0.00165
4220.96638,0.00135
4219.93612,0.00109
4218.90587,0.00085
4217.87561,0.00074
4216.84535,0.00058
4215.81509,0.00067
4214.78483,0.00104
4213.75458,0.00106
4212.72432,0.00082
4211.69406,0.00059
4210.66380,0.00050
4209.63354,0.00100
4208.60329,0.00181
4207.57303,0.00223
4206.54277,0.00234
4205.51251,0.00253
4204.48226,0.00243
4203.45200,0.00140
4202.42174,0.00025
4201.39148,0.00002
4200.36122,0.00025
4199.33097,0.00057
4198.30071,0.00122
4197.27045,0.00179
4196.24019,0.00201
4195.20994,0.00220
4194.17968,0.00200
4193.14942,0.00119
4192.11916,0.00066
4191.08890,0.00100
4190.05865,0.00156
4189.02839,0.00166
4187.99813,0.00167
4186.96787,0.00219
4185.93761,0.00278
4184.90736,0.00269
4183.87710,0.00224
4182.84684,0.00192
4181.81658,0.00170
4180.78633,0.00167
4179.75607,0.00211
4178.72581,0.00271
4177.69555,0.00291
4176.66529,0.00265
4175.63504,0.00225
4174.60478,0.00207
4173.57452,0.00211
4172.54426,0.00196
4171.51400,0.00175
4170.48375,0.00176
4169.45349,0.00192
4168.42323,0.00209
4167.39297,0.00182
4166.36272,0.00156
4165.33246,0.00192
4164.30220,0.00223
4163.27194,0.00223
4162.24168,0.00227
4161.21143,0.00218
4160.18117,0.00191
4159.15091,0.00164
4158.12065,0.00130
4157.09039,0.00110
4156.06014,0.00123
4155.02988,0.00144
4153.99962,0.00172
4152.96936,0.00206
4151.93911,0.00178
4150.90885,0.00108
4149.87859,0.00100
4148.84833,0.00108
4147.81807,0.00081
4146.78782,0.00095
4145.75756,0.00145
4144.72730,0.00195
4143.69704,0.00235
4142.66679,0.00232
4141.63653,0.00171
4140.60627,0.00093
4139.57601,0.00068
4138.54575,0.00099
4137.51550,0.00127
4136.48524,0.00140
4135.45498,0.00167
4134.42472,0.00196
4133.39446,0.00206
4132.36421,0.00219
4131.33395,0.00238
4130.30369,0.00241
4129.27343,0.00242
4128.24318,0.00272
4127.21292,0.00320
4126.18266,0.00314
4125.15240,0.00263
4124.12214,0.00224
4123.09189,0.00185
4122.06163,0.00147
4121.03137,0.00133
4120.00111,0.00148
4118.97085,0.00191
4117.94060,0.00219
4116.91034,0.00210
4115.88008,0.00186
4114.84982,0.00169
4113.81957,0.00178
4112.78931,0.00190
4111.75905,0.00131
4110.72879,0.00060
4109.69853,0.00098
4108.66828,0.00187
4107.63802,0.00231
4106.60776,0.00233
4105.57750,0.00217
4104.54724,0.00199
4103.51699,0.00169
4102.48673,0.00138
4101.45647,0.00157
4100.42621,0.00180
4099.39596,0.00151
4098.36570,0.00143
4097.33544,0.00178
4096.30518,0.00187
4095.27492,0.00202
4094.24467,0.00221
4093.21441,0.00194
4092.18415,0.00177
4091.15389,0.00190
4090.12364,0.00197
4089.09338,0.00201
4088.06312,0.00199
4087.03286,0.00194
4086.00260,0.00203
4084.97235,0.00216
4083.94209,0.00209
4082.91183,0.00184
4081.88157,0.00171
4080.85131,0.00203
4079.82106,0.00251
4078.79080,0.00259
4077.76054,0.00250
4076.73028,0.00251
4075.70003,0.00262
4074.66977,0.00299
4073.63951,0.00338
4072.60925,0.00344
4071.57899,0.00335
4070.54874,0.00334
4069.51848,0.00317
4068.48822,0.00278
4067.45796,0.00244
4066.42770,0.00225
4065.39745,0.00238
4064.36719,0.00266
4063.33693,0.00250
4062.30667,0.00215
4061.27642,0.00235
4060.24616,0.00299
4059.21590,0.00343
4058.18564,0.00333
4057.15538,0.00289
4056.12513,0.00257
4055.09487,0.00253
4054.06461,0.00236
4053.03435,0.00239
4052.00409,0.00283
4050.97384,0.00299
4049.94358,0.00288
4048.91332,0.00278
4047.88306,0.00291
4046.85281,0.00316
4045.82255,0.00322
4044.79229,0.00330
4043.76203,0.00339
4042.73177,0.00338
4041.70152,0.00333
4040.67126,0.00310
4039.64100,0.00277
4038.61074,0.00273
4037.58049,0.00309
4036.55023,0.00337
4035.51997,0.00323
4034.48971,0.00302
4033.45945,0.00280
4032.42920,0.00263
4031.39894,0.00312
4030.36868,0.00347
4029.33842,0.00301
4028.30816,0.00277
4027.27791,0.00292
4026.24765,0.00295
4025.21739,0.00288
4024.18713,0.00273
4023.15688,0.00270
4022.12662,0.00304
4021.09636,0.00359
4020.06610,0.00386
4019.03584,0.00377
4018.00559,0.00364
4016.97533,0.00348
4015.94507,0.00350
4014.91481,0.00372
4013.88455,0.00364
4012.85430,0.00353
4011.82404,0.00357
4010.79378,0.00325
4009.76352,0.00271
4008.73327,0.00249
4007.70301,0.00241
4006.67275,0.00235
4005.64249,0.00281
4004.61223,0.00336
4003.58198,0.00315
4002.55172,0.00260
4001.52146,0.00264
4000.49120,0.00298
3999.46095,0.00280
3998.43069,0.00245
3997.40043,0.00269
3996.37017,0.00319
3995.33991,0.00349
3994.30966,0.00351
3993.27940,0.00318
3992.24914,0.00301
3991.21888,0.00309
3990.18862,0.00267
3989.15837,0.00227
3988.12811,0.00246
3987.09785,0.00260
3986.06759,0.00262
3985.03734,0.00266
3984.00708,0.00249
3982.97682,0.00224
3981.94656,0.00214
3980.91630,0.00227
3979.88605,0.00249
3978.85579,0.00264
3977.82553,0.00275
3976.79527,0.00275
3975.76501,0.00242
3974.73476,0.00202
3973.70450,0.00204
3972.67424,0.00246
3971.64398,0.00291
3970.61373,0.00320
3969.58347,0.00307
3968.55321,0.00261
3967.52295,0.00239
3966.49269,0.00234
3965.46244,0.00206
3964.43218,0.00184
3963.40192,0.00217
3962.37166,0.00267
3961.34140,0.00254
3960.31115,0.00222
3959.28089,0.00232
3958.25063,0.00247
3957.22037,0.00259
3956.19012,0.00280
3955.15986,0.00286
3954.12960,0.00271
3953.09934,0.00277
3952.06908,0.00298
3951.03883,0.00284
3950.00857,0.00242
3948.97831,0.00219
3947.94805,0.00238
3946.91780,0.00280
3945.88754,0.00293
3944.85728,0.00261
3943.82702,0.00237
3942.79676,0.00250
3941.76651,0.00246
3940.73625,0.00236
3939.70599,0.00251
3938.67573,0.00239
3937.64547,0.00214
3936.61522,0.00206
3935.58496,0.00184
3934.55470,0.00192
3933.52444,0.00252
3932.49419,0.00275
3931.46393,0.00248
3930.43367,0.00240
3929.40341,0.00240
3928.37315,0.00233
3927.34290,0.00221
3926.31264,0.00216
3925.28238,0.00251
3924.25212,0.00278
3923.22186,0.00248
3922.19161,0.00220
3921.16135,0.00214
3920.13109,0.00208
3919.10083,0.00222
3918.07058,0.00261
3917.04032,0.00258
3916.01006,0.00205
3914.97980,0.00175
3913.94954,0.00198
3912.91929,0.00230
3911.88903,0.00209
3910.85877,0.00148
3909.82851,0.00130
3908.79825,0.00168
3907.76800,0.00205
3906.73774,0.00216
3905.70748,0.00207
3904.67722,0.00179
3903.64697,0.00173
3902.61671,0.00216
3901.58645,0.00250
3900.55619,0.00249
3899.52593,0.00249
3898.49568,0.00262
3897.46542,0.00274
3896.43516,0.00254
3895.40490,0.00197
3894.37465,0.00156
3893.34439,0.00152
3892.31413,0.00162
3891.28387,0.00195
3890.25361,0.00254
3889.22336,0.00301
3888.19310,0.00307
3887.16284,0.00276
3886.13258,0.00241
3885.10232,0.00213
3884.07207,0.00171
3883.04181,0.00153
3882.01155,0.00169
3880.98129,0.00191
3879.95104,0.00190
3878.92078,0.00131
3877.89052,0.00098
3876.86026,0.00135
3875.83000,0.00187
3874.79975,0.00210
3873.76949,0.00201
3872.73923,0.00199
3871.70897,0.00211
3870.67871,0.00217
3869.64846,0.00223
3868.61820,0.00225
3867.58794,0.00224
3866.55768,0.00231
3865.52743,0.00206
3864.49717,0.00159
3863.46691,0.00171
3862.43665,0.00209
3861.40639,0.00222
3860.37614,0.00220
3859.34588,0.00215
3858.31562,0.00200
3857.28536,0.00186
3856.25510,0.00196
3855.22485,0.00214
3854.19459,0.00215
3853.16433,0.00202
3852.13407,0.00172
3851.10382,0.00144
3850.07356,0.00160
3849.04330,0.00192
3848.01304,0.00218
3846.98278,0.00243
3845.95253,0.00253
3844.92227,0.00236
3843.89201,0.00204
3842.86175,0.00171
3841.83150,0.00162
3840.80124,0.00214
3839.77098,0.00258
3838.74072,0.00251
3837.71046,0.00268
3836.68021,0.00282
3835.64995,0.00246
3834.61969,0.00192
3833.58943,0.00189
3832.55917,0.00215
3831.52892,0.00211
3830.49866,0.00213
3829.46840,0.00240
3828.43814,0.00245
3827.40789,0.00225
3826.37763,0.00203
3825.34737,0.00197
3824.31711,0.00194
3823.28685,0.00202
3822.25660,0.00225
3821.22634,0.00208
3820.19608,0.00197
3819.16582,0.00233
3818.13556,0.00241
3817.10531,0.00233
3816.07505,0.00285
3815.04479,0.00324
3814.01453,0.00288
3812.98428,0.00263
3811.95402,0.00249
3810.92376,0.00218
3809.89350,0.00198
3808.86324,0.00205
3807.83299,0.00187
3806.80273,0.00140
3805.77247,0.00152
3804.74221,0.00185
3803.71195,0.00213
3802.68170,0.00248
3801.65144,0.00258
3800.62118,0.00206
3799.59092,0.00169
3798.56067,0.00210
3797.53041,0.00269
3796.50015,0.00250
3795.46989,0.00213
3794.43963,0.00223
3793.40938,0.00237
3792.37912,0.00253
3791.34886,0.00248
3790.31860,0.00195
3789.28835,0.00154
3788.25809,0.00171
3787.22783,0.00187
3786.19757,0.00166
3785.16731,0.00179
3784.13706,0.00227
3783.10680,0.00219
3782.07654,0.00195
3781.04628,0.00218
3780.01602,0.00261
3778.98577,0.00271
3777.95551,0.00238
3776.92525,0.00202
3775.89499,0.00167
3774.86474,0.00122
3773.83448,0.00121
3772.80422,0.00192
3771.77396,0.00255
3770.74370,0.00271
3769.71345,0.00272
3768.68319,0.00262
3767.65293,0.00253
3766.62267,0.00270
3765.59241,0.00297
3764.56216,0.00306
3763.53190,0.00296
3762.50164,0.00281
3761.47138,0.00268
3760.44113,0.00250
3759.41087,0.00195
3758.38061,0.00177
3757.35035,0.00219
3756.32009,0.00208
3755.28984,0.00159
3754.25958,0.00188
3753.22932,0.00264
3752.19906,0.00267
3751.16880,0.00210
3750.13855,0.00204
3749.10829,0.00218
3748.07803,0.00222
3747.04777,0.00228
3746.01752,0.00206
3744.98726,0.00106
3743.95700,0.00062
3742.92674,0.00147
3741.89648,0.00181
3740.86623,0.00173
3739.83597,0.00210
3738.80571,0.00286
3737.77545,0.00303
3736.74520,0.00243
3735.71494,0.00200
3734.68468,0.00211
3733.65442,0.00228
3732.62416,0.00272
3731.59391,0.00335
3730.56365,0.00363
3729.53339,0.00344
3728.50313,0.00301
3727.47287,0.00277
3726.44262,0.00256
3725.41236,0.00208
3724.38210,0.00167
3723.35184,0.00203
3722.32159,0.00299
3721.29133,0.00337
3720.26107,0.00350
3719.23081,0.00368
3718.20055,0.00346
3717.17030,0.00322
3716.14004,0.00328
3715.10978,0.00361
3714.07952,0.00374
3713.04926,0.00353
3712.01901,0.00349
3710.98875,0.00352
3709.95849,0.00325
3708.92823,0.00289
3707.89798,0.00292
3706.86772,0.00319
3705.83746,0.00309
3704.80720,0.00296
3703.77694,0.00332
3702.74669,0.00372
3701.71643,0.00358
3700.68617,0.00321
3699.65591,0.00306
3698.62565,0.00325
3697.59540,0.00385
3696.56514,0.00456
3695.53488,0.00501
3694.50462,0.00499
3693.47437,0.00469
3692.44411,0.00474
3691.41385,0.00521
3690.38359,0.00558
3689.35333,0.00587
3688.32308,0.00599
3687.29282,0.00585
3686.26256,0.00584
3685.23230,0.00618
3684.20205,0.00659
3683.17179,0.00661
3682.14153,0.00642
3681.11127,0.00637
3680.08101,0.00639
3679.05076,0.00652
3678.02050,0.00695
3676.99024,0.00728
3675.95998,0.00738
3674.92972,0.00771
3673.89947,0.00805
3672.86921,0.00853
3671.83895,0.00944
3670.80869,0.01044
3669.77844,0.01120
3668.74818,0.01190
3667.71792,0.01201
3666.68766,0.01160
3665.65740,0.01130
3664.62715,0.01134
3663.59689,0.01151
3662.56663,0.01171
3661.53637,0.01225
3660.50611,0.01282
3659.47586,0.01279
3658.44560,0.01264
3657.41534,0.01294
3656.38508,0.01364
3655.35483,0.01476
3654.32457,0.01567
3653.29431,0.01580
3652.26405,0.01558
3651.23379,0.01603
3650.20354,0.01730
3649.17328,0.01816
3648.14302,0.01856
3647.11276,0.01874
3646.08250,0.01848
3645.05225,0.01850
3644.02199,0.01898
3642.99173,0.01933
3641.96147,0.01991
3640.93122,0.02091
3639.90096,0.02152
3638.87070,0.02183
3637.84044,0.02242
3636.81018,0.02317
3635.77993,0.02357
3634.74967,0.02422
3633.71941,0.02528
3632.68915,0.02565
3631.65890,0.02587
3630.62864,0.02660
3629.59838,0.02707
3628.56812,0.02733
3627.53786,0.02820
3626.50761,0.02915
3625.47735,0.02989
3624.44709,0.03057
3623.41683,0.03116
3622.38657,0.03153
3621.35632,0.03184
3620.32606,0.03210
3619.29580,0.03257
3618.26554,0.03335
3617.23529,0.03374
3616.20503,0.03394
3615.17477,0.03451
3614.14451,0.03527
3613.11425,0.03629
3612.08400,0.03769
3611.05374,0.03880
3610.02348,0.03961
3608.99322,0.04038
3607.96296,0.04101
3606.93271,0.04134
3605.90245,0.04158
3604.87219,0.04228
3603.84193,0.04324
3602.81168,0.04398
3601.78142,0.04486
3600.75116,0.04584
3599.72090,0.04642
3598.69064,0.04702
3597.66039,0.04818
3596.63013,0.04968
3595.59987,0.05076
3594.56961,0.05104
3593.53936,0.05133
3592.50910,0.05218
3591.47884,0.05338
3590.44858,0.05471
3589.41832,0.05603
3588.38807,0.05689
3587.35781,0.05680
3586.32755,0.05661
3585.29729,0.05758
3584.26703,0.05924
3583.23678,0.06048
3582.20652,0.06107
3581.17626,0.06180
3580.14600,0.06299
3579.11575,0.06401
3578.08549,0.06497
3577.05523,0.06599
3576.02497,0.06678
3574.99471,0.06781
3573.96446,0.06890
3572.93420,0.06931
3571.90394,0.06960
3570.87368,0.07052
3569.84342,0.07172
3568.81317,0.07290
3567.78291,0.07378
3566.75265,0.07408
3565.72239,0.07485
3564.69214,0.07634
3563.66188,0.07740
3562.63162,0.07776
3561.60136,0.07832
3560.57110,0.07937
3559.54085,0.08038
3558.51059,0.08119
3557.48033,0.08198
3556.45007,0.08283
3555.41981,0.08377
3554.38956,0.08468
3553.35930,0.08542
3552.32904,0.08628
3551.29878,0.08731
3550.26853,0.08827
3549.23827,0.08935
3548.20801,0.09053
3547.17775,0.09122
3546.14749,0.09153
3545.11724,0.09185
3544.08698,0.09220
3543.05672,0.09317
3542.02646,0.09469
3540.99621,0.09600
3539.96595,0.09669
3538.93569,0.09688
3537.90543,0.09722
3536.87517,0.09786
3535.84492,0.09826
3534.81466,0.09879
3533.78440,0.09976
3532.75414,0.10046
3531.72388,0.10095
3530.69363,0.10167
3529.66337,0.10254
3528.63311,0.10325
3527.60285,0.10392
3526.57260,0.10467
3525.54234,0.10505
3524.51208,0.10534
3523.48182,0.10601
3522.45156,0.10679
3521.42131,0.10728
3520.39105,0.10774
3519.36079,0.10839
3518.33053,0.10895
3517.30027,0.10934
3516.27002,0.10971
3515.23976,0.11023
3514.20950,0.11125
3513.17924,0.11261
3512.14899,0.11352
3511.11873,0.11389
3510.08847,0.11411
3509.05821,0.11411
3508.02795,0.11402
3506.99770,0.11436
3505.96744,0.11503
3504.93718,0.11582
3503.90692,0.11674
3502.87666,0.11730
3501.84641,0.11740
3500.81615,0.11770
3499.78589,0.11822
3498.75563,0.11872
3497.72538,0.11925
3496.69512,0.11965
3495.66486,0.12007
3494.63460,0.12075
3493.60434,0.12119
3492.57409,0.12089
3491.54383,0.12056
3490.51357,0.12112
3489.48331,0.12204
3488.45306,0.12255
3487.42280,0.12286
3486.39254,0.12329
3485.36228,0.12370
3484.33202,0.12407
3483.30177,0.12437
3482.27151,0.12442
3481.24125,0.12441
3480.21099,0.12472
3479.18073,0.12537
3478.15048,0.12625
3477.12022,0.12741
3476.08996,0.12823
3475.05970,0.12802
3474.02945,0.12736
3472.99919,0.12692
3471.96893,0.12687
3470.93867,0.12707
3469.90841,0.12732
3468.87816,0.12772
3467.84790,0.12821
3466.81764,0.12849
3465.78738,0.12855
3464.75712,0.12879
3463.72687,0.12920
3462.69661,0.12959
3461.66635,0.13006
3460.63609,0.13051
3459.60584,0.13081
3458.57558,0.13121
3457.54532,0.13194
3456.51506,0.13258
3455.48480,0.13265
3454.45455,0.13227
3453.42429,0.13202
3452.39403,0.13246
3451.36377,0.13316
3450.33351,0.13369
3449.30326,0.13423
3448.27300,0.13454
3447.24274,0.13426
3446.21248,0.13409
3445.18223,0.13475
3444.15197,0.13558
3443.12171,0.13587
3442.09145,0.13559
3441.06119,0.13521
3440.03094,0.13516
3439.00068,0.13512
3437.97042,0.13508
3436.94016,0.13535
3435.90991,0.13606
3434.87965,0.13677
3433.84939,0.13706
3432.81913,0.13705
3431.78887,0.13689
3430.75862,0.13686
3429.72836,0.13750
3428.69810,0.13857
3427.66784,0.13925
3426.63758,0.13936
3425.60733,0.13922
3424.57707,0.13899
3423.54681,0.13865
3422.51655,0.13861
3421.48630,0.13888
3420.45604,0.13897
3419.42578,0.13906
3418.39552,0.13906
3417.36526,0.13869
3416.33501,0.13864
3415.30475,0.13904
3414.27449,0.13926
3413.24423,0.13924
3412.21397,0.13922
3411.18372,0.13933
3410.15346,0.13952
3409.12320,0.13978
3408.09294,0.13996
3407.06269,0.13955
3406.03243,0.13885
3405.00217,0.13869
3403.97191,0.13897
3402.94165,0.13924
3401.91140,0.13938
3400.88114,0.13940
3399.85088,0.13939
3398.82062,0.13917
3397.79036,0.13897
3396.76011,0.13906
3395.72985,0.13866
3394.69959,0.13785
3393.66933,0.13744
3392.63908,0.13738
3391.60882,0.13731
3390.57856,0.13718
3389.54830,0.13698
3388.51804,0.13701
3387.48779,0.13732
3386.45753,0.13717
3385.42727,0.13680
3384.39701,0.13672
3383.36676,0.13657
3382.33650,0.13597
3381.30624,0.13535
3380.27598,0.13503
3379.24572,0.13469
3378.21547,0.13437
3377.18521,0.13410
3376.15495,0.13388
3375.12469,0.13380
3374.09443,0.13373
3373.06418,0.13356
3372.03392,0.13291
3371.00366,0.13168
3369.97340,0.13081
3368.94315,0.13064
3367.91289,0.13073
3366.88263,0.13074
3365.85237,0.13037
3364.82211,0.12981
3363.79186,0.12944
3362.76160,0.12952
3361.73134,0.12964
3360.70108,0.12903
3359.67082,0.12811
3358.64057,0.12753
3357.61031,0.12709
3356.58005,0.12686
3355.54979,0.12710
3354.51954,0.12728
3353.48928,0.12660
3352.45902,0.12519
3351.42876,0.12413
3350.39850,0.12381
3349.36825,0.12374
3348.33799,0.12356
3347.30773,0.12340
3346.27747,0.12332
3345.24721,0.12295
3344.21696,0.12253
3343.18670,0.12222
3342.15644,0.12156
3341.12618,0.12070
3340.09593,0.12007
3339.06567,0.11961
3338.03541,0.11910
3337.00515,0.11836
3335.97489,0.11764
3334.94464,0.11742
3333.91438,0.11771
3332.88412,0.11809
3331.85386,0.11797
3330.82361,0.11728
3329.79335,0.11648
3328.76309,0.11594
3327.73283,0.11566
3326.70257,0.11539
3325.67232,0.11499
3324.64206,0.11460
3323.61180,0.11466
3322.58154,0.11495
3321.55128,0.11479
3320.52103,0.11422
3319.49077,0.11369
3318.46051,0.11313
3317.43025,0.11275
3316.40000,0.11285
3315.36974,0.11312
3314.33948,0.11288
3313.30922,0.11215
3312.27896,0.11161
3311.24871,0.11154
3310.21845,0.11132
3309.18819,0.11063
3308.15793,0.11012
3307.12767,0.10986
3306.09742,0.10988
3305.06716,0.11032
3304.03690,0.11051
3303.00664,0.11038
3301.97639,0.11044
3300.94613,0.11027
3299.91587,0.10939
3298.88561,0.10880
3297.85535,0.10901
3296.82510,0.10898
3295.79484,0.10842
3294.76458,0.10806
3293.73432,0.10807
3292.70406,0.10822
3291.67381,0.10820
3290.64355,0.10791
3289.61329,0.10778
3288.58303,0.10790
3287.55278,0.10760
3286.52252,0.10710
3285.49226,0.10723
3284.46200,0.10757
3283.43174,0.10717
3282.40149,0.10634
3281.37123,0.10595
3280.34097,0.10586
3279.31071,0.10591
3278.28046,0.10603
3277.25020,0.10565
3276.21994,0.10510
3275.18968,0.10493
3274.15942,0.10453
3273.12917,0.10390
3272.09891,0.10366
3271.06865,0.10328
3270.03839,0.10255
3269.00813,0.10248
3267.97788,0.10313
3266.94762,0.10347
3265.91736,0.10325
3264.88710,0.10275
3263.85685,0.10223
3262.82659,0.10210
3261.79633,0.10200
3260.76607,0.10153
3259.73581,0.10122
3258.70556,0.10130
3257.67530,0.10167
3256.64504,0.10187
3255.61478,0.10138
3254.58452,0.10065
3253.55427,0.10033
3252.52401,0.10031
3251.49375,0.10003
3250.46349,0.09919
3249.43324,0.09842
3248.40298,0.09839
3247.37272,0.09855
3246.34246,0.09806
3245.31220,0.09728
3244.28195,0.09678
3243.25169,0.09617
3242.22143,0.09537
3241.19117,0.09497
3240.16092,0.09470
3239.13066,0.09400
3238.10040,0.09347
3237.07014,0.09343
3236.03988,0.09326
3235.00963,0.09279
3233.97937,0.09218
3232.94911,0.09168
3231.91885,0.09149
3230.88859,0.09133
3229.85834,0.09084
3228.82808,0.09038
3227.79782,0.09050
3226.76756,0.09056
3225.73731,0.08984
3224.70705,0.08881
3223.67679,0.08773
3222.64653,0.08692
3221.61627,0.08702
3220.58602,0.08731
3219.55576,0.08689
3218.52550,0.08613
3217.49524,0.08566
3216.46498,0.08520
3215.43473,0.08450
3214.40447,0.08409
3213.37421,0.08370
3212.34395,0.08299
3211.31370,0.08251
3210.28344,0.08236
3209.25318,0.08207
3208.22292,0.08147
3207.19266,0.08090
3206.16241,0.08074
3205.13215,0.08068
3204.10189,0.08028
3203.07163,0.07968
3202.04137,0.07877
3201.01112,0.07763
3199.98086,0.07665
3198.95060,0.07602
3197.92034,0.07586
3196.89009,0.07607
3195.85983,0.07621
3194.82957,0.07586
3193.79931,0.07508
3192.76905,0.07427
3191.73880,0.07348
3190.70854,0.07289
3189.67828,0.07259
3188.64802,0.07209
3187.61777,0.07152
3186.58751,0.07142
3185.55725,0.07130
3184.52699,0.07082
3183.49673,0.07031
3182.46648,0.06977
3181.43622,0.06917
3180.40596,0.06887
3179.37570,0.06883
3178.34544,0.06826
3177.31519,0.06701
3176.28493,0.06593
3175.25467,0.06551
3174.22441,0.06549
3173.19416,0.06539
3172.16390,0.06530
3171.13364,0.06539
3170.10338,0.06521
3169.07312,0.06449
3168.04287,0.06359
3167.01261,0.06286
3165.98235,0.06222
3164.95209,0.06187
3163.92183,0.06182
3162.89158,0.06158
3161.86132,0.06120
3160.83106,0.06084
3159.80080,0.06021
3158.77055,0.05948
3157.74029,0.05933
3156.71003,0.05941
3155.67977,0.05899
3154.64951,0.05840
3153.61926,0.05802
3152.58900,0.05763
3151.55874,0.05727
3150.52848,0.05705
3149.49822,0.05672
3148.46797,0.05607
3147.43771,0.05544
3146.40745,0.05510
3145.37719,0.05461
3144.34694,0.05398
3143.31668,0.05387
3142.28642,0.05422
3141.25616,0.05448
3140.22590,0.05429
3139.19565,0.05364
3138.16539,0.05292
3137.13513,0.05242
3136.10487,0.05197
3135.07462,0.05143
3134.04436,0.05090
3133.01410,0.05079
3131.98384,0.05089
3130.95358,0.05054
3129.92333,0.04998
3128.89307,0.04977
3127.86281,0.04980
3126.83255,0.04963
3125.80229,0.04907
3124.77204,0.04844
3123.74178,0.04813
3122.71152,0.04807
3121.68126,0.04789
3120.65101,0.04761
3119.62075,0.04751
3118.59049,0.04731
3117.56023,0.04688
3116.52997,0.04652
3115.49972,0.04615
3114.46946,0.04574
3113.43920,0.04557
3112.40894,0.04530
3111.37868,0.04472
3110.34843,0.04434
3109.31817,0.04423
3108.28791,0.04412
3107.25765,0.04401
3106.22740,0.04390
3105.19714,0.04351
3104.16688,0.04311
3103.13662,0.04314
3102.10636,0.04320
3101.07611,0.04304
3100.04585,0.04292
3099.01559,0.04277
3097.98533,0.04230
3096.95507,0.04181
3095.92482,0.04138
3094.89456,0.04078
3093.86430,0.04021
3092.83404,0.04004
3091.80379,0.04027
3090.77353,0.04047
3089.74327,0.04036
3088.71301,0.03995
3087.68275,0.03950
3086.65250,0.03924
3085.62224,0.03906
3084.59198,0.03885
3083.56172,0.03885
3082.53147,0.03888
3081.50121,0.03871
3080.47095,0.03834
3079.44069,0.03773
3078.41043,0.03738
3077.38018,0.03759
3076.34992,0.03759
3075.31966,0.03704
3074.28940,0.03650
3073.25914,0.03614
3072.22889,0.03602
3071.19863,0.03618
3070.16837,0.03627
3069.13811,0.03607
3068.10786,0.03571
3067.07760,0.03535
3066.04734,0.03510
3065.01708,0.03473
3063.98682,0.03417
3062.95657,0.03392
3061.92631,0.03404
3060.89605,0.03405
3059.86579,0.03391
3058.83553,0.03385
3057.80528,0.03382
3056.77502,0.03378
3055.74476,0.03378
3054.71450,0.03368
3053.68425,0.03353
3052.65399,0.03341
3051.62373,0.03330
3050.59347,0.03318
3049.56321,0.03290
3048.53296,0.03248
3047.50270,0.03223
3046.47244,0.03210
3045.44218,0.03179
3044.41192,0.03149
3043.38167,0.03149
3042.35141,0.03168
3041.32115,0.03183
3040.29089,0.03174
3039.26064,0.03146
3038.23038,0.03127
3037.20012,0.03125
3036.16986,0.03130
3035.13960,0.03111
3034.10935,0.03056
3033.07909,0.03022
3032.04883,0.03018
3031.01857,0.03003
3029.98832,0.03011
3028.95806,0.03044
3027.92780,0.03046
3026.89754,0.03034
3025.86728,0.03033
3024.83703,0.03019
3023.80677,0.02985
3022.77651,0.02940
3021.74625,0.02910
3020.71599,0.02912
3019.68574,0.02914
3018.65548,0.02884
3017.62522,0.02851
3016.59496,0.02843
3015.56471,0.02843
3014.53445,0.02843
3013.50419,0.02838
3012.47393,0.02804
3011.44367,0.02763
3010.41342,0.02738
3009.38316,0.02748
3008.35290,0.02797
3007.32264,0.02828
3006.29238,0.02797
3005.26213,0.02740
3004.23187,0.02686
3003.20161,0.02664
3002.17135,0.02690
3001.14110,0.02726
3000.11084,0.02755
2999.08058,0.02790
2998.05032,0.02814
2997.02006,0.02798
2995.98981,0.02740
2994.95955,0.02700
2993.92929,0.02712
2992.89903,0.02735
2991.86877,0.02786
2990.83852,0.02884
2989.80826,0.02948
2988.77800,0.02953
2987.74774,0.02961
2986.71749,0.02977
2985.68723,0.03004
2984.65697,0.03071
2983.62671,0.03142
2982.59645,0.03213
2981.56620,0.03312
2980.53594,0.03408
2979.50568,0.03472
2978.47542,0.03541
2977.44517,0.03670
2976.41491,0.03833
2975.38465,0.03968
2974.35439,0.04062
2973.32413,0.04162
2972.29388,0.04301
2971.26362,0.04449
2970.23336,0.04569
2969.20310,0.04681
2968.17284,0.04822
2967.14259,0.04992
2966.11233,0.05168
2965.08207,0.05346
2964.05181,0.05511
2963.02156,0.05656
2961.99130,0.05825
2960.96104,0.06029
2959.93078,0.06210
2958.90052,0.06333
2957.87027,0.06428
2956.84001,0.06544
2955.80975,0.06695
2954.77949,0.06856
2953.74923,0.06998
2952.71898,0.07131
2951.68872,0.07263
2950.65846,0.07398
2949.62820,0.07530
2948.59795,0.07629
2947.56769,0.07708
2946.53743,0.07797
2945.50717,0.07850
2944.47691,0.07871
2943.44666,0.07932
2942.41640,0.08031
2941.38614,0.08129
2940.35588,0.08215
2939.32562,0.08294
2938.29537,0.08371
2937.26511,0.08447
2936.23485,0.08507
2935.20459,0.08558
2934.17434,0.08632
2933.14408,0.08719
2932.11382,0.08819
2931.08356,0.08933
2930.05330,0.09018
2929.02305,0.09068
2927.99279,0.09141
2926.96253,0.09278
2925.93227,0.09447
2924.90202,0.09589
2923.87176,0.09683
2922.84150,0.09764
2921.81124,0.09887
2920.78098,0.10034
2919.75073,0.10169
2918.72047,0.10287
2917.69021,0.10401
2916.65995,0.10527
2915.62969,0.10640
2914.59944,0.10710
2913.56918,0.10750
2912.53892,0.10787
2911.50866,0.10824
2910.47841,0.10868
2909.44815,0.10935
2908.41789,0.11000
2907.38763,0.11043
2906.35737,0.11097
2905.32712,0.11158
2904.29686,0.11203
2903.26660,0.11250
2902.23634,0.11315
2901.20608,0.11358
2900.17583,0.11384
2899.14557,0.11427
2898.11531,0.11481
2897.08505,0.11555
2896.05480,0.11656
2895.02454,0.11748
2893.99428,0.11808
2892.96402,0.11846
2891.93376,0.11885
2890.90351,0.11932
2889.87325,0.11993
2888.84299,0.12080
2887.81273,0.12195
2886.78247,0.12316
2885.75222,0.12449
2884.72196,0.12617
2883.69170,0.12781
2882.66144,0.12885
2881.63119,0.12984
2880.60093,0.13115
2879.57067,0.13240
2878.54041,0.13356
2877.51015,0.13473
2876.47990,0.13577
2875.44964,0.13647
2874.41938,0.13684
2873.38912,0.13723
2872.35887,0.13763
2871.32861,0.13773
2870.29835,0.13753
2869.26809,0.13707
2868.23783,0.13632
2867.20758,0.13529
2866.17732,0.13399
2865.14706,0.13257
2864.11680,0.13104
2863.08654,0.12920
2862.05629,0.12681
2861.02603,0.12401
2859.99577,0.12128
2858.96551,0.11839
2857.93526,0.11492
2856.90500,0.11152
2855.87474,0.10874
2854.84448,0.10586
2853.81422,0.10237
2852.78397,0.09889
2851.75371,0.09567
2850.72345,0.09246
2849.69319,0.08943
2848.66293,0.08671
2847.63268,0.08408
2846.60242,0.08128
2845.57216,0.07852
2844.54190,0.07608
2843.51165,0.07388
2842.48139,0.07194
2841.45113,0.07025
2840.42087,0.06845
2839.39061,0.06631
2838.36036,0.06415
2837.33010,0.06243
2836.29984,0.06112
2835.26958,0.05974
2834.23933,0.05831
2833.20907,0.05734
2832.17881,0.05651
2831.14855,0.05530
2830.11829,0.05406
2829.08804,0.05300
2828.05778,0.05201
2827.02752,0.05138
2825.99726,0.05096
2824.96700,0.05019
2823.93675,0.04919
2822.90649,0.04837
2821.87623,0.04785
2820.84597,0.04753
2819.81572,0.04694
2818.78546,0.04588
2817.75520,0.04490
2816.72494,0.04420
2815.69468,0.04331
2814.66443,0.04240
2813.63417,0.04189
2812.60391,0.04143
2811.57365,0.04084
2810.54339,0.04032
2809.51314,0.03982
2808.48288,0.03925
2807.45262,0.03856
2806.42236,0.03775
2805.39211,0.03700
2804.36185,0.03634
2803.33159,0.03563
2802.30133,0.03480
2801.27107,0.03399
2800.24082,0.03349
2799.21056,0.03323
2798.18030,0.03295
2797.15004,0.03264
2796.11978,0.03217
2795.08953,0.03153
2794.05927,0.03099
2793.02901,0.03058
2791.99875,0.03009
2790.96850,0.02938
2789.93824,0.02878
2788.90798,0.02867
2787.87772,0.02868
2786.84746,0.02830
2785.81721,0.02764
2784.78695,0.02703
2783.75669,0.02669
2782.72643,0.02656
2781.69618,0.02622
2780.66592,0.02573
2779.63566,0.02541
2778.60540,0.02509
2777.57514,0.02470
2776.54489,0.02441
2775.51463,0.02419
2774.48437,0.02402
2773.45411,0.02382
2772.42385,0.02359
2771.39360,0.02342
2770.36334,0.02330
2769.33308,0.02302
2768.30282,0.02250
2767.27257,0.02236
2766.24231,0.02269
2765.21205,0.02259
2764.18179,0.02200
2763.15153,0.02168
2762.12128,0.02167
2761.09102,0.02155
2760.06076,0.02129
2759.03050,0.02111
2758.00024,0.02109
2756.96999,0.02116
2755.93973,0.02121
2754.90947,0.02125
2753.87921,0.02121
2752.84896,0.02102
2751.81870,0.02074
2750.78844,0.02043
2749.75818,0.02029
2748.72792,0.02042
2747.69767,0.02059
2746.66741,0.02072
2745.63715,0.02082
2744.60689,0.02066
2743.57663,0.02017
2742.54638,0.01974
2741.51612,0.01973
2740.48586,0.01982
2739.45560,0.01975
2738.42535,0.01961
2737.39509,0.01956
2736.36483,0.01955
2735.33457,0.01936
2734.30431,0.01911
2733.27406,0.01896
2732.24380,0.01892
2731.21354,0.01885
2730.18328,0.01849
2729.15303,0.01803
2728.12277,0.01790
2727.09251,0.01801
2726.06225,0.01803
2725.03199,0.01776
2724.00174,0.01737
2722.97148,0.01724
2721.94122,0.01730
2720.91096,0.01721
2719.88070,0.01708
2718.85045,0.01698
2717.82019,0.01682
2716.78993,0.01658
2715.75967,0.01626
2714.72942,0.01608
2713.69916,0.01611
2712.66890,0.01601
2711.63864,0.01582
2710.60838,0.01570
2709.57813,0.01551
2708.54787,0.01514
2707.51761,0.01484
2706.48735,0.01483
2705.45709,0.01487
2704.42684,0.01464
2703.39658,0.01433
2702.36632,0.01433
2701.33606,0.01443
2700.30581,0.01425
2699.27555,0.01409
2698.24529,0.01409
2697.21503,0.01391
2696.18477,0.01359
2695.15452,0.01345
2694.12426,0.01335
2693.09400,0.01301
2692.06374,0.01263
2691.03348,0.01243
2690.00323,0.01223
2688.97297,0.01192
2687.94271,0.01162
2686.91245,0.01140
2685.88220,0.01141
2684.85194,0.01155
2683.82168,0.01147
2682.79142,0.01126
2681.76116,0.01127
2680.73091,0.01129
2679.70065,0.01100
2678.67039,0.01068
2677.64013,0.01043
2676.60988,0.01022
2675.57962,0.01005
2674.54936,0.00984
2673.51910,0.00971
2672.48884,0.00980
2671.45859,0.00995
2670.42833,0.00997
2669.39807,0.00981
2668.36781,0.00959
2667.33755,0.00938
2666.30730,0.00924
2665.27704,0.00914
2664.24678,0.00897
2663.21652,0.00884
2662.18627,0.00886
2661.15601,0.00889
2660.12575,0.00892
2659.09549,0.00902
2658.06523,0.00905
2657.03498,0.00891
2656.00472,0.00868
2654.97446,0.00851
2653.94420,0.00854
2652.91394,0.00874
2651.88369,0.00887
2650.85343,0.00879
2649.82317,0.00852
2648.79291,0.00821
2647.76266,0.00804
2646.73240,0.00798
2645.70214,0.00801
2644.67188,0.00814
2643.64162,0.00805
2642.61137,0.00781
2641.58111,0.00775
2640.55085,0.00780
2639.52059,0.00791
2638.49033,0.00790
2637.46008,0.00766
2636.42982,0.00746
2635.39956,0.00748
2634.36930,0.00765
2633.33905,0.00785
2632.30879,0.00778
2631.27853,0.00756
2630.24827,0.00755
2629.21801,0.00753
2628.18776,0.00750
2627.15750,0.00749
2626.12724,0.00721
2625.09698,0.00701
2624.06673,0.00712
2623.03647,0.00735
2622.00621,0.00751
2620.97595,0.00737
2619.94569,0.00718
2618.91544,0.00711
2617.88518,0.00718
2616.85492,0.00741
2615.82466,0.00729
2614.79440,0.00673
2613.76415,0.00642
2612.73389,0.00656
2611.70363,0.00675
2610.67337,0.00674
2609.64312,0.00650
2608.61286,0.00613
2607.58260,0.00603
2606.55234,0.00647
2605.52208,0.00691
2604.49183,0.00705
2603.46157,0.00695
2602.43131,0.00669
2601.40105,0.00647
2600.37079,0.00630
2599.34054,0.00626
2598.31028,0.00627
2597.28002,0.00603
2596.24976,0.00572
2595.21951,0.00581
2594.18925,0.00624
2593.15899,0.00644
2592.12873,0.00633
2591.09847,0.00625
2590.06822,0.00618
2589.03796,0.00617
2588.00770,0.00642
2586.97744,0.00657
2585.94718,0.00653
2584.91693,0.00662
2583.88667,0.00657
2582.85641,0.00623
2581.82615,0.00598
2580.79590,0.00570
2579.76564,0.00536
2578.73538,0.00538
2577.70512,0.00562
2576.67486,0.00603
2575.64461,0.00646
2574.61435,0.00660
2573.58409,0.00679
2572.55383,0.00679
2571.52358,0.00596
2570.49332,0.00523
2569.46306,0.00525
2568.43280,0.00539
2567.40254,0.00539
2566.37229,0.00542
2565.34203,0.00559
2564.31177,0.00571
2563.28151,0.00547
2562.25125,0.00529
2561.22100,0.00548
2560.19074,0.00573
2559.16048,0.00596
2558.13022,0.00617
2557.09997,0.00614
2556.06971,0.00604
2555.03945,0.00593
2554.00919,0.00531
2552.97893,0.00473
2551.94868,0.00509
2550.91842,0.00570
2549.88816,0.00565
2548.85790,0.00498
2547.82764,0.00440
2546.79739,0.00488
2545.76713,0.00567
2544.73687,0.00543
2543.70661,0.00497
2542.67636,0.00525
2541.64610,0.00563
2540.61584,0.00557
2539.58558,0.00537
2538.55532,0.00532
2537.52507,0.00535
2536.49481,0.00525
2535.46455,0.00501
2534.43429,0.00492
2533.40403,0.00504
2532.37378,0.00542
2531.34352,0.00587
2530.31326,0.00574
2529.28300,0.00512
2528.25275,0.00486
2527.22249,0.00497
2526.19223,0.00504
2525.16197,0.00504
2524.13171,0.00504
2523.10146,0.00470
2522.07120,0.00435
2521.04094,0.00496
2520.01068,0.00570
2518.98043,0.00561
2517.95017,0.00539
2516.91991,0.00558
2515.88965,0.00566
2514.85939,0.00556
2513.82914,0.00599
2512.79888,0.00629
2511.76862,0.00565
2510.73836,0.00487
2509.70810,0.00479
2508.67785,0.00524
2507.64759,0.00533
2506.61733,0.00496
2505.58707,0.00485
2504.55682,0.00490
2503.52656,0.00469
2502.49630,0.00466
2501.46604,0.00501
2500.43578,0.00512
2499.40553,0.00481
2498.37527,0.00468
2497.34501,0.00481
2496.31475,0.00484
2495.28449,0.00500
2494.25424,0.00523
2493.22398,0.00524
2492.19372,0.00521
2491.16346,0.00528
2490.13321,0.00515
2489.10295,0.00495
2488.07269,0.00506
2487.04243,0.00519
2486.01217,0.00496
2484.98192,0.00458
2483.95166,0.00453
2482.92140,0.00492
2481.89114,0.00523
2480.86088,0.00521
2479.83063,0.00536
2478.80037,0.00541
2477.77011,0.00478
2476.73985,0.00426
2475.70960,0.00419
2474.67934,0.00407
2473.64908,0.00393
2472.61882,0.00410
2471.58856,0.00427
2470.55831,0.00402
2469.52805,0.00415
2468.49779,0.00481
2467.46753,0.00486
2466.43728,0.00468
2465.40702,0.00517
2464.37676,0.00537
2463.34650,0.00481
2462.31624,0.00433
2461.28599,0.00403
2460.25573,0.00366
2459.22547,0.00366
2458.19521,0.00430
2457.16495,0.00487
2456.13470,0.00498
2455.10444,0.00481
2454.07418,0.00436
2453.04392,0.00430
2452.01367,0.00501
2450.98341,0.00535
2449.95315,0.00485
2448.92289,0.00451
2447.89263,0.00463
2446.86238,0.00481
2445.83212,0.00498
2444.80186,0.00508
2443.77160,0.00504
2442.74134,0.00487
2441.71109,0.00446
2440.68083,0.00443
2439.65057,0.00509
2438.62031,0.00534
2437.59006,0.00496
2436.55980,0.00489
2435.52954,0.00515
2434.49928,0.00525
2433.46902,0.00513
2432.43877,0.00504
2431.40851,0.00488
2430.37825,0.00446
2429.34799,0.00421
2428.31774,0.00431
2427.28748,0.00468
2426.25722,0.00538
2425.22696,0.00594
2424.19670,0.00598
2423.16645,0.00582
2422.13619,0.00540
2421.10593,0.00451
2420.07567,0.00406
2419.04541,0.00450
2418.01516,0.00496
2416.98490,0.00514
2415.95464,0.00516
2414.92438,0.00503
2413.89413,0.00507
2412.86387,0.00546
2411.83361,0.00582
2410.80335,0.00564
2409.77309,0.00499
2408.74284,0.00438
2407.71258,0.00443
2406.68232,0.00514
2405.65206,0.00541
2404.62180,0.00505
2403.59155,0.00486
2402.56129,0.00463
2401.53103,0.00426
2400.50077,0.00425
2399.47052,0.00463
2398.44026,0.00489
2397.41000,0.00484
2396.37974,0.00476
2395.34948,0.00484
2394.31923,0.00506
2393.28897,0.00521
2392.25871,0.00515
2391.22845,0.00532
2390.19819,0.00561
2389.16794,0.00555
2388.13768,0.00545
2387.10742,0.00543
2386.07716,0.00523
2385.04691,0.00491
2384.01665,0.00490
2382.98639,0.00519
2381.95613,0.00518
2380.92587,0.00489
2379.89562,0.00482
2378.86536,0.00526
2377.83510,0.00587
2376.80484,0.00631
2375.77459,0.00650
2374.74433,0.00647
2373.71407,0.00650
2372.68381,0.00649
2371.65355,0.00639
2370.62330,0.00656
2369.59304,0.00691
2368.56278,0.00693
2367.53252,0.00648
2366.50226,0.00600
2365.47201,0.00609
2364.44175,0.00676
2363.41149,0.00746
2362.38123,0.00850
2361.35098,0.00954
2360.32072,0.00917
2359.29046,0.00809
2358.26020,0.00744
2357.22994,0.00678
2356.19969,0.00637
2355.16943,0.00659
2354.13917,0.00721
2353.10891,0.00779
2352.07865,0.00751
2351.04840,0.00638
2350.01814,0.00539
2348.98788,0.00497
2347.95762,0.00516
2346.92737,0.00607
2345.89711,0.00681
2344.86685,0.00668
2343.83659,0.00656
2342.80633,0.00673
2341.77608,0.00681
2340.74582,0.00669
2339.71556,0.00665
2338.68530,0.00701
2337.65504,0.00701
2336.62479,0.00617
2335.59453,0.00586
2334.56427,0.00651
2333.53401,0.00687
2332.50376,0.00698
2331.47350,0.00731
2330.44324,0.00757
2329.41298,0.00789
2328.38272,0.00822
2327.35247,0.00815
2326.32221,0.00770
2325.29195,0.00699
2324.26169,0.00617
2323.23144,0.00574
2322.20118,0.00586
2321.17092,0.00627
2320.14066,0.00657
2319.11040,0.00680
2318.08015,0.00707
2317.04989,0.00720
2316.01963,0.00725
2314.98937,0.00698
2313.95911,0.00627
2312.92886,0.00562
2311.89860,0.00513
2310.86834,0.00470
2309.83808,0.00473
2308.80783,0.00523
2307.77757,0.00549
2306.74731,0.00541
2305.71705,0.00570
2304.68679,0.00633
2303.65654,0.00640
2302.62628,0.00585
2301.59602,0.00541
2300.56576,0.00529
2299.53550,0.00542
2298.50525,0.00571
2297.47499,0.00596
2296.44473,0.00583
2295.41447,0.00570
2294.38422,0.00603
2293.35396,0.00607
2292.32370,0.00567
2291.29344,0.00547
2290.26318,0.00556
2289.23293,0.00579
2288.20267,0.00607
2287.17241,0.00649
2286.14215,0.00708
2285.11189,0.00737
2284.08164,0.00687
2283.05138,0.00617
2282.02112,0.00605
2280.99086,0.00633
2279.96061,0.00631
2278.93035,0.00557
2277.90009,0.00448
2276.86983,0.00381
2275.83957,0.00437
2274.80932,0.00573
2273.77906,0.00610
2272.74880,0.00537
2271.71854,0.00518
2270.68829,0.00583
2269.65803,0.00607
2268.62777,0.00576
2267.59751,0.00561
2266.56725,0.00539
2265.53700,0.00508
2264.50674,0.00502
2263.47648,0.00508
2262.44622,0.00503
2261.41596,0.00518
2260.38571,0.00582
2259.35545,0.00651
2258.32519,0.00682
2257.29493,0.00665
2256.26468,0.00618
2255.23442,0.00578
2254.20416,0.00579
2253.17390,0.00599
2252.14364,0.00588
2251.11339,0.00583
2250.08313,0.00639
2249.05287,0.00723
2248.02261,0.00739
2246.99235,0.00635
2245.96210,0.00484
2244.93184,0.00422
2243.90158,0.00417
2242.87132,0.00439
2241.84107,0.00593
2240.81081,0.00708
2239.78055,0.00643
2238.75029,0.00587
2237.72003,0.00648
2236.68978,0.00741
2235.65952,0.00780
2234.62926,0.00714
2233.59900,0.00588
2232.56874,0.00515
2231.53849,0.00528
2230.50823,0.00570
2229.47797,0.00571
2228.44771,0.00501
2227.41746,0.00443
2226.38720,0.00465
2225.35694,0.00450
2224.32668,0.00382
2223.29642,0.00346
2222.26617,0.00336
2221.23591,0.00412
2220.20565,0.00517
2219.17539,0.00496
2218.14514,0.00447
2217.11488,0.00447
2216.08462,0.00426
2215.05436,0.00442
2214.02410,0.00539
2212.99385,0.00552
2211.96359,0.00452
2210.93333,0.00482
2209.90307,0.00631
2208.87281,0.00631
2207.84256,0.00489
2206.81230,0.00343
2205.78204,0.00227
2204.75178,0.00197
2203.72153,0.00255
2202.69127,0.00364
2201.66101,0.00484
2200.63075,0.00531
2199.60049,0.00487
2198.57024,0.00393
2197.53998,0.00319
2196.50972,0.00315
2195.47946,0.00377
2194.44920,0.00460
2193.41895,0.00517
2192.38869,0.00523
2191.35843,0.00392
2190.32817,0.00204
2189.29792,0.00203
2188.26766,0.00409
2187.23740,0.00612
2186.20714,0.00671
2185.17688,0.00598
2184.14663,0.00445
2183.11637,0.00376
2182.08611,0.00409
2181.05585,0.00408
2180.02559,0.00436
2178.99534,0.00499
2177.96508,0.00524
2176.93482,0.00518
2175.90456,0.00476
2174.87431,0.00392
2173.84405,0.00281
2172.81379,0.00274
2171.78353,0.00392
2170.75327,0.00491
2169.72302,0.00530
2168.69276,0.00494
2167.66250,0.00391
2166.63224,0.00274
2165.60199,0.00197
2164.57173,0.00201
2163.54147,0.00260
2162.51121,0.00232
2161.48095,0.00140
2160.45070,0.00253
2159.42044,0.00533
2158.39018,0.00598
2157.35992,0.00504
2156.32966,0.00555
2155.29941,0.00572
2154.26915,0.00380
2153.23889,0.00280
2152.20863,0.00381
2151.17838,0.00409
2150.14812,0.00271
2149.11786,0.00108
2148.08760,0.00135
2147.05734,0.00398
2146.02709,0.00642
2144.99683,0.00704
2143.96657,0.00712
2142.93631,0.00724
2141.90605,0.00669
2140.87580,0.00662
2139.84554,0.00769
2138.81528,0.00870
2137.78502,0.00892
2136.75477,0.00826
2135.72451,0.00768
2134.69425,0.00760
2133.66399,0.00723
2132.63373,0.00752
2131.60348,0.00857
2130.57322,0.00829
2129.54296,0.00741
2128.51270,0.00779
2127.48244,0.00842
2126.45219,0.00812
2125.42193,0.00772
2124.39167,0.00804
2123.36141,0.00874
2122.33116,0.00906
2121.30090,0.00888
2120.27064,0.00869
2119.24038,0.00836
2118.21012,0.00834
2117.17987,0.00893
2116.14961,0.00911
2115.11935,0.00838
2114.08909,0.00721
2113.05884,0.00680
2112.02858,0.00741
2110.99832,0.00811
2109.96806,0.00838
2108.93780,0.00828
2107.90755,0.00848
2106.87729,0.00916
2105.84703,0.00943
2104.81677,0.00868
2103.78651,0.00800
2102.75626,0.00843
2101.72600,0.00900
2100.69574,0.00935
2099.66548,0.00987
2098.63523,0.00964
2097.60497,0.00845
2096.57471,0.00732
2095.54445,0.00720
2094.51419,0.00816
2093.48394,0.00896
2092.45368,0.00874
2091.42342,0.00824
2090.39316,0.00861
2089.36290,0.00961
2088.33265,0.01026
2087.30239,0.00974
2086.27213,0.00823
2085.24187,0.00712
2084.21162,0.00677
2083.18136,0.00733
2082.15110,0.00867
2081.12084,0.00936
2080.09058,0.00907
2079.06033,0.00813
2078.03007,0.00697
2076.99981,0.00715
2075.96955,0.00816
2074.93930,0.00821
2073.90904,0.00788
2072.87878,0.00796
2071.84852,0.00790
2070.81826,0.00681
2069.78801,0.00575
2068.75775,0.00680
2067.72749,0.00838
2066.69723,0.00826
2065.66697,0.00767
2064.63672,0.00764
2063.60646,0.00745
2062.57620,0.00682
2061.54594,0.00581
2060.51569,0.00506
2059.48543,0.00506
2058.45517,0.00532
2057.42491,0.00573
2056.39465,0.00606
2055.36440,0.00604
2054.33414,0.00632
2053.30388,0.00682
2052.27362,0.00635
2051.24336,0.00555
2050.21311,0.00640
2049.18285,0.00835
2048.15259,0.00864
2047.12233,0.00764
2046.09208,0.00742
2045.06182,0.00800
2044.03156,0.00989
2043.00130,0.01211
2041.97104,0.01144
2040.94079,0.00841
2039.91053,0.00619
2038.88027,0.00553
2037.85001,0.00532
2036.81975,0.00553
2035.78950,0.00712
2034.75924,0.00826
2033.72898,0.00708
2032.69872,0.00593
2031.66847,0.00590
2030.63821,0.00540
2029.60795,0.00396
2028.57769,0.00255
2027.54743,0.00208
2026.51718,0.00215
2025.48692,0.00314
2024.45666,0.00458
2023.42640,0.00489
2022.39615,0.00502
2021.36589,0.00545
2020.33563,0.00586
2019.30537,0.00612
2018.27511,0.00583
2017.24486,0.00567
2016.21460,0.00593
2015.18434,0.00630
2014.15408,0.00658
2013.12382,0.00737
2012.09357,0.00859
2011.06331,0.00896
2010.03305,0.00887
2009.00279,0.00913
2007.97254,0.00928
2006.94228,0.00773
2005.91202,0.00480
2004.88176,0.00413
2003.85150,0.00545
2002.82125,0.00442
2001.79099,0.00243
2000.76073,0.00387
1999.73047,0.00694
1998.70021,0.00852
1997.66996,0.00821
1996.63970,0.00691
1995.60944,0.00695
1994.57918,0.00815
1993.54893,0.00804
1992.51867,0.00658
1991.48841,0.00564
1990.45815,0.00591
1989.42789,0.00651
1988.39764,0.00743
1987.36738,0.00850
1986.33712,0.00850
1985.30686,0.00739
1984.27660,0.00629
1983.24635,0.00668
1982.21609,0.00856
1981.18583,0.00962
1980.15557,0.00927
1979.12532,0.00940
1978.09506,0.00921
1977.06480,0.00756
1976.03454,0.00721
1975.00428,0.00784
1973.97403,0.00641
1972.94377,0.00474
1971.91351,0.00525
1970.88325,0.00603
1969.85300,0.00588
1968.82274,0.00538
1967.79248,0.00582
1966.76222,0.00731
1965.73196,0.00812
1964.70171,0.00834
1963.67145,0.00792
1962.64119,0.00690
1961.61093,0.00692
1960.58067,0.00812
1959.55042,0.00895
1958.52016,0.00886
1957.48990,0.00761
1956.45964,0.00586
1955.42939,0.00557
1954.39913,0.00613
1953.36887,0.00646
1952.33861,0.00723
1951.30835,0.00790
1950.27810,0.00746
1949.24784,0.00673
1948.21758,0.00691
1947.18732,0.00817
1946.15706,0.00912
1945.12681,0.00865
1944.09655,0.00784
1943.06629,0.00768
1942.03603,0.00799
1941.00578,0.00877
1939.97552,0.00971
1938.94526,0.00974
1937.91500,0.00918
1936.88474,0.00883
1935.85449,0.00814
1934.82423,0.00715
1933.79397,0.00647
1932.76371,0.00656
1931.73345,0.00757
1930.70320,0.00842
1929.67294,0.00851
1928.64268,0.00878
1927.61242,0.00941
1926.58217,0.00956
1925.55191,0.00878
1924.52165,0.00752
1923.49139,0.00652
1922.46113,0.00655
1921.43088,0.00735
1920.40062,0.00770
1919.37036,0.00758
1918.34010,0.00687
1917.30985,0.00567
1916.27959,0.00532
1915.24933,0.00579
1914.21907,0.00601
1913.18881,0.00571
1912.15856,0.00549
1911.12830,0.00560
1910.09804,0.00609
1909.06778,0.00643
1908.03752,0.00595
1907.00727,0.00525
1905.97701,0.00509
1904.94675,0.00547
1903.91649,0.00603
1902.88624,0.00632
1901.85598,0.00610
1900.82572,0.00594
1899.79546,0.00601
1898.76520,0.00560
1897.73495,0.00502
1896.70469,0.00509
1895.67443,0.00538
1894.64417,0.00549
1893.61391,0.00557
1892.58366,0.00554
1891.55340,0.00552
1890.52314,0.00569
1889.49288,0.00580
1888.46263,0.00560
1887.43237,0.00538
1886.40211,0.00530
1885.37185,0.00519
1884.34159,0.00517
1883.31134,0.00539
1882.28108,0.00554
1881.25082,0.00518
1880.22056,0.00482
1879.19030,0.00495
1878.16005,0.00524
1877.12979,0.00545
1876.09953,0.00559
1875.06927,0.00559
1874.03902,0.00569
1873.00876,0.00605
1871.97850,0.00636
1870.94824,0.00634
1869.91798,0.00602
1868.88773,0.00531
1867.85747,0.00459
1866.82721,0.00451
1865.79695,0.00491
1864.76670,0.00527
1863.73644,0.00543
1862.70618,0.00543
1861.67592,0.00515
1860.64566,0.00476
1859.61541,0.00469
1858.58515,0.00479
1857.55489,0.00490
1856.52463,0.00512
1855.49437,0.00531
1854.46412,0.00519
1853.43386,0.00504
1852.40360,0.00514
1851.37334,0.00513
1850.34309,0.00519
1849.31283,0.00543
1848.28257,0.00543
1847.25231,0.00518
1846.22205,0.00514
1845.19180,0.00523
1844.16154,0.00496
1843.13128,0.00486
1842.10102,0.00519
1841.07076,0.00511
1840.04051,0.00467
1839.01025,0.00457
1837.97999,0.00482
1836.94973,0.00537
1835.91948,0.00590
1834.88922,0.00587
1833.85896,0.00543
1832.82870,0.00503
1831.79844,0.00478
1830.76819,0.00455
1829.73793,0.00444
1828.70767,0.00470
1827.67741,0.00528
1826.64715,0.00573
1825.61690,0.00571
1824.58664,0.00563
1823.55638,0.00574
1822.52612,0.00592
1821.49587,0.00614
1820.46561,0.00620
1819.43535,0.00611
1818.40509,0.00590
1817.37483,0.00558
1816.34458,0.00568
1815.31432,0.00612
1814.28406,0.00627
1813.25380,0.00611
1812.22355,0.00614
1811.19329,0.00639
1810.16303,0.00646
1809.13277,0.00622
1808.10251,0.00595
1807.07226,0.00605
1806.04200,0.00642
1805.01174,0.00675
1803.98148,0.00683
1802.95122,0.00663
1801.92097,0.00645
1800.89071,0.00652
1799.86045,0.00668
1798.83019,0.00665
1797.79994,0.00653
1796.76968,0.00686
1795.73942,0.00739
1794.70916,0.00723
1793.67890,0.00683
1792.64865,0.00690
1791.61839,0.00720
1790.58813,0.00742
1789.55787,0.00754
1788.52761,0.00749
1787.49736,0.00748
1786.46710,0.00753
1785.43684,0.00760
1784.40658,0.00767
1783.37633,0.00750
1782.34607,0.00740
1781.31581,0.00762
1780.28555,0.00789
1779.25529,0.00820
1778.22504,0.00861
1777.19478,0.00880
1776.16452,0.00856
1775.13426,0.00819
1774.10400,0.00800
1773.07375,0.00797
1772.04349,0.00818
1771.01323,0.00838
1769.98297,0.00843
1768.95272,0.00850
1767.92246,0.00855
1766.89220,0.00852
1765.86194,0.00847
1764.83168,0.00842
1763.80143,0.00853
1762.77117,0.00883
1761.74091,0.00908
1760.71065,0.00921
1759.68040,0.00956
1758.65014,0.01007
1757.61988,0.01026
1756.58962,0.01008
1755.55936,0.01001
1754.52911,0.01003
1753.49885,0.00999
1752.46859,0.00988
1751.43833,0.00960
1750.40807,0.00956
1749.37782,0.00999
1748.34756,0.01036
1747.31730,0.01040
1746.28704,0.01033
1745.25679,0.01060
1744.22653,0.01117
1743.19627,0.01139
1742.16601,0.01117
1741.13575,0.01111
1740.10550,0.01120
1739.07524,0.01133
1738.04498,0.01157
1737.01472,0.01175
1735.98446,0.01185
1734.95421,0.01212
1733.92395,0.01263
1732.89369,0.01281
1731.86343,0.01279
1730.83318,0.01282
1729.80292,0.01286
1728.77266,0.01310
1727.74240,0.01362
1726.71214,0.01415
1725.68189,0.01446
1724.65163,0.01485
1723.62137,0.01544
1722.59111,0.01586
1721.56085,0.01602
1720.53060,0.01629
1719.50034,0.01662
1718.47008,0.01661
1717.43982,0.01658
1716.40957,0.01698
1715.37931,0.01748
1714.34905,0.01783
1713.31879,0.01804
1712.28853,0.01836
1711.25828,0.01887
1710.22802,0.01938
1709.19776,0.01981
1708.16750,0.02020
1707.13725,0.02073
1706.10699,0.02151
1705.07673,0.02220
1704.04647,0.02273
1703.01621,0.02309
1701.98596,0.02342
1700.95570,0.02391
1699.92544,0.02483
1698.89518,0.02582
1697.86492,0.02648
1696.83467,0.02704
1695.80441,0.02771
1694.77415,0.02850
1693.74389,0.02932
1692.71364,0.03026
1691.68338,0.03129
1690.65312,0.03243
1689.62286,0.03364
1688.59260,0.03462
1687.56235,0.03537
1686.53209,0.03609
1685.50183,0.03709
1684.47157,0.03893
1683.44131,0.04088
1682.41106,0.04179
1681.38080,0.04252
1680.35054,0.04373
1679.32028,0.04527
1678.29003,0.04659
1677.25977,0.04773
1676.22951,0.04880
1675.19925,0.05014
1674.16899,0.05160
1673.13874,0.05285
1672.10848,0.05437
1671.07822,0.05617
1670.04796,0.05773
1669.01771,0.05912
1667.98745,0.06044
1666.95719,0.06159
1665.92693,0.06275
1664.89667,0.06405
1663.86642,0.06564
1662.83616,0.06743
1661.80590,0.06906
1660.77564,0.07039
1659.74538,0.07158
1658.71513,0.07285
1657.68487,0.07424
1656.65461,0.07538
1655.62435,0.07646
1654.59410,0.07777
1653.56384,0.07879
1652.53358,0.07853
1651.50332,0.07848
1650.47306,0.07900
1649.44281,0.07972
1648.41255,0.08036
1647.38229,0.08087
1646.35203,0.08122
1645.32177,0.08104
1644.29152,0.08057
1643.26126,0.08004
1642.23100,0.07960
1641.20074,0.07929
1640.17049,0.07891
1639.14023,0.07859
1638.10997,0.07821
1637.07971,0.07764
1636.04945,0.07667
1635.01920,0.07485
1633.98894,0.07340
1632.95868,0.07245
1631.92842,0.07142
1630.89816,0.07031
1629.86791,0.06909
1628.83765,0.06770
1627.80739,0.06582
1626.77713,0.06382
1625.74688,0.06238
1624.71662,0.06136
1623.68636,0.05988
1622.65610,0.05771
1621.62584,0.05592
1620.59559,0.05439
1619.56533,0.05290
1618.53507,0.05164
1617.50481,0.05026
1616.47456,0.04790
1615.44430,0.04614
1614.41404,0.04518
1613.38378,0.04387
1612.35352,0.04240
1611.32327,0.04118
1610.29301,0.04002
1609.26275,0.03887
1608.23249,0.03790
1607.20223,0.03675
1606.17198,0.03533
1605.14172,0.03421
1604.11146,0.03353
1603.08120,0.03280
1602.05095,0.03198
1601.02069,0.03130
1599.99043,0.03066
1598.96017,0.03005
1597.92991,0.02939
1596.89966,0.02859
1595.86940,0.02792
1594.83914,0.02746
1593.80888,0.02694
1592.77862,0.02644
1591.74837,0.02592
1590.71811,0.02549
1589.68785,0.02519
1588.65759,0.02477
1587.62734,0.02426
1586.59708,0.02372
1585.56682,0.02323
1584.53656,0.02299
1583.50630,0.02291
1582.47605,0.02257
1581.44579,0.02200
1580.41553,0.02146
1579.38527,0.02119
1578.35501,0.02123
1577.32476,0.02136
1576.29450,0.02113
1575.26424,0.02048
1574.23398,0.02010
1573.20373,0.01997
1572.17347,0.01998
1571.14321,0.02007
1570.11295,0.02014
1569.08269,0.01991
1568.05244,0.01952
1567.02218,0.01928
1565.99192,0.01916
1564.96166,0.01894
1563.93141,0.01871
1562.90115,0.01857
1561.87089,0.01841
1560.84063,0.01820
1559.81037,0.01792
1558.78012,0.01740
1557.74986,0.01710
1556.71960,0.01743
1555.68934,0.01778
1554.65908,0.01780
1553.62883,0.01756
1552.59857,0.01735
1551.56831,0.01709
1550.53805,0.01692
1549.50780,0.01706
1548.47754,0.01739
1547.44728,0.01774
1546.41702,0.01789
1545.38676,0.01770
1544.35651,0.01729
1543.32625,0.01706
1542.29599,0.01692
1541.26573,0.01652
1540.23547,0.01620
1539.20522,0.01657
1538.17496,0.01695
1537.14470,0.01694
1536.11444,0.01689
1535.08419,0.01678
1534.05393,0.01662
1533.02367,0.01666
1531.99341,0.01690
1530.96315,0.01693
1529.93290,0.01691
1528.90264,0.01711
1527.87238,0.01725
1526.84212,0.01715
1525.81186,0.01704
1524.78161,0.01697
1523.75135,0.01689
1522.72109,0.01689
1521.69083,0.01712
1520.66058,0.01732
1519.63032,0.01726
1518.60006,0.01713
1517.56980,0.01708
1516.53954,0.01732
1515.50929,0.01755
1514.47903,0.01758
1513.44877,0.01756
1512.41851,0.01763
1511.38826,0.01777
1510.35800,0.01783
1509.32774,0.01781
1508.29748,0.01784
1507.26722,0.01811
1506.23697,0.01864
1505.20671,0.01901
1504.17645,0.01902
1503.14619,0.01903
1502.11593,0.01935
1501.08568,0.01999
1500.05542,0.02068
1499.02516,0.02107
1497.99490,0.02136
1496.96465,0.02227
1495.93439,0.02406
1494.90413,0.02567
1493.87387,0.02692
1492.84361,0.02828
1491.81336,0.02981
1490.78310,0.03165
1489.75284,0.03378
1488.72258,0.03573
1487.69232,0.03753
1486.66207,0.03933
1485.63181,0.04139
1484.60155,0.04402
1483.57129,0.04702
1482.54104,0.04987
1481.51078,0.05215
1480.48052,0.05381
1479.45026,0.05508
1478.42000,0.05637
1477.38975,0.05802
1476.35949,0.06048
1475.32923,0.06357
1474.29897,0.06657
1473.26871,0.06949
1472.23846,0.07189
1471.20820,0.07349
1470.17794,0.07472
1469.14768,0.07607
1468.11743,0.07752
1467.08717,0.07889
1466.05691,0.08007
1465.02665,0.08082
1463.99639,0.08121
1462.96614,0.08163
1461.93588,0.08193
1460.90562,0.08190
1459.87536,0.08184
1458.84511,0.08182
1457.81485,0.08160
1456.78459,0.08142
1455.75433,0.08198
1454.72407,0.08234
1453.69382,0.08201
1452.66356,0.08087
1451.63330,0.07905
1450.60304,0.07711
1449.57278,0.07530
1448.54253,0.07327
1447.51227,0.07076
1446.48201,0.06853
1445.45175,0.06675
1444.42150,0.06514
1443.39124,0.06359
1442.36098,0.06194
1441.33072,0.05994
1440.30046,0.05756
1439.27021,0.05517
1438.23995,0.05331
1437.20969,0.05137
1436.17943,0.04821
1435.14917,0.04561
1434.11892,0.04383
1433.08866,0.04215
1432.05840,0.04091
1431.02814,0.04022
1429.99789,0.03937
1428.96763,0.03814
1427.93737,0.03727
1426.90711,0.03688
1425.87685,0.03662
1424.84660,0.03614
1423.81634,0.03551
1422.78608,0.03521
1421.75582,0.03518
1420.72556,0.03520
1419.69531,0.03518
1418.66505,0.03490
1417.63479,0.03461
1416.60453,0.03456
1415.57428,0.03464
1414.54402,0.03465
1413.51376,0.03462
1412.48350,0.03465
1411.45324,0.03458
1410.42299,0.03452
1409.39273,0.03463
1408.36247,0.03489
1407.33221,0.03530
1406.30196,0.03587
1405.27170,0.03650
1404.24144,0.03689
1403.21118,0.03707
1402.18092,0.03726
1401.15067,0.03731
1400.12041,0.03737
1399.09015,0.03757
1398.05989,0.03750
1397.02963,0.03722
1395.99938,0.03687
1394.96912,0.03634
1393.93886,0.03574
1392.90860,0.03553
1391.87835,0.03572
1390.84809,0.03603
1389.81783,0.03624
1388.78757,0.03638
1387.75731,0.03655
1386.72706,0.03672
1385.69680,0.03696
1384.66654,0.03732
1383.63628,0.03772
1382.60602,0.03803
1381.57577,0.03849
1380.54551,0.03923
1379.51525,0.03988
1378.48499,0.04035
1377.45474,0.04090
1376.42448,0.04147
1375.39422,0.04208
1374.36396,0.04298
1373.33370,0.04411
1372.30345,0.04519
1371.27319,0.04632
1370.24293,0.04748
1369.21267,0.04859
1368.18241,0.04987
1367.15216,0.05156
1366.12190,0.05360
1365.09164,0.05568
1364.06138,0.05764
1363.03113,0.05996
1362.00087,0.06299
1360.97061,0.06636
1359.94035,0.06977
1358.91009,0.07329
1357.87984,0.07724
1356.84958,0.08154
1355.81932,0.08607
1354.78906,0.09085
1353.75881,0.09573
1352.72855,0.10063
1351.69829,0.10540
1350.66803,0.10952
1349.63777,0.11243
1348.60752,0.11345
1347.57726,0.11170
1346.54700,0.10659
1345.51674,0.09820
1344.48648,0.08776
1343.45623,0.07717
1342.42597,0.06800
1341.39571,0.06092
1340.36545,0.05576
1339.33520,0.05241
1338.30494,0.05076
1337.27468,0.05027
1336.24442,0.05030
1335.21416,0.05046
1334.18391,0.05078
1333.15365,0.05136
1332.12339,0.05205
1331.09313,0.05280
1330.06287,0.05370
1329.03262,0.05441
1328.00236,0.05442
1326.97210,0.05384
1325.94184,0.05311
1324.91159,0.05234
1323.88133,0.05125
1322.85107,0.04996
1321.82081,0.04886
1320.79055,0.04821
1319.76030,0.04789
1318.73004,0.04770
1317.69978,0.04784
1316.66952,0.04850
1315.63927,0.04967
1314.60901,0.05121
1313.57875,0.05287
1312.54849,0.05476
1311.51823,0.05705
1310.48798,0.05957
1309.45772,0.06210
1308.42746,0.06468
1307.39720,0.06740
1306.36694,0.06993
1305.33669,0.07199
1304.30643,0.07384
1303.27617,0.07552
1302.24591,0.07681
1301.21566,0.07779
1300.18540,0.07846
1299.15514,0.07878
1298.12488,0.07895
1297.09462,0.07902
1296.06437,0.07888
1295.03411,0.07869
1294.00385,0.07851
1292.97359,0.07817
1291.94333,0.07770
1290.91308,0.07732
1289.88282,0.07718
1288.85256,0.07702
1287.82230,0.07648
1286.79205,0.07577
1285.76179,0.07506
1284.73153,0.07426
1283.70127,0.07328
1282.67101,0.07211
1281.64076,0.07094
1280.61050,0.06973
1279.58024,0.06825
1278.54998,0.06674
1277.51972,0.06545
1276.48947,0.06407
1275.45921,0.06246
1274.42895,0.06096
1273.39869,0.05995
1272.36844,0.05922
1271.33818,0.05844
1270.30792,0.05782
1269.27766,0.05769
1268.24740,0.05807
1267.21715,0.05874
1266.18689,0.05969
1265.15663,0.06104
1264.12637,0.06260
1263.09612,0.06423
1262.06586,0.06634
1261.03560,0.06909
1260.00534,0.07207
1258.97508,0.07507
1257.94483,0.07803
1256.91457,0.08073
1255.88431,0.08324
1254.85405,0.08568
1253.82379,0.08772
1252.79354,0.08939
1251.76328,0.09104
1250.73302,0.09253
1249.70276,0.09351
1248.67251,0.09377
1247.64225,0.09317
1246.61199,0.09211
1245.58173,0.09110
1244.55147,0.08979
1243.52122,0.08793
1242.49096,0.08604
1241.46070,0.08443
1240.43044,0.08262
1239.40018,0.08046
1238.36993,0.07829
1237.33967,0.07608
1236.30941,0.07337
1235.27915,0.07026
1234.24890,0.06725
1233.21864,0.06433
1232.18838,0.06138
1231.15812,0.05852
1230.12786,0.05593
1229.09761,0.05373
1228.06735,0.05184
1227.03709,0.05001
1226.00683,0.04819
1224.97657,0.04664
1223.94632,0.04542
1222.91606,0.04438
1221.88580,0.04339
1220.85554,0.04236
1219.82529,0.04143
1218.79503,0.04062
1217.76477,0.03987
1216.73451,0.03922
1215.70425,0.03868
1214.67400,0.03799
1213.64374,0.03697
1212.61348,0.03603
1211.58322,0.03546
1210.55297,0.03504
1209.52271,0.03460
1208.49245,0.03428
1207.46219,0.03409
1206.43193,0.03368
1205.40168,0.03311
1204.37142,0.03280
1203.34116,0.03275
1202.31090,0.03272
1201.28064,0.03255
1200.25039,0.03232
1199.22013,0.03217
1198.18987,0.03215
1197.15961,0.03224
1196.12936,0.03247
1195.09910,0.03282
1194.06884,0.03304
1193.03858,0.03292
1192.00832,0.03276
1190.97807,0.03275
1189.94781,0.03282
1188.91755,0.03310
1187.88729,0.03352
1186.85703,0.03378
1185.82678,0.03397
1184.79652,0.03436
1183.76626,0.03496
1182.73600,0.03562
1181.70575,0.03624
1180.67549,0.03668
1179.64523,0.03703
1178.61497,0.03753
1177.58471,0.03800
1176.55446,0.03858
1175.52420,0.03953
1174.49394,0.04069
1173.46368,0.04186
1172.43342,0.04309
1171.40317,0.04449
1170.37291,0.04599
1169.34265,0.04767
1168.31239,0.04966
1167.28214,0.05193
1166.25188,0.05431
1165.22162,0.05691
1164.19136,0.06013
1163.16110,0.06392
1162.13085,0.06805
1161.10059,0.07262
1160.07033,0.07777
1159.04007,0.08334
1158.00982,0.08942
1156.97956,0.09632
1155.94930,0.10390
1154.91904,0.11155
1153.88878,0.11912
1152.85853,0.12701
1151.82827,0.13529
1150.79801,0.14367
1149.76775,0.15190
1148.73749,0.15986
1147.70724,0.16774
1146.67698,0.17560
1145.64672,0.18307
1144.61646,0.19018
1143.58621,0.19722
1142.55595,0.20391
1141.52569,0.20991
1140.49543,0.21534
1139.46517,0.22042
1138.43492,0.22548
1137.40466,0.23051
1136.37440,0.23473
1135.34414,0.23793
1134.31388,0.24118
1133.28363,0.24486
1132.25337,0.24815
1131.22311,0.25125
1130.19285,0.25482
1129.16260,0.25871
1128.13234,0.26270
1127.10208,0.26680
1126.07182,0.27133
1125.04156,0.27634
1124.01131,0.28167
1122.98105,0.28721
1121.95079,0.29280
1120.92053,0.29868
1119.89027,0.30484
1118.86002,0.31091
1117.82976,0.31690
1116.79950,0.32263
1115.76924,0.32812
1114.73899,0.33426
1113.70873,0.34130
1112.67847,0.34843
1111.64821,0.35495
1110.61795,0.36073
1109.58770,0.36650
1108.55744,0.37312
1107.52718,0.38016
1106.49692,0.38705
1105.46667,0.39396
1104.43641,0.40078
1103.40615,0.40771
1102.37589,0.41549
1101.34563,0.42333
1100.31538,0.43026
1099.28512,0.43687
1098.25486,0.44325
1097.22460,0.44857
1096.19434,0.45317
1095.16409,0.45810
1094.13383,0.46290
1093.10357,0.46668
1092.07331,0.46971
1091.04306,0.47228
1090.01280,0.47391
1088.98254,0.47448
1087.95228,0.47451
1086.92202,0.47404
1085.89177,0.47287
1084.86151,0.47127
1083.83125,0.46908
1082.80099,0.46640
1081.77073,0.46369
1080.74048,0.46049
1079.71022,0.45652
1078.67996,0.45252
1077.64970,0.44864
1076.61945,0.44441
1075.58919,0.43981
1074.55893,0.43518
1073.52867,0.43100
1072.49841,0.42710
1071.46816,0.42304
1070.43790,0.41867
1069.40764,0.41373
1068.37738,0.40847
1067.34712,0.40293
1066.31687,0.39627
1065.28661,0.38883
1064.25635,0.38158
1063.22609,0.37351
1062.19584,0.36399
1061.16558,0.35393
1060.13532,0.34357
1059.10506,0.33253
1058.07480,0.32060
1057.04455,0.30817
1056.01429,0.29617
1054.98403,0.28493
1053.95377,0.27431
1052.92352,0.26424
1051.89326,0.25451
1050.86300,0.24546
1049.83274,0.23771
1048.80248,0.23136
1047.77223,0.22620
1046.74197,0.22188
1045.71171,0.21832
1044.68145,0.21590
1043.65119,0.21437
1042.62094,0.21310
1041.59068,0.21208
1040.56042,0.21145
1039.53016,0.21092
1038.49991,0.21030
1037.46965,0.20970
1036.43939,0.20894
1035.40913,0.20780
1034.37887,0.20616
1033.34862,0.20390
1032.31836,0.20101
1031.28810,0.19768
1030.25784,0.19410
1029.22758,0.19027
1028.19733,0.18599
1027.16707,0.18088
1026.13681,0.17508
1025.10655,0.16906
1024.07630,0.16304
1023.04604,0.15717
1022.01578,0.15156
1020.98552,0.14587
1019.95526,0.13990
1018.92501,0.13410
1017.89475,0.12878
1016.86449,0.12395
1015.83423,0.11965
1014.80397,0.11573
1013.77372,0.11197
1012.74346,0.10858
1011.71320,0.10541
1010.68294,0.10228
1009.65269,0.09995
1008.62243,0.09872
1007.59217,0.09766
1006.56191,0.09593
1005.53165,0.09406
1004.50140,0.09307
1003.47114,0.09274
1002.44088,0.09252
1001.41062,0.09248
1000.38037,0.09245
999.35011,0.09215
998.31985,0.09172
997.28959,0.09145
996.25933,0.09133
995.22908,0.09104
994.19882,0.09050
993.16856,0.08983
992.13830,0.08915
991.10804,0.08856
990.07779,0.08776
989.04753,0.08653
988.01727,0.08512
986.98701,0.08389
985.95676,0.08282
984.92650,0.08168
983.89624,0.08050
982.86598,0.07934
981.83572,0.07818
980.80547,0.07715
979.77521,0.07639
978.74495,0.07572
977.71469,0.07477
976.68443,0.07379
975.65418,0.07324
974.62392,0.07311
973.59366,0.07335
972.56340,0.07402
971.53315,0.07508
970.50289,0.07642
969.47263,0.07797
968.44237,0.07987
967.41211,0.08235
966.38186,0.08534
965.35160,0.08878
964.32134,0.09298
963.29108,0.09807
962.26082,0.10367
961.23057,0.10983
960.20031,0.11692
959.17005,0.12485
958.13979,0.13304
957.10954,0.14111
956.07928,0.14935
955.04902,0.15801
954.01876,0.16656
952.98850,0.17481
951.95825,0.18256
950.92799,0.18929
949.89773,0.19514
948.86747,0.20016
947.83722,0.20358
946.80696,0.20500
945.77670,0.20502
944.74644,0.20428
943.71618,0.20262
942.68593,0.19984
941.65567,0.19594
940.62541,0.19130
939.59515,0.18672
938.56489,0.18226
937.53464,0.17755
936.50438,0.17303
935.47412,0.16908
934.44386,0.16572
933.41361,0.16273
932.38335,0.15947
931.35309,0.15575
930.32283,0.15189
929.29257,0.14820
928.26232,0.14477
927.23206,0.14132
926.20180,0.13802
925.17154,0.13528
924.14128,0.13279
923.11103,0.13047
922.08077,0.12862
921.05051,0.12696
920.02025,0.12503
918.99000,0.12297
917.95974,0.12077
916.92948,0.11862
915.89922,0.11707
914.86896,0.11566
913.83871,0.11399
912.80845,0.11220
911.77819,0.11027
910.74793,0.10821
909.71768,0.10612
908.68742,0.10418
907.65716,0.10221
906.62690,0.10029
905.59664,0.09876
904.56639,0.09747
903.53613,0.09634
902.50587,0.09536
901.47561,0.09444
900.44535,0.09369
899.41510,0.09346
898.38484,0.09371
897.35458,0.09416
896.32432,0.09509
895.29407,0.09678
894.26381,0.09862
893.23355,0.10030
892.20329,0.10239
891.17303,0.10475
890.14278,0.10673
889.11252,0.10878
888.08226,0.11138
887.05200,0.11359
886.02174,0.11465
884.99149,0.11487
883.96123,0.11456
882.93097,0.11394
881.90071,0.11322
880.87046,0.11229
879.84020,0.11091
878.80994,0.10927
877.77968,0.10800
876.74942,0.10742
875.71917,0.10713
874.68891,0.10656
873.65865,0.10607
872.62839,0.10635
871.59813,0.10737
870.56788,0.10866
869.53762,0.10991
868.50736,0.11135
867.47710,0.11305
866.44685,0.11456
865.41659,0.11548
864.38633,0.11608
863.35607,0.11705
862.32581,0.11844
861.29556,0.11972
860.26530,0.12097
859.23504,0.12239
858.20478,0.12376
857.17453,0.12503
856.14427,0.12693
855.11401,0.12950
854.08375,0.13160
853.05349,0.13316
852.02324,0.13505
850.99298,0.13734
849.96272,0.13950
848.93246,0.14135
847.90220,0.14292
846.87195,0.14419
845.84169,0.14558
844.81143,0.14720
843.78117,0.14863
842.75092,0.14968
841.72066,0.15041
840.69040,0.15103
839.66014,0.15155
838.62988,0.15179
837.59963,0.15151
836.56937,0.15083
835.53911,0.15049
834.50885,0.15049
833.47859,0.14989
832.44834,0.14863
831.41808,0.14720
830.38782,0.14561
829.35756,0.14409
828.32731,0.14297
827.29705,0.14173
826.26679,0.14007
825.23653,0.13849
824.20627,0.13748
823.17602,0.13688
822.14576,0.13584
821.11550,0.13433
820.08524,0.13356
819.05498,0.13363
818.02473,0.13362
816.99447,0.13294
815.96421,0.13165
814.93395,0.13069
813.90370,0.13065
812.87344,0.13116
811.84318,0.13166
810.81292,0.13202
809.78266,0.13186
808.75241,0.13108
807.72215,0.13044
806.69189,0.13011
805.66163,0.12970
804.63138,0.12953
803.60112,0.13027
802.57086,0.13107
801.54060,0.13080
800.51034,0.12996
799.48009,0.12923
798.44983,0.12866
797.41957,0.12846
796.38931,0.12849
795.35905,0.12835
794.32880,0.12821
793.29854,0.12835
792.26828,0.12859
791.23802,0.12840
790.20777,0.12829
789.17751,0.12903
788.14725,0.12951
787.11699,0.12928
786.08673,0.12941
785.05648,0.12998
784.02622,0.13025
782.99596,0.13038
781.96570,0.13098
780.93544,0.13181
779.90519,0.13226
778.87493,0.13250
777.84467,0.13296
776.81441,0.13363
775.78416,0.13464
774.75390,0.13567
773.72364,0.13609
772.69338,0.13648
771.66312,0.13730
770.63287,0.13795
769.60261,0.13866
768.57235,0.14025
767.54209,0.14235
766.51183,0.14414
765.48158,0.14532
764.45132,0.14650
763.42106,0.14844
762.39080,0.15051
761.36055,0.15182
760.33029,0.15275
759.30003,0.15416
758.26977,0.15572
757.23951,0.15625
756.20926,0.15582
755.17900,0.15528
754.14874,0.15465
753.11848,0.15402
752.08823,0.15394
751.05797,0.15406
750.02771,0.15345
748.99745,0.15246
747.96719,0.15231
746.93694,0.15300
745.90668,0.15433
744.87642,0.15616
743.84616,0.15727
742.81590,0.15747
741.78565,0.15789
740.75539,0.15890
739.72513,0.15996
738.69487,0.16067
737.66462,0.16146
736.63436,0.16249
735.60410,0.16326
734.57384,0.16389
733.54358,0.16468
732.51333,0.16546
731.48307,0.16635
730.45281,0.16748
729.42255,0.16843
728.39229,0.16925
727.36204,0.17028
726.33178,0.17109
725.30152,0.17166
724.27126,0.17257
723.24101,0.17335
722.21075,0.17354
721.18049,0.17383
720.15023,0.17509
719.11997,0.17690
718.08972,0.17801
717.05946,0.17862
716.02920,0.17973
714.99894,0.18109
713.96868,0.18220
712.93843,0.18309
711.90817,0.18366
710.87791,0.18432
709.84765,0.18527
708.81740,0.18636
707.78714,0.18739
706.75688,0.18786
705.72662,0.18853
704.69636,0.19008
703.66611,0.19143
702.63585,0.19221
701.60559,0.19328
700.57533,0.19432
699.54508,0.19450
698.51482,0.19471
697.48456,0.19562
696.45430,0.19632
695.42404,0.19676
694.39379,0.19706
693.36353,0.19742
692.33327,0.19854
691.30301,0.19965
690.27275,0.20064
689.24250,0.20230
688.21224,0.20381
687.18198,0.20462
686.15172,0.20556
685.12147,0.20702
684.09121,0.20797
683.06095,0.20800
682.03069,0.20798
681.00043,0.20849
679.97018,0.20901
678.93992,0.20906
677.90966,0.20957
676.87940,0.21055
675.84914,0.21107
674.81889,0.21162
673.78863,0.21263
672.75837,0.21415
671.72811,0.21653
670.69786,0.21885
669.66760,0.22005
668.63734,0.22018
667.60708,0.21949
666.57682,0.21956
665.54657,0.22043
664.51631,0.22211
663.48605,0.22385
662.45579,0.22449
661.42553,0.22482
660.39528,0.22606
659.36502,0.22718
658.33476,0.22730
657.30450,0.22749
656.27425,0.22853
655.24399,0.22958
654.21373,0.22985
653.18347,0.22993
652.15321,0.23013
651.12296,0.23038
650.09270,0.23087
649.06244,0.23147
648.03218,0.23220
647.00193,0.23351
645.97167,0.23526
644.94141,0.23615
643.91115,0.23580
642.88089,0.23581
641.85064,0.23710
640.82038,0.23870
639.79012,0.23928
638.75986,0.23906
637.72960,0.23930
636.69935,0.24047
635.66909,0.24216
634.63883,0.24357
633.60857,0.24373
632.57832,0.24313
631.54806,0.24315
630.51780,0.24326
629.48754,0.24306
628.45728,0.24348
627.42703,0.24474
626.39677,0.24605
625.36651,0.24665
624.33625,0.24692
623.30599,0.24740
622.27574,0.24765
621.24548,0.24745
620.21522,0.24685
619.18496,0.24663
618.15471,0.24797
617.12445,0.24960
616.09419,0.25062
615.06393,0.25259
614.03367,0.25474
613.00342,0.25495
611.97316,0.25418
610.94290,0.25477
609.91264,0.25647
608.88238,0.25709
607.85213,0.25695
606.82187,0.25749
605.79161,0.25852
604.76135,0.25965
603.73110,0.26056
602.70084,0.26168
601.67058,0.26262
600.64032,0.26243
599.61006,0.26225
598.57981,0.26344
597.54955,0.26558
596.51929,0.26689
595.48903,0.26675
594.45878,0.26664
593.42852,0.26770
592.39826,0.26979
591.36800,0.27188
590.33774,0.27295
589.30749,0.27403
588.27723,0.27546
587.24697,0.27626
586.21671,0.27614
585.18645,0.27499
584.15620,0.27480
583.12594,0.27576
582.09568,0.27584
581.06542,0.27593
580.03517,0.27676
579.00491,0.27811
577.97465,0.28039
576.94439,0.28297
575.91413,0.28446
574.88388,0.28479
573.85362,0.28409
572.82336,0.28365
571.79310,0.28583
570.76284,0.28848
569.73259,0.28891
568.70233,0.28850
567.67207,0.28842
566.64181,0.28915
565.61156,0.28973
564.58130,0.28951
563.55104,0.29041
562.52078,0.29235
561.49052,0.29256
560.46027,0.29012
559.43001,0.28869
558.39975,0.29010
557.36949,0.29158
556.33924,0.29324
555.30898,0.29552
554.27872,0.29703
553.24846,0.29751
552.21820,0.29692
551.18795,0.29674
550.15769,0.29707
549.12743,0.29647
548.09717,0.29588
547.06691,0.29612
546.03666,0.29751
545.00640,0.29988
543.97614,0.30209
542.94588,0.30364
541.91563,0.30453
540.88537,0.30467
539.85511,0.30361
538.82485,0.30180
537.79459,0.30158
536.76434,0.30318
535.73408,0.30546
534.70382,0.30823
533.67356,0.30954
532.64330,0.30883
531.61305,0.30807
530.58279,0.30907
529.55253,0.31168
528.52227,0.31426
527.49202,0.31613
526.46176,0.31701
525.43150,0.31799
524.40124,0.31881
523.37098,0.31815
522.34073,0.31787
521.31047,0.31910
520.28021,0.32013
519.24995,0.32078
518.21969,0.32255
517.18944,0.32422
516.15918,0.32368
515.12892,0.32260
514.09866,0.32263
513.06841,0.32323
512.03815,0.32533
511.00789,0.32807
509.97763,0.32955
508.94737,0.33017
507.91712,0.32902
506.88686,0.32744
505.85660,0.32761
504.82634,0.32788
503.79609,0.32740
502.76583,0.32745
501.73557,0.32879
500.70531,0.33115
499.67505,0.33340
498.64480,0.33232
497.61454,0.32868
496.58428,0.32627
495.55402,0.32384
494.52376,0.32111
493.49351,0.32311
492.46325,0.32800
491.43299,0.32707
490.40273,0.32178
489.37248,0.31873
488.34222,0.31832
487.31196,0.31765
486.28170,0.31500
485.25144,0.31303
484.22119,0.31326
483.19093,0.31347
482.16067,0.31255
481.13041,0.31025
480.10015,0.30630
479.06990,0.30132
478.03964,0.30008
477.00938,0.30420
475.97912,0.30848
474.94887,0.31203
473.91861,0.31395
472.88835,0.31274
471.85809,0.31218
470.82783,0.31340
469.79758,0.31478
468.76732,0.31668
467.73706,0.32067
466.70680,0.32542
465.67654,0.32752
464.64629,0.32855
463.61603,0.33199
462.58577,0.33524
461.55551,0.33427
460.52526,0.32951
459.49500,0.32252
458.46474,0.31629
457.43448,0.31327
456.40422,0.31157
455.37397,0.31175
454.34371,0.31518
453.31345,0.31702
452.28319,0.31217
451.25294,0.30588
450.22268,0.30436
449.19242,0.30375
448.16216,0.30165
447.13190,0.30292
446.10165,0.30480
445.07139,0.30142
444.04113,0.29548
443.01087,0.29232
441.98061,0.29411
440.95036,0.29611
439.92010,0.29398
438.88984,0.29235
437.85958,0.29370
436.82933,0.29466
435.79907,0.29447
434.76881,0.29212
433.73855,0.28927
432.70829,0.28872
431.67804,0.28953
430.64778,0.29356
429.61752,0.30034
428.58726,0.30090
427.55700,0.29218
426.52675,0.28441
425.49649,0.28444
424.46623,0.28657
423.43597,0.28268
422.40572,0.27566
421.37546,0.27597
420.34520,0.28180
419.31494,0.28156
418.28468,0.27669
417.25443,0.27720
416.22417,0.27607
415.19391,0.27396
414.16365,0.27527
413.13339,0.27602
412.10314,0.27259
411.07288,0.26806
410.04262,0.26683
409.01236,0.27190
407.98211,0.27723
406.95185,0.27692
405.92159,0.27610
404.89133,0.27676
403.86107,0.27797
402.83082,0.28187
401.80056,0.28320
400.77030,0.27585
399.74004,0.27133
