4998.81105,0.00461
4997.78079,0.00375
4996.75054,0.00317
4995.72028,0.00341
4994.69002,0.00403
4993.65976,0.00439
4992.62951,0.00390
4991.59925,0.00310
4990.56899,0.00239
4989.53873,0.00173
4988.50847,0.00158
4987.47822,0.00187
4986.44796,0.00218
4985.41770,0.00206
4984.38744,0.00151
4983.35718,0.00134
4982.32693,0.00170
4981.29667,0.00213
4980.26641,0.00237
4979.23615,0.00188
4978.20590,0.00113
4977.17564,0.00124
4976.14538,0.00150
4975.11512,0.00111
4974.08486,0.00042
4973.05461,0.00007
4972.02435,0.00069
4970.99409,0.00169
4969.96383,0.00172
4968.93357,0.00106
4967.90332,0.00111
4966.87306,0.00171
4965.84280,0.00186
4964.81254,0.00206
4963.78229,0.00241
4962.75203,0.00232
4961.72177,0.00224
4960.69151,0.00188
4959.66125,0.00131
4958.63100,0.00157
4957.60074,0.00191
4956.57048,0.00145
4955.54022,0.00082
4954.50997,0.00095
4953.47971,0.00177
4952.44945,0.00226
4951.41919,0.00233
4950.38893,0.00264
4949.35868,0.00270
4948.32842,0.00230
4947.29816,0.00167
4946.26790,0.00130
4945.23764,0.00181
4944.20739,0.00223
4943.17713,0.00209
4942.14687,0.00202
4941.11661,0.00221
4940.08636,0.00249
4939.05610,0.00206
4938.02584,0.00082
4936.99558,0.00010
4935.96532,0.00020
4934.93507,-0.00008
4933.90481,-0.00056
4932.87455,0.00047
4931.84429,0.00272
4930.81403,0.00400
4929.78378,0.00395
4928.75352,0.00364
4927.72326,0.00333
4926.69300,0.00305
4925.66275,0.00286
4924.63249,0.00239
4923.60223,0.00173
4922.57197,0.00117
4921.54171,0.00101
4920.51146,0.00222
4919.48120,0.00390
4918.45094,0.00383
4917.42068,0.00222
4916.39042,0.00130
4915.36017,0.00170
4914.32991,0.00240
4913.29965,0.00290
4912.26939,0.00310
4911.23914,0.00311
4910.20888,0.00221
4909.17862,0.00063
4908.14836,0.00062
4907.11810,0.00219
4906.08785,0.00265
4905.05759,0.00122
4904.02733,0.00023
4902.99707,0.00089
4901.96682,0.00155
4900.93656,0.00134
4899.90630,0.00133
4898.87604,0.00155
4897.84578,0.00157
4896.81553,0.00143
4895.78527,0.00093
4894.75501,0.00082
4893.72475,0.00139
4892.69449,0.00170
4891.66424,0.00213
4890.63398,0.00260
4889.60372,0.00205
4888.57346,0.00158
4887.54321,0.00200
4886.51295,0.00216
4885.48269,0.00181
4884.45243,0.00194
4883.42217,0.00220
4882.39192,0.00157
4881.36166,0.00056
4880.33140,-0.00003
4879.30114,0.00086
4878.27088,0.00316
4877.24063,0.00394
4876.21037,0.00266
4875.18011,0.00215
4874.14985,0.00232
4873.11960,0.00169
4872.08934,0.00146
4871.05908,0.00192
4870.02882,0.00186
4868.99856,0.00141
4867.96831,0.00133
4866.93805,0.00144
4865.90779,0.00143
4864.87753,0.00136
4863.84727,0.00156
4862.81702,0.00219
4861.78676,0.00265
4860.75650,0.00278
4859.72624,0.00243
4858.69599,0.00122
4857.66573,0.00043
4856.63547,0.00094
4855.60521,0.00161
4854.57495,0.00180
4853.54470,0.00149
4852.51444,0.00089
4851.48418,0.00067
4850.45392,0.00115
4849.42367,0.00200
4848.39341,0.00215
4847.36315,0.00154
4846.33289,0.00115
4845.30263,0.00104
4844.27238,0.00074
4843.24212,0.00091
4842.21186,0.00196
4841.18160,0.00280
4840.15134,0.00279
4839.12109,0.00189
4838.09083,0.00120
4837.06057,0.00145
4836.03031,0.00159
4835.00006,0.00133
4833.96980,0.00126
4832.93954,0.00137
4831.90928,0.00131
4830.87902,0.00176
4829.84877,0.00252
4828.81851,0.00230
4827.78825,0.00168
4826.75799,0.00176
4825.72773,0.00221
4824.69748,0.00226
4823.66722,0.00148
4822.63696,0.00080
4821.60670,0.00126
4820.57645,0.00188
4819.54619,0.00184
4818.51593,0.00190
4817.48567,0.00257
4816.45541,0.00325
4815.42516,0.00330
4814.39490,0.00245
4813.36464,0.00168
4812.33438,0.00192
4811.30412,0.00246
4810.27387,0.00282
4809.24361,0.00288
4808.21335,0.00273
4807.18309,0.00286
4806.15284,0.00304
4805.12258,0.00260
4804.09232,0.00193
4803.06206,0.00171
4802.03180,0.00177
4801.00155,0.00192
4799.97129,0.00213
4798.94103,0.00170
4797.91077,0.00081
4796.88052,0.00064
4795.85026,0.00144
4794.82000,0.00203
4793.78974,0.00150
4792.75948,0.00113
4791.72923,0.00193
4790.69897,0.00262
4789.66871,0.00262
4788.63845,0.00267
4787.60819,0.00255
4786.57794,0.00163
4785.54768,0.00064
4784.51742,0.00012
4783.48716,-0.00009
4782.45691,0.00038
4781.42665,0.00155
4780.39639,0.00230
4779.36613,0.00195
4778.33587,0.00111
4777.30562,0.00088
4776.27536,0.00106
4775.24510,0.00102
4774.21484,0.00117
4773.18458,0.00134
4772.15433,0.00123
4771.12407,0.00135
4770.09381,0.00192
4769.06355,0.00213
4768.03330,0.00147
4767.00304,0.00077
4765.97278,0.00084
4764.94252,0.00139
4763.91226,0.00136
4762.88201,0.00101
4761.85175,0.00147
4760.82149,0.00249
4759.79123,0.00300
4758.76098,0.00274
4757.73072,0.00216
4756.70046,0.00177
4755.67020,0.00172
4754.63994,0.00151
4753.60969,0.00115
4752.57943,0.00092
4751.54917,0.00075
4750.51891,0.00068
4749.48865,0.00084
4748.45840,0.00131
4747.42814,0.00170
4746.39788,0.00134
4745.36762,0.00065
4744.33737,0.00065
4743.30711,0.00131
4742.27685,0.00188
4741.24659,0.00201
4740.21633,0.00194
4739.18608,0.00198
4738.15582,0.00190
4737.12556,0.00167
4736.09530,0.00185
4735.06504,0.00234
4734.03479,0.00291
4733.00453,0.00339
4731.97427,0.00303
4730.94401,0.00186
4729.91376,0.00079
4728.88350,0.00043
4727.85324,0.00061
4726.82298,0.00077
4725.79272,0.00139
4724.76247,0.00239
4723.73221,0.00259
4722.70195,0.00204
4721.67169,0.00167
4720.64143,0.00181
4719.61118,0.00241
4718.58092,0.00317
4717.55066,0.00356
4716.52040,0.00293
4715.49015,0.00160
4714.45989,0.00130
4713.42963,0.00211
4712.39937,0.00252
4711.36911,0.00242
4710.33886,0.00245
4709.30860,0.00241
4708.27834,0.00196
4707.24808,0.00176
4706.21783,0.00185
4705.18757,0.00159
4704.15731,0.00097
4703.12705,0.00057
4702.09679,0.00078
4701.06654,0.00115
4700.03628,0.00141
4699.00602,0.00153
4697.97576,0.00135
4696.94550,0.00113
4695.91525,0.00126
4694.88499,0.00160
4693.85473,0.00161
4692.82447,0.00133
4691.79422,0.00120
4690.76396,0.00116
4689.73370,0.00112
4688.70344,0.00147
4687.67318,0.00234
4686.64293,0.00319
4685.61267,0.00323
4684.58241,0.00252
4683.55215,0.00219
4682.52189,0.00227
4681.49164,0.00192
4680.46138,0.00173
4679.43112,0.00186
4678.40086,0.00160
4677.37061,0.00169
4676.34035,0.00234
4675.31009,0.00252
4674.27983,0.00214
4673.24957,0.00221
4672.21932,0.00292
4671.18906,0.00342
4670.15880,0.00325
4669.12854,0.00263
4668.09828,0.00180
4667.06803,0.00095
4666.03777,0.00066
4665.00751,0.00112
4663.97725,0.00200
4662.94700,0.00266
4661.91674,0.00238
4660.88648,0.00175
4659.85622,0.00188
4658.82596,0.00232
4657.79571,0.00190
4656.76545,0.00084
4655.73519,0.00042
4654.70493,0.00066
4653.67468,0.00086
4652.64442,0.00071
4651.61416,0.00042
4650.58390,0.00099
4649.55364,0.00203
4648.52339,0.00224
4647.49313,0.00160
4646.46287,0.00111
4645.43261,0.00161
4644.40235,0.00262
4643.37210,0.00306
4642.34184,0.00239
4641.31158,0.00097
4640.28132,0.00029
4639.25107,0.00116
4638.22081,0.00193
4637.19055,0.00143
4636.16029,0.00125
4635.13003,0.00187
4634.09978,0.00214
4633.06952,0.00229
4632.03926,0.00246
4631.00900,0.00223
4629.97874,0.00184
4628.94849,0.00140
4627.91823,0.00127
4626.88797,0.00169
4625.85771,0.00196
4624.82746,0.00216
4623.79720,0.00270
4622.76694,0.00289
4621.73668,0.00270
4620.70642,0.00271
4619.67617,0.00260
4618.64591,0.00204
4617.61565,0.00134
4616.58539,0.00105
4615.55513,0.00107
4614.52488,0.00113
4613.49462,0.00160
4612.46436,0.00219
4611.43410,0.00231
4610.40385,0.00182
4609.37359,0.00113
4608.34333,0.00082
4607.31307,0.00050
4606.28281,0.00014
4605.25256,0.00042
4604.22230,0.00136
4603.19204,0.00261
4602.16178,0.00346
4601.13153,0.00316
4600.10127,0.00212
4599.07101,0.00141
4598.04075,0.00120
4597.01049,0.00062
4595.98024,-0.00021
4594.94998,0.00021
4593.91972,0.00170
4592.88946,0.00242
4591.85920,0.00222
4590.82895,0.00193
4589.79869,0.00150
4588.76843,0.00137
4587.73817,0.00133
4586.70792,0.00084
4585.67766,0.00069
4584.64740,0.00115
4583.61714,0.00125
4582.58688,0.00103
4581.55663,0.00145
4580.52637,0.00208
4579.49611,0.00248
4578.46585,0.00265
4577.43559,0.00211
4576.40534,0.00155
4575.37508,0.00165
4574.34482,0.00183
4573.31456,0.00225
4572.28431,0.00292
4571.25405,0.00275
4570.22379,0.00191
4569.19353,0.00185
4568.16327,0.00267
4567.13302,0.00310
4566.10276,0.00302
4565.07250,0.00297
4564.04224,0.00261
4563.01198,0.00194
4561.98173,0.00155
4560.95147,0.00147
4559.92121,0.00130
4558.89095,0.00136
4557.86070,0.00185
4556.83044,0.00220
4555.80018,0.00217
4554.76992,0.00220
4553.73966,0.00242
4552.70941,0.00274
4551.67915,0.00289
4550.64889,0.00240
4549.61863,0.00183
4548.58838,0.00203
4547.55812,0.00245
4546.52786,0.00248
4545.49760,0.00223
4544.46734,0.00202
4543.43709,0.00193
4542.40683,0.00159
4541.37657,0.00081
4540.34631,0.00038
4539.31605,0.00077
4538.28580,0.00111
4537.25554,0.00104
4536.22528,0.00113
4535.19502,0.00131
4534.16477,0.00087
4533.13451,0.00038
4532.10425,0.00068
4531.07399,0.00120
4530.04373,0.00156
4529.01348,0.00202
4527.98322,0.00243
4526.95296,0.00247
4525.92270,0.00219
4524.89244,0.00192
4523.86219,0.00186
4522.83193,0.00201
4521.80167,0.00243
4520.77141,0.00296
4519.74116,0.00309
4518.71090,0.00250
4517.68064,0.00147
4516.65038,0.00107
4515.62012,0.00146
4514.58987,0.00152
4513.55961,0.00137
4512.52935,0.00165
4511.49909,0.00182
4510.46883,0.00158
4509.43858,0.00165
4508.40832,0.00187
4507.37806,0.00190
4506.34780,0.00198
4505.31755,0.00210
4504.28729,0.00240
4503.25703,0.00271
4502.22677,0.00228
4501.19651,0.00133
4500.16626,0.00092
4499.13600,0.00096
4498.10574,0.00096
4497.07548,0.00137
4496.04523,0.00194
4495.01497,0.00192
4493.98471,0.00172
4492.95445,0.00215
4491.92419,0.00276
4490.89394,0.00246
4489.86368,0.00180
4488.83342,0.00192
4487.80316,0.00212
4486.77290,0.00178
4485.74265,0.00154
4484.71239,0.00151
4483.68213,0.00177
4482.65187,0.00220
4481.62162,0.00207
4480.59136,0.00172
4479.56110,0.00182
4478.53084,0.00204
4477.50058,0.00206
4476.47033,0.00215
4475.44007,0.00253
4474.40981,0.00268
4473.37955,0.00239
4472.34929,0.00191
4471.31904,0.00166
4470.28878,0.00216
4469.25852,0.00301
4468.22826,0.00344
4467.19801,0.00319
4466.16775,0.00262
4465.13749,0.00236
4464.10723,0.00256
4463.07697,0.00272
4462.04672,0.00295
4461.01646,0.00371
4459.98620,0.00457
4458.95594,0.00488
4457.92568,0.00402
4456.89543,0.00262
4455.86517,0.00191
4454.83491,0.00191
4453.80465,0.00225
4452.77440,0.00265
4451.74414,0.00233
4450.71388,0.00174
4449.68362,0.00214
4448.65336,0.00284
4447.62311,0.00294
4446.59285,0.00267
4445.56259,0.00222
4444.53233,0.00203
4443.50208,0.00215
4442.47182,0.00210
4441.44156,0.00198
4440.41130,0.00206
4439.38104,0.00219
4438.35079,0.00218
4437.32053,0.00226
4436.29027,0.00271
4435.26001,0.00290
4434.22975,0.00250
4433.19950,0.00168
4432.16924,0.00104
4431.13898,0.00143
4430.10872,0.00222
4429.07847,0.00264
4428.04821,0.00279
4427.01795,0.00275
4425.98769,0.00323
4424.95743,0.00388
4423.92718,0.00329
4422.89692,0.00212
4421.86666,0.00179
4420.83640,0.00229
4419.80614,0.00285
4418.77589,0.00258
4417.74563,0.00177
4416.71537,0.00148
4415.68511,0.00182
4414.65486,0.00242
4413.62460,0.00282
4412.59434,0.00284
4411.56408,0.00276
4410.53382,0.00287
4409.50357,0.00299
4408.47331,0.00262
4407.44305,0.00204
4406.41279,0.00172
4405.38253,0.00156
4404.35228,0.00131
4403.32202,0.00138
4402.29176,0.00188
4401.26150,0.00206
4400.23125,0.00220
4399.20099,0.00247
4398.17073,0.00247
4397.14047,0.00246
4396.11021,0.00267
4395.07996,0.00285
4394.04970,0.00260
4393.01944,0.00189
4391.98918,0.00159
4390.95893,0.00192
4389.92867,0.00171
4388.89841,0.00127
4387.86815,0.00172
4386.83789,0.00232
4385.80764,0.00213
4384.77738,0.00166
4383.74712,0.00145
4382.71686,0.00127
4381.68660,0.00094
4380.65635,0.00094
4379.62609,0.00115
4378.59583,0.00104
4377.56557,0.00119
4376.53532,0.00173
4375.50506,0.00226
4374.47480,0.00282
4373.44454,0.00329
4372.41428,0.00375
4371.38403,0.00380
4370.35377,0.00300
4369.32351,0.00193
4368.29325,0.00159
4367.26299,0.00192
4366.23274,0.00212
4365.20248,0.00184
4364.17222,0.00139
4363.14196,0.00144
4362.11171,0.00171
4361.08145,0.00179
4360.05119,0.00200
4359.02093,0.00232
4357.99067,0.00215
4356.96042,0.00177
4355.93016,0.00222
4354.89990,0.00290
4353.86964,0.00297
4352.83939,0.00274
4351.80913,0.00230
4350.77887,0.00193
4349.74861,0.00207
4348.71835,0.00260
4347.68810,0.00295
4346.65784,0.00284
4345.62758,0.00231
4344.59732,0.00164
4343.56706,0.00153
4342.53681,0.00207
4341.50655,0.00261
4340.47629,0.00284
4339.44603,0.00302
4338.41578,0.00300
4337.38552,0.00230
4336.35526,0.00153
4335.32500,0.00158
4334.29474,0.00197
4333.26449,0.00223
4332.23423,0.00282
4331.20397,0.00323
4330.17371,0.00262
4329.14345,0.00216
4328.11320,0.00278
4327.08294,0.00337
4326.05268,0.00312
4325.02242,0.00275
4323.99217,0.00295
4322.96191,0.00315
4321.93165,0.00270
4320.90139,0.00207
4319.87113,0.00208
4318.84088,0.00256
4317.81062,0.00293
4316.78036,0.00272
4315.75010,0.00202
4314.71984,0.00171
4313.68959,0.00182
4312.65933,0.00190
4311.62907,0.00198
4310.59881,0.00220
4309.56856,0.00284
4308.53830,0.00336
4307.50804,0.00314
4306.47778,0.00257
4305.44752,0.00221
4304.41727,0.00226
4303.38701,0.00236
4302.35675,0.00223
4301.32649,0.00230
4300.29624,0.00252
4299.26598,0.00261
4298.23572,0.00289
4297.20546,0.00320
4296.17520,0.00299
4295.14495,0.00252
4294.11469,0.00244
4293.08443,0.00244
4292.05417,0.00223
4291.02391,0.00242
4289.99366,0.00285
4288.96340,0.00267
4287.93314,0.00211
4286.90288,0.00205
4285.87263,0.00243
4284.84237,0.00266
4283.81211,0.00255
4282.78185,0.00249
4281.75159,0.00270
4280.72134,0.00278
4279.69108,0.00287
4278.66082,0.00309
4277.63056,0.00298
4276.60030,0.00264
4275.57005,0.00243
4274.53979,0.00216
4273.50953,0.00182
4272.47927,0.00189
4271.44902,0.00223
4270.41876,0.00203
4269.38850,0.00136
4268.35824,0.00100
4267.32798,0.00105
4266.29773,0.00108
4265.26747,0.00127
4264.23721,0.00166
4263.20695,0.00169
4262.17669,0.00167
4261.14644,0.00184
4260.11618,0.00175
4259.08592,0.00186
4258.05566,0.00240
4257.02541,0.00244
4255.99515,0.00183
4254.96489,0.00155
4253.93463,0.00207
4252.90437,0.00290
4251.87412,0.00326
4250.84386,0.00292
4249.81360,0.00257
4248.78334,0.00244
4247.75309,0.00215
4246.72283,0.00212
4245.69257,0.00253
4244.66231,0.00269
4243.63205,0.00248
4242.60180,0.00204
4241.57154,0.00151
4240.54128,0.00150
4239.51102,0.00224
4238.48076,0.00308
4237.45051,0.00338
4236.42025,0.00292
4235.38999,0.00212
4234.35973,0.00170
4233.32948,0.00156
4232.29922,0.00150
4231.26896,0.00175
4230.23870,0.00214
4229.20844,0.00220
4228.17819,0.00206
4227.14793,0.00245
4226.11767,0.00304
4225.08741,0.00292
4224.05715,0.00232
4223.02690,0.00205
4221.99664,0.00224
4220.96638,0.00238
4219.93612,0.00239
4218.90587,0.00271
4217.87561,0.00270
4216.84535,0.00200
4215.81509,0.00183
4214.78483,0.00221
4213.75458,0.00207
4212.72432,0.00180
4211.69406,0.00164
4210.66380,0.00146
4209.63354,0.00178
4208.60329,0.00233
4207.57303,0.00236
4206.54277,0.00198
4205.51251,0.00186
4204.48226,0.00219
4203.45200,0.00242
4202.42174,0.00210
4201.39148,0.00147
4200.36122,0.00133
4199.33097,0.00184
4198.30071,0.00240
4197.27045,0.00248
4196.24019,0.00233
4195.20994,0.00242
4194.17968,0.00225
4193.14942,0.00156
4192.11916,0.00096
4191.08890,0.00106
4190.05865,0.00165
4189.02839,0.00222
4187.99813,0.00265
4186.96787,0.00304
4185.93761,0.00348
4184.90736,0.00351
4183.87710,0.00321
4182.84684,0.00326
4181.81658,0.00337
4180.78633,0.00300
4179.75607,0.00273
4178.72581,0.00305
4177.69555,0.00337
4176.66529,0.00318
4175.63504,0.00274
4174.60478,0.00269
4173.57452,0.00305
4172.54426,0.00315
4171.51400,0.00291
4170.48375,0.00250
4169.45349,0.00215
4168.42323,0.00236
4167.39297,0.00263
4166.36272,0.00276
4165.33246,0.00304
4164.30220,0.00310
4163.27194,0.00299
4162.24168,0.00286
4161.21143,0.00278
4160.18117,0.00269
4159.15091,0.00253
4158.12065,0.00255
4157.09039,0.00264
4156.06014,0.00266
4155.02988,0.00269
4153.99962,0.00287
4152.96936,0.00305
4151.93911,0.00283
4150.90885,0.00239
4149.87859,0.00236
4148.84833,0.00237
4147.81807,0.00224
4146.78782,0.00254
4145.75756,0.00301
4144.72730,0.00336
4143.69704,0.00362
4142.66679,0.00347
4141.63653,0.00297
4140.60627,0.00239
4139.57601,0.00202
4138.54575,0.00223
4137.51550,0.00252
4136.48524,0.00240
4135.45498,0.00221
4134.42472,0.00209
4133.39446,0.00217
4132.36421,0.00278
4131.33395,0.00324
4130.30369,0.00311
4129.27343,0.00305
4128.24318,0.00343
4127.21292,0.00382
4126.18266,0.00357
4125.15240,0.00296
4124.12214,0.00262
4123.09189,0.00240
4122.06163,0.00220
4121.03137,0.00218
4120.00111,0.00222
4118.97085,0.00254
4117.94060,0.00311
4116.91034,0.00321
4115.88008,0.00281
4114.84982,0.00274
4113.81957,0.00318
4112.78931,0.00339
4111.75905,0.00280
4110.72879,0.00230
4109.69853,0.00275
4108.66828,0.00316
4107.63802,0.00294
4106.60776,0.00259
4105.57750,0.00227
4104.54724,0.00209
4103.51699,0.00198
4102.48673,0.00193
4101.45647,0.00231
4100.42621,0.00269
4099.39596,0.00266
4098.36570,0.00285
4097.33544,0.00324
4096.30518,0.00322
4095.27492,0.00318
4094.24467,0.00336
4093.21441,0.00344
4092.18415,0.00352
4091.15389,0.00358
4090.12364,0.00332
4089.09338,0.00272
4088.06312,0.00204
4087.03286,0.00178
4086.00260,0.00203
4084.97235,0.00240
4083.94209,0.00256
4082.91183,0.00257
4081.88157,0.00278
4080.85131,0.00302
4079.82106,0.00289
4078.79080,0.00271
4077.76054,0.00294
4076.73028,0.00332
4075.70003,0.00327
4074.66977,0.00299
4073.63951,0.00331
4072.60925,0.00405
4071.57899,0.00432
4070.54874,0.00413
4069.51848,0.00366
4068.48822,0.00307
4067.45796,0.00302
4066.42770,0.00347
4065.39745,0.00375
4064.36719,0.00379
4063.33693,0.00351
4062.30667,0.00315
4061.27642,0.00310
4060.24616,0.00319
4059.21590,0.00307
4058.18564,0.00288
4057.15538,0.00287
4056.12513,0.00304
4055.09487,0.00327
4054.06461,0.00321
4053.03435,0.00281
4052.00409,0.00245
4050.97384,0.00224
4049.94358,0.00219
4048.91332,0.00246
4047.88306,0.00280
4046.85281,0.00284
4045.82255,0.00287
4044.79229,0.00300
4043.76203,0.00284
4042.73177,0.00275
4041.70152,0.00305
4040.67126,0.00324
4039.64100,0.00316
4038.61074,0.00315
4037.58049,0.00343
4036.55023,0.00369
4035.51997,0.00340
4034.48971,0.00295
4033.45945,0.00285
4032.42920,0.00315
4031.39894,0.00389
4030.36868,0.00415
4029.33842,0.00365
4028.30816,0.00356
4027.27791,0.00385
4026.24765,0.00361
4025.21739,0.00297
4024.18713,0.00265
4023.15688,0.00268
4022.12662,0.00295
4021.09636,0.00341
4020.06610,0.00382
4019.03584,0.00423
4018.00559,0.00444
4016.97533,0.00430
4015.94507,0.00419
4014.91481,0.00423
4013.88455,0.00398
4012.85430,0.00342
4011.82404,0.00318
4010.79378,0.00306
4009.76352,0.00280
4008.73327,0.00282
4007.70301,0.00290
4006.67275,0.00277
4005.64249,0.00294
4004.61223,0.00332
4003.58198,0.00327
4002.55172,0.00307
4001.52146,0.00349
4000.49120,0.00417
3999.46095,0.00422
3998.43069,0.00354
3997.40043,0.00286
3996.37017,0.00258
3995.33991,0.00255
3994.30966,0.00252
3993.27940,0.00263
3992.24914,0.00315
3991.21888,0.00357
3990.18862,0.00343
3989.15837,0.00322
3988.12811,0.00336
3987.09785,0.00347
3986.06759,0.00320
3985.03734,0.00279
3984.00708,0.00266
3982.97682,0.00289
3981.94656,0.00317
3980.91630,0.00320
3979.88605,0.00312
3978.85579,0.00325
3977.82553,0.00352
3976.79527,0.00358
3975.76501,0.00320
3974.73476,0.00295
3973.70450,0.00323
3972.67424,0.00352
3971.64398,0.00356
3970.61373,0.00335
3969.58347,0.00295
3968.55321,0.00294
3967.52295,0.00357
3966.49269,0.00395
3965.46244,0.00354
3964.43218,0.00283
3963.40192,0.00254
3962.37166,0.00251
3961.34140,0.00241
3960.31115,0.00251
3959.28089,0.00293
3958.25063,0.00319
3957.22037,0.00305
3956.19012,0.00282
3955.15986,0.00252
3954.12960,0.00239
3953.09934,0.00263
3952.06908,0.00271
3951.03883,0.00258
3950.00857,0.00258
3948.97831,0.00275
3947.94805,0.00293
3946.91780,0.00301
3945.88754,0.00316
3944.85728,0.00331
3943.82702,0.00322
3942.79676,0.00311
3941.76651,0.00297
3940.73625,0.00285
3939.70599,0.00303
3938.67573,0.00334
3937.64547,0.00345
3936.61522,0.00318
3935.58496,0.00267
3934.55470,0.00265
3933.52444,0.00308
3932.49419,0.00309
3931.46393,0.00258
3930.43367,0.00232
3929.40341,0.00260
3928.37315,0.00292
3927.34290,0.00294
3926.31264,0.00283
3925.28238,0.00295
3924.25212,0.00322
3923.22186,0.00346
3922.19161,0.00351
3921.16135,0.00322
3920.13109,0.00315
3919.10083,0.00343
3918.07058,0.00319
3917.04032,0.00237
3916.01006,0.00191
3914.97980,0.00213
3913.94954,0.00270
3912.91929,0.00307
3911.88903,0.00266
3910.85877,0.00188
3909.82851,0.00187
3908.79825,0.00267
3907.76800,0.00323
3906.73774,0.00323
3905.70748,0.00300
3904.67722,0.00290
3903.64697,0.00334
3902.61671,0.00359
3901.58645,0.00313
3900.55619,0.00296
3899.52593,0.00327
3898.49568,0.00322
3897.46542,0.00279
3896.43516,0.00244
3895.40490,0.00228
3894.37465,0.00229
3893.34439,0.00236
3892.31413,0.00236
3891.28387,0.00246
3890.25361,0.00290
3889.22336,0.00355
3888.19310,0.00395
3887.16284,0.00372
3886.13258,0.00311
3885.10232,0.00246
3884.07207,0.00200
3883.04181,0.00196
3882.01155,0.00234
3880.98129,0.00282
3879.95104,0.00298
3878.92078,0.00279
3877.89052,0.00272
3876.86026,0.00294
3875.83000,0.00316
3874.79975,0.00295
3873.76949,0.00267
3872.73923,0.00287
3871.70897,0.00317
3870.67871,0.00336
3869.64846,0.00333
3868.61820,0.00303
3867.58794,0.00278
3866.55768,0.00280
3865.52743,0.00303
3864.49717,0.00304
3863.46691,0.00271
3862.43665,0.00224
3861.40639,0.00203
3860.37614,0.00237
3859.34588,0.00265
3858.31562,0.00248
3857.28536,0.00230
3856.25510,0.00238
3855.22485,0.00225
3854.19459,0.00170
3853.16433,0.00193
3852.13407,0.00292
3851.10382,0.00326
3850.07356,0.00313
3849.04330,0.00314
3848.01304,0.00334
3846.98278,0.00343
3845.95253,0.00334
3844.92227,0.00315
3843.89201,0.00280
3842.86175,0.00225
3841.83150,0.00222
3840.80124,0.00336
3839.77098,0.00446
3838.74072,0.00449
3837.71046,0.00427
3836.68021,0.00391
3835.64995,0.00326
3834.61969,0.00305
3833.58943,0.00348
3832.55917,0.00375
3831.52892,0.00356
3830.49866,0.00339
3829.46840,0.00324
3828.43814,0.00305
3827.40789,0.00291
3826.37763,0.00271
3825.34737,0.00277
3824.31711,0.00289
3823.28685,0.00289
3822.25660,0.00321
3821.22634,0.00370
3820.19608,0.00351
3819.16582,0.00315
3818.13556,0.00331
3817.10531,0.00368
3816.07505,0.00393
3815.04479,0.00398
3814.01453,0.00376
3812.98428,0.00347
3811.95402,0.00325
3810.92376,0.00322
3809.89350,0.00338
3808.86324,0.00343
3807.83299,0.00292
3806.80273,0.00194
3805.77247,0.00179
3804.74221,0.00246
3803.71195,0.00329
3802.68170,0.00402
3801.65144,0.00401
3800.62118,0.00330
3799.59092,0.00321
3798.56067,0.00365
3797.53041,0.00378
3796.50015,0.00367
3795.46989,0.00392
3794.43963,0.00393
3793.40938,0.00349
3792.37912,0.00361
3791.34886,0.00407
3790.31860,0.00381
3789.28835,0.00335
3788.25809,0.00331
3787.22783,0.00346
3786.19757,0.00379
3785.16731,0.00419
3784.13706,0.00408
3783.10680,0.00361
3782.07654,0.00348
3781.04628,0.00363
3780.01602,0.00364
3778.98577,0.00357
3777.95551,0.00358
3776.92525,0.00381
3775.89499,0.00394
3774.86474,0.00342
3773.83448,0.00286
3772.80422,0.00291
3771.77396,0.00320
3770.74370,0.00346
3769.71345,0.00376
3768.68319,0.00401
3767.65293,0.00415
3766.62267,0.00428
3765.59241,0.00438
3764.56216,0.00421
3763.53190,0.00372
3762.50164,0.00331
3761.47138,0.00347
3760.44113,0.00401
3759.41087,0.00408
3758.38061,0.00368
3757.35035,0.00369
3756.32009,0.00384
3755.28984,0.00388
3754.25958,0.00402
3753.22932,0.00401
3752.19906,0.00351
3751.16880,0.00290
3750.13855,0.00240
3749.10829,0.00204
3748.07803,0.00231
3747.04777,0.00288
3746.01752,0.00316
3744.98726,0.00283
3743.95700,0.00288
3742.92674,0.00389
3741.89648,0.00446
3740.86623,0.00449
3739.83597,0.00433
3738.80571,0.00421
3737.77545,0.00412
3736.74520,0.00386
3735.71494,0.00357
3734.68468,0.00352
3733.65442,0.00355
3732.62416,0.00399
3731.59391,0.00464
3730.56365,0.00474
3729.53339,0.00456
3728.50313,0.00433
3727.47287,0.00406
3726.44262,0.00393
3725.41236,0.00394
3724.38210,0.00391
3723.35184,0.00396
3722.32159,0.00419
3721.29133,0.00451
3720.26107,0.00502
3719.23081,0.00540
3718.20055,0.00506
3717.17030,0.00444
3716.14004,0.00448
3715.10978,0.00503
3714.07952,0.00499
3713.04926,0.00436
3712.01901,0.00443
3710.98875,0.00518
3709.95849,0.00537
3708.92823,0.00500
3707.89798,0.00496
3706.86772,0.00534
3705.83746,0.00533
3704.80720,0.00546
3703.77694,0.00644
3702.74669,0.00701
3701.71643,0.00609
3700.68617,0.00512
3699.65591,0.00533
3698.62565,0.00594
3697.59540,0.00626
3696.56514,0.00622
3695.53488,0.00609
3694.50462,0.00633
3693.47437,0.00705
3692.44411,0.00777
3691.41385,0.00811
3690.38359,0.00829
3689.35333,0.00859
3688.32308,0.00864
3687.29282,0.00829
3686.26256,0.00821
3685.23230,0.00840
3684.20205,0.00851
3683.17179,0.00877
3682.14153,0.00929
3681.11127,0.00950
3680.08101,0.00950
3679.05076,0.00968
3678.02050,0.00973
3676.99024,0.00962
3675.95998,0.00995
3674.92972,0.01120
3673.89947,0.01233
3672.86921,0.01287
3671.83895,0.01313
3670.80869,0.01307
3669.77844,0.01303
3668.74818,0.01375
3667.71792,0.01430
3666.68766,0.01442
3665.65740,0.01480
3664.62715,0.01550
3663.59689,0.01622
3662.56663,0.01669
3661.53637,0.01697
3660.50611,0.01726
3659.47586,0.01730
3658.44560,0.01732
3657.41534,0.01807
3656.38508,0.01929
3655.35483,0.02023
3654.32457,0.02062
3653.29431,0.02045
3652.26405,0.02024
3651.23379,0.02084
3650.20354,0.02250
3649.17328,0.02433
3648.14302,0.02529
3647.11276,0.02516
3646.08250,0.02477
3645.05225,0.02476
3644.02199,0.02492
3642.99173,0.02518
3641.96147,0.02546
3640.93122,0.02574
3639.90096,0.02637
3638.87070,0.02733
3637.84044,0.02843
3636.81018,0.02946
3635.77993,0.02987
3634.74967,0.03018
3633.71941,0.03086
3632.68915,0.03114
3631.65890,0.03155
3630.62864,0.03281
3629.59838,0.03419
3628.56812,0.03449
3627.53786,0.03456
3626.50761,0.03511
3625.47735,0.03543
3624.44709,0.03589
3623.41683,0.03655
3622.38657,0.03672
3621.35632,0.03676
3620.32606,0.03709
3619.29580,0.03786
3618.26554,0.03915
3617.23529,0.03995
3616.20503,0.04028
3615.17477,0.04094
3614.14451,0.04171
3613.11425,0.04246
3612.08400,0.04346
3611.05374,0.04456
3610.02348,0.04525
3608.99322,0.04555
3607.96296,0.04627
3606.93271,0.04702
3605.90245,0.04723
3604.87219,0.04754
3603.84193,0.04825
3602.81168,0.04909
3601.78142,0.05019
3600.75116,0.05127
3599.72090,0.05190
3598.69064,0.05253
3597.66039,0.05351
3596.63013,0.05478
3595.59987,0.05546
3594.56961,0.05520
3593.53936,0.05533
3592.50910,0.05657
3591.47884,0.05811
3590.44858,0.05907
3589.41832,0.05950
3588.38807,0.05990
3587.35781,0.06032
3586.32755,0.06071
3585.29729,0.06164
3584.26703,0.06296
3583.23678,0.06390
3582.20652,0.06419
3581.17626,0.06441
3580.14600,0.06521
3579.11575,0.06647
3578.08549,0.06778
3577.05523,0.06910
3576.02497,0.07019
3574.99471,0.07097
3573.96446,0.07138
3572.93420,0.07144
3571.90394,0.07200
3570.87368,0.07346
3569.84342,0.07485
3568.81317,0.07577
3567.78291,0.07633
3566.75265,0.07676
3565.72239,0.07753
3564.69214,0.07842
3563.66188,0.07926
3562.63162,0.08003
3561.60136,0.08100
3560.57110,0.08206
3559.54085,0.08291
3558.51059,0.08379
3557.48033,0.08482
3556.45007,0.08582
3555.41981,0.08674
3554.38956,0.08781
3553.35930,0.08904
3552.32904,0.09017
3551.29878,0.09098
3550.26853,0.09167
3549.23827,0.09275
3548.20801,0.09414
3547.17775,0.09521
3546.14749,0.09576
3545.11724,0.09602
3544.08698,0.09645
3543.05672,0.09760
3542.02646,0.09921
3540.99621,0.10044
3539.96595,0.10107
3538.93569,0.10152
3537.90543,0.10210
3536.87517,0.10302
3535.84492,0.10405
3534.81466,0.10513
3533.78440,0.10665
3532.75414,0.10804
3531.72388,0.10866
3530.69363,0.10893
3529.66337,0.10938
3528.63311,0.11025
3527.60285,0.11179
3526.57260,0.11341
3525.54234,0.11428
3524.51208,0.11460
3523.48182,0.11512
3522.45156,0.11594
3521.42131,0.11675
3520.39105,0.11767
3519.36079,0.11860
3518.33053,0.11940
3517.30027,0.12036
3516.27002,0.12171
3515.23976,0.12322
3514.20950,0.12452
3513.17924,0.12530
3512.14899,0.12577
3511.11873,0.12658
3510.08847,0.12761
3509.05821,0.12832
3508.02795,0.12882
3506.99770,0.12961
3505.96744,0.13058
3504.93718,0.13162
3503.90692,0.13278
3502.87666,0.13358
3501.84641,0.13414
3500.81615,0.13512
3499.78589,0.13615
3498.75563,0.13671
3497.72538,0.13755
3496.69512,0.13900
3495.66486,0.14050
3494.63460,0.14161
3493.60434,0.14223
3492.57409,0.14255
3491.54383,0.14292
3490.51357,0.14371
3489.48331,0.14474
3488.45306,0.14555
3487.42280,0.14625
3486.39254,0.14739
3485.36228,0.14865
3484.33202,0.14944
3483.30177,0.15009
3482.27151,0.15088
3481.24125,0.15174
3480.21099,0.15251
3479.18073,0.15312
3478.15048,0.15372
3477.12022,0.15466
3476.08996,0.15640
3475.05970,0.15814
3474.02945,0.15854
3472.99919,0.15793
3471.96893,0.15773
3470.93867,0.15848
3469.90841,0.15948
3468.87816,0.16061
3467.84790,0.16191
3466.81764,0.16284
3465.78738,0.16348
3464.75712,0.16412
3463.72687,0.16496
3462.69661,0.16604
3461.66635,0.16671
3460.63609,0.16696
3459.60584,0.16753
3458.57558,0.16868
3457.54532,0.16980
3456.51506,0.17040
3455.48480,0.17091
3454.45455,0.17147
3453.42429,0.17188
3452.39403,0.17267
3451.36377,0.17401
3450.33351,0.17520
3449.30326,0.17610
3448.27300,0.17712
3447.24274,0.17779
3446.21248,0.17793
3445.18223,0.17850
3444.15197,0.17979
3443.12171,0.18097
3442.09145,0.18136
3441.06119,0.18142
3440.03094,0.18211
3439.00068,0.18307
3437.97042,0.18368
3436.94016,0.18442
3435.90991,0.18555
3434.87965,0.18650
3433.84939,0.18698
3432.81913,0.18744
3431.78887,0.18797
3430.75862,0.18857
3429.72836,0.18959
3428.69810,0.19070
3427.66784,0.19183
3426.63758,0.19298
3425.60733,0.19363
3424.57707,0.19410
3423.54681,0.19491
3422.51655,0.19581
3421.48630,0.19655
3420.45604,0.19692
3419.42578,0.19704
3418.39552,0.19739
3417.36526,0.19802
3416.33501,0.19875
3415.30475,0.19925
3414.27449,0.19946
3413.24423,0.20011
3412.21397,0.20129
3411.18372,0.20228
3410.15346,0.20297
3409.12320,0.20345
3408.09294,0.20394
3407.06269,0.20472
3406.03243,0.20542
3405.00217,0.20608
3403.97191,0.20677
3402.94165,0.20698
3401.91140,0.20703
3400.88114,0.20756
3399.85088,0.20827
3398.82062,0.20873
3397.79036,0.20937
3396.76011,0.21022
3395.72985,0.21077
3394.69959,0.21107
3393.66933,0.21119
3392.63908,0.21104
3391.60882,0.21127
3390.57856,0.21204
3389.54830,0.21255
3388.51804,0.21286
3387.48779,0.21375
3386.45753,0.21472
3385.42727,0.21474
3384.39701,0.21468
3383.36676,0.21524
3382.33650,0.21541
3381.30624,0.21510
3380.27598,0.21501
3379.24572,0.21532
3378.21547,0.21621
3377.18521,0.21713
3376.15495,0.21739
3375.12469,0.21741
3374.09443,0.21763
3373.06418,0.21799
3372.03392,0.21810
3371.00366,0.21758
3369.97340,0.21684
3368.94315,0.21664
3367.91289,0.21701
3366.88263,0.21769
3365.85237,0.21856
3364.82211,0.21907
3363.79186,0.21895
3362.76160,0.21897
3361.73134,0.21919
3360.70108,0.21931
3359.67082,0.21960
3358.64057,0.21980
3357.61031,0.21983
3356.58005,0.22002
3355.54979,0.22024
3354.51954,0.22034
3353.48928,0.22001
3352.45902,0.21908
3351.42876,0.21846
3350.39850,0.21887
3349.36825,0.21975
3348.33799,0.22022
3347.30773,0.22023
3346.27747,0.22040
3345.24721,0.22088
3344.21696,0.22098
3343.18670,0.22044
3342.15644,0.21998
3341.12618,0.22009
3340.09593,0.22054
3339.06567,0.22035
3338.03541,0.21950
3337.00515,0.21937
3335.97489,0.21995
3334.94464,0.22002
3333.91438,0.21994
3332.88412,0.22048
3331.85386,0.22074
3330.82361,0.22050
3329.79335,0.22038
3328.76309,0.22031
3327.73283,0.22049
3326.70257,0.22084
3325.67232,0.22076
3324.64206,0.22016
3323.61180,0.21976
3322.58154,0.22004
3321.55128,0.22032
3320.52103,0.22014
3319.49077,0.21997
3318.46051,0.22011
3317.43025,0.22010
3316.40000,0.21975
3315.36974,0.21973
3314.33948,0.22013
3313.30922,0.22006
3312.27896,0.21970
3311.24871,0.22005
3310.21845,0.22047
3309.18819,0.22018
3308.15793,0.21979
3307.12767,0.21962
3306.09742,0.21957
3305.06716,0.21969
3304.03690,0.21983
3303.00664,0.21977
3301.97639,0.21986
3300.94613,0.22029
3299.91587,0.22060
3298.88561,0.22079
3297.85535,0.22104
3296.82510,0.22105
3295.79484,0.22086
3294.76458,0.22083
3293.73432,0.22110
3292.70406,0.22138
3291.67381,0.22136
3290.64355,0.22136
3289.61329,0.22177
3288.58303,0.22203
3287.55278,0.22157
3286.52252,0.22109
3285.49226,0.22133
3284.46200,0.22166
3283.43174,0.22132
3282.40149,0.22101
3281.37123,0.22156
3280.34097,0.22241
3279.31071,0.22293
3278.28046,0.22330
3277.25020,0.22342
3276.21994,0.22334
3275.18968,0.22354
3274.15942,0.22366
3273.12917,0.22298
3272.09891,0.22194
3271.06865,0.22116
3270.03839,0.22091
3269.00813,0.22157
3267.97788,0.22265
3266.94762,0.22338
3265.91736,0.22365
3264.88710,0.22309
3263.85685,0.22231
3262.82659,0.22241
3261.79633,0.22295
3260.76607,0.22341
3259.73581,0.22366
3258.70556,0.22359
3257.67530,0.22352
3256.64504,0.22346
3255.61478,0.22334
3254.58452,0.22325
3253.55427,0.22329
3252.52401,0.22331
3251.49375,0.22302
3250.46349,0.22261
3249.43324,0.22238
3248.40298,0.22218
3247.37272,0.22210
3246.34246,0.22242
3245.31220,0.22274
3244.28195,0.22239
3243.25169,0.22147
3242.22143,0.22087
3241.19117,0.22097
3240.16092,0.22130
3239.13066,0.22148
3238.10040,0.22161
3237.07014,0.22165
3236.03988,0.22154
3235.00963,0.22145
3233.97937,0.22121
3232.94911,0.22069
3231.91885,0.22022
3230.88859,0.21993
3229.85834,0.21959
3228.82808,0.21930
3227.79782,0.21937
3226.76756,0.21960
3225.73731,0.21956
3224.70705,0.21928
3223.67679,0.21899
3222.64653,0.21879
3221.61627,0.21863
3220.58602,0.21810
3219.55576,0.21700
3218.52550,0.21594
3217.49524,0.21575
3216.46498,0.21607
3215.43473,0.21582
3214.40447,0.21516
3213.37421,0.21471
3212.34395,0.21454
3211.31370,0.21482
3210.28344,0.21528
3209.25318,0.21518
3208.22292,0.21433
3207.19266,0.21340
3206.16241,0.21308
3205.13215,0.21317
3204.10189,0.21285
3203.07163,0.21203
3202.04137,0.21155
3201.01112,0.21155
3199.98086,0.21154
3198.95060,0.21131
3197.92034,0.21088
3196.89009,0.21017
3195.85983,0.20924
3194.82957,0.20841
3193.79931,0.20779
3192.76905,0.20724
3191.73880,0.20673
3190.70854,0.20645
3189.67828,0.20635
3188.64802,0.20608
3187.61777,0.20549
3186.58751,0.20472
3185.55725,0.20407
3184.52699,0.20367
3183.49673,0.20357
3182.46648,0.20350
3181.43622,0.20307
3180.40596,0.20252
3179.37570,0.20190
3178.34544,0.20091
3177.31519,0.20001
3176.28493,0.19956
3175.25467,0.19923
3174.22441,0.19899
3173.19416,0.19896
3172.16390,0.19900
3171.13364,0.19874
3170.10338,0.19809
3169.07312,0.19736
3168.04287,0.19655
3167.01261,0.19577
3165.98235,0.19531
3164.95209,0.19512
3163.92183,0.19485
3162.89158,0.19433
3161.86132,0.19366
3160.83106,0.19311
3159.80080,0.19250
3158.77055,0.19153
3157.74029,0.19089
3156.71003,0.19088
3155.67977,0.19060
3154.64951,0.18979
3153.61926,0.18924
3152.58900,0.18900
3151.55874,0.18846
3150.52848,0.18793
3149.49822,0.18780
3148.46797,0.18747
3147.43771,0.18684
3146.40745,0.18636
3145.37719,0.18563
3144.34694,0.18443
3143.31668,0.18343
3142.28642,0.18325
3141.25616,0.18361
3140.22590,0.18362
3139.19565,0.18277
3138.16539,0.18172
3137.13513,0.18131
3136.10487,0.18087
3135.07462,0.17980
3134.04436,0.17888
3133.01410,0.17880
3131.98384,0.17918
3130.95358,0.17900
3129.92333,0.17813
3128.89307,0.17744
3127.86281,0.17714
3126.83255,0.17645
3125.80229,0.17506
3124.77204,0.17390
3123.74178,0.17359
3122.71152,0.17368
3121.68126,0.17364
3120.65101,0.17335
3119.62075,0.17301
3118.59049,0.17244
3117.56023,0.17172
3116.52997,0.17100
3115.49972,0.17007
3114.46946,0.16932
3113.43920,0.16903
3112.40894,0.16887
3111.37868,0.16859
3110.34843,0.16809
3109.31817,0.16726
3108.28791,0.16636
3107.25765,0.16601
3106.22740,0.16602
3105.19714,0.16567
3104.16688,0.16516
3103.13662,0.16477
3102.10636,0.16402
3101.07611,0.16312
3100.04585,0.16269
3099.01559,0.16260
3097.98533,0.16233
3096.95507,0.16178
3095.92482,0.16087
3094.89456,0.15965
3093.86430,0.15884
3092.83404,0.15870
3091.80379,0.15868
3090.77353,0.15812
3089.74327,0.15722
3088.71301,0.15670
3087.68275,0.15651
3086.65250,0.15624
3085.62224,0.15556
3084.59198,0.15475
3083.56172,0.15441
3082.53147,0.15421
3081.50121,0.15390
3080.47095,0.15348
3079.44069,0.15281
3078.41043,0.15212
3077.38018,0.15161
3076.34992,0.15116
3075.31966,0.15076
3074.28940,0.15029
3073.25914,0.14955
3072.22889,0.14881
3071.19863,0.14829
3070.16837,0.14799
3069.13811,0.14785
3068.10786,0.14728
3067.07760,0.14624
3066.04734,0.14551
3065.01708,0.14527
3063.98682,0.14496
3062.95657,0.14447
3061.92631,0.14420
3060.89605,0.14411
3059.86579,0.14377
3058.83553,0.14305
3057.80528,0.14221
3056.77502,0.14154
3055.74476,0.14125
3054.71450,0.14126
3053.68425,0.14111
3052.65399,0.14044
3051.62373,0.13952
3050.59347,0.13877
3049.56321,0.13829
3048.53296,0.13809
3047.50270,0.13813
3046.47244,0.13813
3045.44218,0.13783
3044.41192,0.13745
3043.38167,0.13730
3042.35141,0.13701
3041.32115,0.13641
3040.29089,0.13581
3039.26064,0.13525
3038.23038,0.13485
3037.20012,0.13492
3036.16986,0.13491
3035.13960,0.13423
3034.10935,0.13345
3033.07909,0.13332
3032.04883,0.13356
3031.01857,0.13337
3029.98832,0.13301
3028.95806,0.13301
3027.92780,0.13284
3026.89754,0.13226
3025.86728,0.13151
3024.83703,0.13051
3023.80677,0.12961
3022.77651,0.12910
3021.74625,0.12863
3020.71599,0.12809
3019.68574,0.12750
3018.65548,0.12661
3017.62522,0.12562
3016.59496,0.12494
3015.56471,0.12438
3014.53445,0.12374
3013.50419,0.12303
3012.47393,0.12223
3011.44367,0.12151
3010.41342,0.12103
3009.38316,0.12091
3008.35290,0.12075
3007.32264,0.12001
3006.29238,0.11922
3005.26213,0.11871
3004.23187,0.11787
3003.20161,0.11679
3002.17135,0.11629
3001.14110,0.11636
3000.11084,0.11619
2999.08058,0.11554
2998.05032,0.11487
2997.02006,0.11424
2995.98981,0.11355
2994.95955,0.11310
2993.92929,0.11282
2992.89903,0.11236
2991.86877,0.11205
2990.83852,0.11215
2989.80826,0.11219
2988.77800,0.11194
2987.74774,0.11149
2986.71749,0.11052
2985.68723,0.10951
2984.65697,0.10937
2983.62671,0.10951
2982.59645,0.10930
2981.56620,0.10933
2980.53594,0.10965
2979.50568,0.10959
2978.47542,0.10944
2977.44517,0.10989
2976.41491,0.11053
2975.38465,0.11073
2974.35439,0.11063
2973.32413,0.11062
2972.29388,0.11075
2971.26362,0.11112
2970.23336,0.11169
2969.20310,0.11204
2968.17284,0.11245
2967.14259,0.11324
2966.11233,0.11395
2965.08207,0.11452
2964.05181,0.11507
2963.02156,0.11551
2961.99130,0.11613
2960.96104,0.11672
2959.93078,0.11674
2958.90052,0.11642
2957.87027,0.11614
2956.84001,0.11581
2955.80975,0.11533
2954.77949,0.11510
2953.74923,0.11540
2952.71898,0.11558
2951.68872,0.11534
2950.65846,0.11509
2949.62820,0.11487
2948.59795,0.11432
2947.56769,0.11381
2946.53743,0.11364
2945.50717,0.11308
2944.47691,0.11208
2943.44666,0.11156
2942.41640,0.11133
2941.38614,0.11092
2940.35588,0.11075
2939.32562,0.11098
2938.29537,0.11129
2937.26511,0.11136
2936.23485,0.11096
2935.20459,0.11025
2934.17434,0.10980
2933.14408,0.10975
2932.11382,0.10987
2931.08356,0.11005
2930.05330,0.11012
2929.02305,0.11010
2927.99279,0.10997
2926.96253,0.10981
2925.93227,0.10982
2924.90202,0.10990
2923.87176,0.10988
2922.84150,0.10981
2921.81124,0.10979
2920.78098,0.10975
2919.75073,0.10973
2918.72047,0.10972
2917.69021,0.10960
2916.65995,0.10959
2915.62969,0.10983
2914.59944,0.10975
2913.56918,0.10908
2912.53892,0.10833
2911.50866,0.10800
2910.47841,0.10793
2909.44815,0.10772
2908.41789,0.10715
2907.38763,0.10646
2906.35737,0.10607
2905.32712,0.10595
2904.29686,0.10579
2903.26660,0.10563
2902.23634,0.10547
2901.20608,0.10518
2900.17583,0.10489
2899.14557,0.10454
2898.11531,0.10413
2897.08505,0.10409
2896.05480,0.10424
2895.02454,0.10408
2893.99428,0.10377
2892.96402,0.10336
2891.93376,0.10279
2890.90351,0.10218
2889.87325,0.10190
2888.84299,0.10214
2887.81273,0.10240
2886.78247,0.10242
2885.75222,0.10231
2884.72196,0.10225
2883.69170,0.10237
2882.66144,0.10260
2881.63119,0.10282
2880.60093,0.10291
2879.57067,0.10280
2878.54041,0.10265
2877.51015,0.10240
2876.47990,0.10174
2875.44964,0.10088
2874.41938,0.10034
2873.38912,0.10012
2872.35887,0.09983
2871.32861,0.09928
2870.29835,0.09869
2869.26809,0.09842
2868.23783,0.09820
2867.20758,0.09732
2866.17732,0.09603
2865.14706,0.09495
2864.11680,0.09401
2863.08654,0.09291
2862.05629,0.09153
2861.02603,0.09003
2859.99577,0.08885
2858.96551,0.08784
2857.93526,0.08642
2856.90500,0.08495
2855.87474,0.08397
2854.84448,0.08323
2853.81422,0.08212
2852.78397,0.08060
2851.75371,0.07920
2850.72345,0.07812
2849.69319,0.07710
2848.66293,0.07609
2847.63268,0.07517
2846.60242,0.07428
2845.57216,0.07344
2844.54190,0.07264
2843.51165,0.07167
2842.48139,0.07071
2841.45113,0.07003
2840.42087,0.06939
2839.39061,0.06850
2838.36036,0.06763
2837.33010,0.06697
2836.29984,0.06631
2835.26958,0.06560
2834.23933,0.06490
2833.20907,0.06423
2832.17881,0.06360
2831.14855,0.06304
2830.11829,0.06255
2829.08804,0.06210
2828.05778,0.06185
2827.02752,0.06180
2825.99726,0.06145
2824.96700,0.06058
2823.93675,0.05958
2822.90649,0.05872
2821.87623,0.05823
2820.84597,0.05820
2819.81572,0.05818
2818.78546,0.05791
2817.75520,0.05752
2816.72494,0.05694
2815.69468,0.05603
2814.66443,0.05523
2813.63417,0.05486
2812.60391,0.05465
2811.57365,0.05434
2810.54339,0.05384
2809.51314,0.05329
2808.48288,0.05285
2807.45262,0.05242
2806.42236,0.05207
2805.39211,0.05177
2804.36185,0.05132
2803.33159,0.05084
2802.30133,0.05034
2801.27107,0.04986
2800.24082,0.04958
2799.21056,0.04932
2798.18030,0.04912
2797.15004,0.04904
2796.11978,0.04856
2795.08953,0.04784
2794.05927,0.04754
2793.02901,0.04745
2791.99875,0.04710
2790.96850,0.04642
2789.93824,0.04592
2788.90798,0.04585
2787.87772,0.04562
2786.84746,0.04494
2785.81721,0.04426
2784.78695,0.04393
2783.75669,0.04388
2782.72643,0.04386
2781.69618,0.04359
2780.66592,0.04307
2779.63566,0.04251
2778.60540,0.04206
2777.57514,0.04181
2776.54489,0.04165
2775.51463,0.04158
2774.48437,0.04145
2773.45411,0.04108
2772.42385,0.04073
2771.39360,0.04061
2770.36334,0.04052
2769.33308,0.04031
2768.30282,0.03985
2767.27257,0.03933
2766.24231,0.03901
2765.21205,0.03878
2764.18179,0.03873
2763.15153,0.03889
2762.12128,0.03886
2761.09102,0.03846
2760.06076,0.03800
2759.03050,0.03783
2758.00024,0.03767
2756.96999,0.03707
2755.93973,0.03637
2754.90947,0.03601
2753.87921,0.03588
2752.84896,0.03590
2751.81870,0.03592
2750.78844,0.03584
2749.75818,0.03570
2748.72792,0.03555
2747.69767,0.03542
2746.66741,0.03537
2745.63715,0.03527
2744.60689,0.03487
2743.57663,0.03433
2742.54638,0.03394
2741.51612,0.03375
2740.48586,0.03370
2739.45560,0.03376
2738.42535,0.03380
2737.39509,0.03375
2736.36483,0.03364
2735.33457,0.03339
2734.30431,0.03299
2733.27406,0.03256
2732.24380,0.03235
2731.21354,0.03234
2730.18328,0.03215
2729.15303,0.03180
2728.12277,0.03166
2727.09251,0.03169
2726.06225,0.03137
2725.03199,0.03069
2724.00174,0.03037
2722.97148,0.03065
2721.94122,0.03093
2720.91096,0.03087
2719.88070,0.03063
2718.85045,0.03042
2717.82019,0.03020
2716.78993,0.02977
2715.75967,0.02925
2714.72942,0.02897
2713.69916,0.02887
2712.66890,0.02866
2711.63864,0.02847
2710.60838,0.02832
2709.57813,0.02811
2708.54787,0.02794
2707.51761,0.02789
2706.48735,0.02782
2705.45709,0.02759
2704.42684,0.02728
2703.39658,0.02709
2702.36632,0.02708
2701.33606,0.02708
2700.30581,0.02685
2699.27555,0.02653
2698.24529,0.02635
2697.21503,0.02617
2696.18477,0.02589
2695.15452,0.02562
2694.12426,0.02544
2693.09400,0.02526
2692.06374,0.02502
2691.03348,0.02494
2690.00323,0.02496
2688.97297,0.02481
2687.94271,0.02457
2686.91245,0.02436
2685.88220,0.02425
2684.85194,0.02432
2683.82168,0.02440
2682.79142,0.02425
2681.76116,0.02399
2680.73091,0.02385
2679.70065,0.02368
2678.67039,0.02335
2677.64013,0.02302
2676.60988,0.02285
2675.57962,0.02276
2674.54936,0.02259
2673.51910,0.02238
2672.48884,0.02235
2671.45859,0.02242
2670.42833,0.02231
2669.39807,0.02213
2668.36781,0.02213
2667.33755,0.02216
2666.30730,0.02196
2665.27704,0.02154
2664.24678,0.02115
2663.21652,0.02101
2662.18627,0.02096
2661.15601,0.02087
2660.12575,0.02085
2659.09549,0.02075
2658.06523,0.02050
2657.03498,0.02038
2656.00472,0.02031
2654.97446,0.02014
2653.94420,0.02010
2652.91394,0.02016
2651.88369,0.02008
2650.85343,0.02000
2649.82317,0.01996
2648.79291,0.01976
2647.76266,0.01949
2646.73240,0.01942
2645.70214,0.01970
2644.67188,0.01994
2643.64162,0.01963
2642.61137,0.01896
2641.58111,0.01855
2640.55085,0.01864
2639.52059,0.01896
2638.49033,0.01901
2637.46008,0.01866
2636.42982,0.01823
2635.39956,0.01791
2634.36930,0.01757
2633.33905,0.01742
2632.30879,0.01747
2631.27853,0.01752
2630.24827,0.01753
2629.21801,0.01742
2628.18776,0.01739
2627.15750,0.01737
2626.12724,0.01714
2625.09698,0.01711
2624.06673,0.01724
2623.03647,0.01732
2622.00621,0.01738
2620.97595,0.01725
2619.94569,0.01701
2618.91544,0.01687
2617.88518,0.01675
2616.85492,0.01659
2615.82466,0.01652
2614.79440,0.01643
2613.76415,0.01623
2612.73389,0.01620
2611.70363,0.01613
2610.67337,0.01583
2609.64312,0.01566
2608.61286,0.01564
2607.58260,0.01571
2606.55234,0.01589
2605.52208,0.01614
2604.49183,0.01655
2603.46157,0.01679
2602.43131,0.01656
2601.40105,0.01636
2600.37079,0.01627
2599.34054,0.01572
2598.31028,0.01508
2597.28002,0.01516
2596.24976,0.01583
2595.21951,0.01637
2594.18925,0.01636
2593.15899,0.01610
2592.12873,0.01585
2591.09847,0.01535
2590.06822,0.01493
2589.03796,0.01504
2588.00770,0.01536
2586.97744,0.01539
2585.94718,0.01518
2584.91693,0.01508
2583.88667,0.01511
2582.85641,0.01502
2581.82615,0.01476
2580.79590,0.01447
2579.76564,0.01426
2578.73538,0.01443
2577.70512,0.01494
2576.67486,0.01520
2575.64461,0.01513
2574.61435,0.01510
2573.58409,0.01511
2572.55383,0.01486
2571.52358,0.01436
2570.49332,0.01400
2569.46306,0.01417
2568.43280,0.01451
2567.40254,0.01467
2566.37229,0.01509
2565.34203,0.01559
2564.31177,0.01517
2563.28151,0.01401
2562.25125,0.01345
2561.22100,0.01390
2560.19074,0.01445
2559.16048,0.01466
2558.13022,0.01478
2557.09997,0.01470
2556.06971,0.01455
2555.03945,0.01449
2554.00919,0.01406
2552.97893,0.01362
2551.94868,0.01383
2550.91842,0.01421
2549.88816,0.01424
2548.85790,0.01397
2547.82764,0.01370
2546.79739,0.01402
2545.76713,0.01457
2544.73687,0.01432
2543.70661,0.01386
2542.67636,0.01422
2541.64610,0.01475
2540.61584,0.01468
2539.58558,0.01426
2538.55532,0.01379
2537.52507,0.01356
2536.49481,0.01367
2535.46455,0.01373
2534.43429,0.01380
2533.40403,0.01393
2532.37378,0.01406
2531.34352,0.01428
2530.31326,0.01435
2529.28300,0.01401
2528.25275,0.01367
2527.22249,0.01399
2526.19223,0.01465
2525.16197,0.01455
2524.13171,0.01390
2523.10146,0.01364
2522.07120,0.01390
2521.04094,0.01443
2520.01068,0.01452
2518.98043,0.01425
2517.95017,0.01425
2516.91991,0.01428
2515.88965,0.01399
2514.85939,0.01364
2513.82914,0.01396
2512.79888,0.01463
2511.76862,0.01454
2510.73836,0.01385
2509.70810,0.01348
2508.67785,0.01352
2507.64759,0.01364
2506.61733,0.01371
2505.58707,0.01362
2504.55682,0.01335
2503.52656,0.01330
2502.49630,0.01357
2501.46604,0.01367
2500.43578,0.01357
2499.40553,0.01378
2498.37527,0.01434
2497.34501,0.01464
2496.31475,0.01443
2495.28449,0.01385
2494.25424,0.01321
2493.22398,0.01297
2492.19372,0.01344
2491.16346,0.01410
2490.13321,0.01394
2489.10295,0.01329
2488.07269,0.01307
2487.04243,0.01316
2486.01217,0.01317
2484.98192,0.01301
2483.95166,0.01279
2482.92140,0.01284
2481.89114,0.01301
2480.86088,0.01316
2479.83063,0.01357
2478.80037,0.01383
2477.77011,0.01349
2476.73985,0.01327
2475.70960,0.01356
2474.67934,0.01352
2473.64908,0.01301
2472.61882,0.01269
2471.58856,0.01269
2470.55831,0.01278
2469.52805,0.01303
2468.49779,0.01349
2467.46753,0.01390
2466.43728,0.01409
2465.40702,0.01398
2464.37676,0.01353
2463.34650,0.01328
2462.31624,0.01356
2461.28599,0.01374
2460.25573,0.01346
2459.22547,0.01315
2458.19521,0.01328
2457.16495,0.01372
2456.13470,0.01424
2455.10444,0.01444
2454.07418,0.01410
2453.04392,0.01411
2452.01367,0.01491
2450.98341,0.01516
2449.95315,0.01441
2448.92289,0.01379
2447.89263,0.01355
2446.86238,0.01345
2445.83212,0.01388
2444.80186,0.01461
2443.77160,0.01475
2442.74134,0.01434
2441.71109,0.01388
2440.68083,0.01395
2439.65057,0.01448
2438.62031,0.01450
2437.59006,0.01427
2436.55980,0.01442
2435.52954,0.01443
2434.49928,0.01416
2433.46902,0.01386
2432.43877,0.01363
2431.40851,0.01368
2430.37825,0.01396
2429.34799,0.01431
2428.31774,0.01447
2427.28748,0.01459
2426.25722,0.01506
2425.22696,0.01563
2424.19670,0.01592
2423.16645,0.01566
2422.13619,0.01472
2421.10593,0.01378
2420.07567,0.01400
2419.04541,0.01484
2418.01516,0.01504
2416.98490,0.01506
2415.95464,0.01539
2414.92438,0.01557
2413.89413,0.01549
2412.86387,0.01553
2411.83361,0.01577
2410.80335,0.01563
2409.77309,0.01504
2408.74284,0.01441
2407.71258,0.01411
2406.68232,0.01455
2405.65206,0.01518
2404.62180,0.01538
2403.59155,0.01541
2402.56129,0.01539
2401.53103,0.01563
2400.50077,0.01598
2399.47052,0.01584
2398.44026,0.01555
2397.41000,0.01555
2396.37974,0.01568
2395.34948,0.01593
2394.31923,0.01639
2393.28897,0.01664
2392.25871,0.01648
2391.22845,0.01642
2390.19819,0.01649
2389.16794,0.01623
2388.13768,0.01593
2387.10742,0.01577
2386.07716,0.01569
2385.04691,0.01569
2384.01665,0.01588
2382.98639,0.01637
2381.95613,0.01673
2380.92587,0.01658
2379.89562,0.01636
2378.86536,0.01637
2377.83510,0.01657
2376.80484,0.01669
2375.77459,0.01659
2374.74433,0.01654
2373.71407,0.01671
2372.68381,0.01660
2371.65355,0.01579
2370.62330,0.01555
2369.59304,0.01668
2368.56278,0.01778
2367.53252,0.01756
2366.50226,0.01621
2365.47201,0.01568
2364.44175,0.01636
2363.41149,0.01687
2362.38123,0.01730
2361.35098,0.01793
2360.32072,0.01866
2359.29046,0.01945
2358.26020,0.01933
2357.22994,0.01817
2356.19969,0.01769
2355.16943,0.01760
2354.13917,0.01677
2353.10891,0.01655
2352.07865,0.01721
2351.04840,0.01752
2350.01814,0.01772
2348.98788,0.01813
2347.95762,0.01848
2346.92737,0.01886
2345.89711,0.01911
2344.86685,0.01911
2343.83659,0.01921
2342.80633,0.01923
2341.77608,0.01917
2340.74582,0.01950
2339.71556,0.01998
2338.68530,0.01972
2337.65504,0.01888
2336.62479,0.01822
2335.59453,0.01789
2334.56427,0.01765
2333.53401,0.01757
2332.50376,0.01800
2331.47350,0.01886
2330.44324,0.01958
2329.41298,0.01978
2328.38272,0.01969
2327.35247,0.01962
2326.32221,0.01946
2325.29195,0.01915
2324.26169,0.01883
2323.23144,0.01874
2322.20118,0.01907
2321.17092,0.01952
2320.14066,0.01962
2319.11040,0.01949
2318.08015,0.01948
2317.04989,0.01942
2316.01963,0.01927
2314.98937,0.01916
2313.95911,0.01872
2312.92886,0.01819
2311.89860,0.01814
2310.86834,0.01805
2309.83808,0.01798
2308.80783,0.01838
2307.77757,0.01869
2306.74731,0.01851
2305.71705,0.01847
2304.68679,0.01890
2303.65654,0.01901
2302.62628,0.01876
2301.59602,0.01887
2300.56576,0.01895
2299.53550,0.01865
2298.50525,0.01828
2297.47499,0.01822
2296.44473,0.01853
2295.41447,0.01914
2294.38422,0.01992
2293.35396,0.02018
2292.32370,0.01986
2291.29344,0.01974
2290.26318,0.01979
2289.23293,0.01988
2288.20267,0.02033
2287.17241,0.02095
2286.14215,0.02117
2285.11189,0.02076
2284.08164,0.02026
2283.05138,0.02024
2282.02112,0.02044
2280.99086,0.02067
2279.96061,0.02066
2278.93035,0.01993
2277.90009,0.01920
2276.86983,0.01937
2275.83957,0.01998
2274.80932,0.02044
2273.77906,0.02066
2272.74880,0.02077
2271.71854,0.02081
2270.68829,0.02075
2269.65803,0.02097
2268.62777,0.02170
2267.59751,0.02178
2266.56725,0.02049
2265.53700,0.01942
2264.50674,0.01946
2263.47648,0.01985
2262.44622,0.02010
2261.41596,0.02017
2260.38571,0.02036
2259.35545,0.02040
2258.32519,0.02026
2257.29493,0.02083
2256.26468,0.02161
2255.23442,0.02180
2254.20416,0.02158
2253.17390,0.02105
2252.14364,0.02046
2251.11339,0.02045
2250.08313,0.02102
2249.05287,0.02161
2248.02261,0.02202
2246.99235,0.02171
2245.96210,0.02040
2244.93184,0.01954
2243.90158,0.01955
2242.87132,0.01989
2241.84107,0.02114
2240.81081,0.02215
2239.78055,0.02158
2238.75029,0.02096
2237.72003,0.02127
2236.68978,0.02178
2235.65952,0.02210
2234.62926,0.02212
2233.59900,0.02186
2232.56874,0.02165
2231.53849,0.02200
2230.50823,0.02276
2229.47797,0.02305
2228.44771,0.02260
2227.41746,0.02161
2226.38720,0.02070
2225.35694,0.02032
2224.32668,0.02010
2223.29642,0.02011
2222.26617,0.02073
2221.23591,0.02181
2220.20565,0.02250
2219.17539,0.02214
2218.14514,0.02130
2217.11488,0.02127
2216.08462,0.02189
2215.05436,0.02150
2214.02410,0.02051
2212.99385,0.02043
2211.96359,0.02049
2210.93333,0.02079
2209.90307,0.02152
2208.87281,0.02130
2207.84256,0.02063
2206.81230,0.02026
2205.78204,0.01983
2204.75178,0.01907
2203.72153,0.01889
2202.69127,0.01971
2201.66101,0.02020
2200.63075,0.02090
2199.60049,0.02234
2198.57024,0.02292
2197.53998,0.02233
2196.50972,0.02172
2195.47946,0.02173
2194.44920,0.02242
2193.41895,0.02292
2192.38869,0.02233
2191.35843,0.02135
2190.32817,0.02089
2189.29792,0.02092
2188.26766,0.02153
2187.23740,0.02249
2186.20714,0.02317
2185.17688,0.02334
2184.14663,0.02278
2183.11637,0.02206
2182.08611,0.02222
2181.05585,0.02252
2180.02559,0.02191
2178.99534,0.02125
2177.96508,0.02139
2176.93482,0.02142
2175.90456,0.02021
2174.87431,0.01845
2173.84405,0.01846
2172.81379,0.02028
2171.78353,0.02111
2170.75327,0.02066
2169.72302,0.02064
2168.69276,0.02134
2167.66250,0.02207
2166.63224,0.02172
2165.60199,0.02002
2164.57173,0.01910
2163.54147,0.01978
2162.51121,0.02039
2161.48095,0.02075
2160.45070,0.02181
2159.42044,0.02345
2158.39018,0.02288
2157.35992,0.02077
2156.32966,0.02092
2155.29941,0.02156
2154.26915,0.02003
2153.23889,0.01818
2152.20863,0.01902
2151.17838,0.02080
2150.14812,0.01965
2149.11786,0.01653
2148.08760,0.01558
2147.05734,0.01825
2146.02709,0.02138
2144.99683,0.02212
2143.96657,0.02174
2142.93631,0.02163
2141.90605,0.02112
2140.87580,0.02072
2139.84554,0.02123
2138.81528,0.02198
2137.78502,0.02216
2136.75477,0.02144
2135.72451,0.02045
2134.69425,0.02069
2133.66399,0.02173
2132.63373,0.02141
2131.60348,0.02066
2130.57322,0.02092
2129.54296,0.02115
2128.51270,0.02083
2127.48244,0.02036
2126.45219,0.02014
2125.42193,0.02022
2124.39167,0.02072
2123.36141,0.02151
2122.33116,0.02157
2121.30090,0.02103
2120.27064,0.02091
2119.24038,0.02070
2118.21012,0.02029
2117.17987,0.02034
2116.14961,0.02018
2115.11935,0.01968
2114.08909,0.01948
2113.05884,0.01971
2112.02858,0.02004
2110.99832,0.01989
2109.96806,0.01961
2108.93780,0.01985
2107.90755,0.02047
2106.87729,0.02112
2105.84703,0.02111
2104.81677,0.02021
2103.78651,0.01979
2102.75626,0.02005
2101.72600,0.01933
2100.69574,0.01803
2099.66548,0.01758
2098.63523,0.01774
2097.60497,0.01799
2096.57471,0.01843
2095.54445,0.01907
2094.51419,0.01966
2093.48394,0.01996
2092.45368,0.01951
2091.42342,0.01848
2090.39316,0.01850
2089.36290,0.01950
2088.33265,0.01999
2087.30239,0.01983
2086.27213,0.01923
2085.24187,0.01870
2084.21162,0.01831
2083.18136,0.01806
2082.15110,0.01859
2081.12084,0.01919
2080.09058,0.01884
2079.06033,0.01791
2078.03007,0.01704
2076.99981,0.01675
2075.96955,0.01683
2074.93930,0.01673
2073.90904,0.01623
2072.87878,0.01534
2071.84852,0.01479
2070.81826,0.01492
2069.78801,0.01595
2068.75775,0.01748
2067.72749,0.01778
2066.69723,0.01691
2065.66697,0.01624
2064.63672,0.01631
2063.60646,0.01668
2062.57620,0.01669
2061.54594,0.01659
2060.51569,0.01696
2059.48543,0.01756
2058.45517,0.01790
2057.42491,0.01770
2056.39465,0.01697
2055.36440,0.01593
2054.33414,0.01474
2053.30388,0.01393
2052.27362,0.01371
2051.24336,0.01405
2050.21311,0.01486
2049.18285,0.01602
2048.15259,0.01620
2047.12233,0.01490
2046.09208,0.01417
2045.06182,0.01413
2044.03156,0.01550
2043.00130,0.01816
2041.97104,0.01840
2040.94079,0.01634
2039.91053,0.01506
2038.88027,0.01502
2037.85001,0.01537
2036.81975,0.01534
2035.78950,0.01527
2034.75924,0.01546
2033.72898,0.01461
2032.69872,0.01326
2031.66847,0.01218
2030.63821,0.01115
2029.60795,0.01115
2028.57769,0.01159
2027.54743,0.01119
2026.51718,0.01100
2025.48692,0.01238
2024.45666,0.01409
2023.42640,0.01430
2022.39615,0.01339
2021.36589,0.01339
2020.33563,0.01520
2019.30537,0.01676
2018.27511,0.01666
2017.24486,0.01599
2016.21460,0.01563
2015.18434,0.01544
2014.15408,0.01479
2013.12382,0.01419
2012.09357,0.01440
2011.06331,0.01432
2010.03305,0.01376
2009.00279,0.01434
2007.97254,0.01544
2006.94228,0.01387
2005.91202,0.01078
2004.88176,0.01062
2003.85150,0.01261
2002.82125,0.01270
2001.79099,0.01156
2000.76073,0.01271
1999.73047,0.01480
1998.70021,0.01490
1997.66996,0.01383
1996.63970,0.01314
1995.60944,0.01314
1994.57918,0.01414
1993.54893,0.01520
1992.51867,0.01545
1991.48841,0.01540
1990.45815,0.01446
1989.42789,0.01321
1988.39764,0.01319
1987.36738,0.01357
1986.33712,0.01374
1985.30686,0.01388
1984.27660,0.01306
1983.24635,0.01220
1982.21609,0.01205
1981.18583,0.01110
1980.15557,0.01036
1979.12532,0.01205
1978.09506,0.01401
1977.06480,0.01311
1976.03454,0.01105
1975.00428,0.00972
1973.97403,0.00926
1972.94377,0.01033
1971.91351,0.01151
1970.88325,0.01173
1969.85300,0.01249
1968.82274,0.01294
1967.79248,0.01212
1966.76222,0.01183
1965.73196,0.01224
1964.70171,0.01309
1963.67145,0.01397
1962.64119,0.01423
1961.61093,0.01440
1960.58067,0.01397
1959.55042,0.01293
1958.52016,0.01259
1957.48990,0.01262
1956.45964,0.01198
1955.42939,0.01146
1954.39913,0.01165
1953.36887,0.01176
1952.33861,0.01197
1951.30835,0.01255
1950.27810,0.01285
1949.24784,0.01285
1948.21758,0.01337
1947.18732,0.01444
1946.15706,0.01488
1945.12681,0.01381
1944.09655,0.01216
1943.06629,0.01187
1942.03603,0.01303
1941.00578,0.01393
1939.97552,0.01365
1938.94526,0.01290
1937.91500,0.01308
1936.88474,0.01376
1935.85449,0.01382
1934.82423,0.01344
1933.79397,0.01275
1932.76371,0.01229
1931.73345,0.01293
1930.70320,0.01381
1929.67294,0.01378
1928.64268,0.01323
1927.61242,0.01295
1926.58217,0.01331
1925.55191,0.01370
1924.52165,0.01346
1923.49139,0.01309
1922.46113,0.01289
1921.43088,0.01263
1920.40062,0.01241
1919.37036,0.01255
1918.34010,0.01305
1917.30985,0.01324
1916.27959,0.01284
1915.24933,0.01249
1914.21907,0.01241
1913.18881,0.01252
1912.15856,0.01309
1911.12830,0.01379
1910.09804,0.01427
1909.06778,0.01421
1908.03752,0.01319
1907.00727,0.01215
1905.97701,0.01223
1904.94675,0.01313
1903.91649,0.01393
1902.88624,0.01420
1901.85598,0.01392
1900.82572,0.01351
1899.79546,0.01346
1898.76520,0.01355
1897.73495,0.01347
1896.70469,0.01371
1895.67443,0.01445
1894.64417,0.01495
1893.61391,0.01471
1892.58366,0.01424
1891.55340,0.01424
1890.52314,0.01447
1889.49288,0.01448
1888.46263,0.01448
1887.43237,0.01455
1886.40211,0.01451
1885.37185,0.01430
1884.34159,0.01410
1883.31134,0.01410
1882.28108,0.01412
1881.25082,0.01376
1880.22056,0.01327
1879.19030,0.01319
1878.16005,0.01351
1877.12979,0.01439
1876.09953,0.01509
1875.06927,0.01475
1874.03902,0.01421
1873.00876,0.01419
1871.97850,0.01453
1870.94824,0.01495
1869.91798,0.01494
1868.88773,0.01436
1867.85747,0.01388
1866.82721,0.01374
1865.79695,0.01372
1864.76670,0.01376
1863.73644,0.01376
1862.70618,0.01366
1861.67592,0.01341
1860.64566,0.01314
1859.61541,0.01316
1858.58515,0.01352
1857.55489,0.01393
1856.52463,0.01424
1855.49437,0.01456
1854.46412,0.01454
1853.43386,0.01409
1852.40360,0.01359
1851.37334,0.01319
1850.34309,0.01335
1849.31283,0.01402
1848.28257,0.01423
1847.25231,0.01357
1846.22205,0.01301
1845.19180,0.01315
1844.16154,0.01335
1843.13128,0.01335
1842.10102,0.01350
1841.07076,0.01347
1840.04051,0.01335
1839.01025,0.01337
1837.97999,0.01339
1836.94973,0.01368
1835.91948,0.01414
1834.88922,0.01408
1833.85896,0.01379
1832.82870,0.01393
1831.79844,0.01416
1830.76819,0.01404
1829.73793,0.01386
1828.70767,0.01415
1827.67741,0.01460
1826.64715,0.01492
1825.61690,0.01492
1824.58664,0.01436
1823.55638,0.01400
1822.52612,0.01433
1821.49587,0.01495
1820.46561,0.01538
1819.43535,0.01544
1818.40509,0.01511
1817.37483,0.01490
1816.34458,0.01508
1815.31432,0.01520
1814.28406,0.01511
1813.25380,0.01509
1812.22355,0.01535
1811.19329,0.01583
1810.16303,0.01617
1809.13277,0.01611
1808.10251,0.01595
1807.07226,0.01618
1806.04200,0.01657
1805.01174,0.01670
1803.98148,0.01662
1802.95122,0.01649
1801.92097,0.01648
1800.89071,0.01661
1799.86045,0.01666
1798.83019,0.01653
1797.79994,0.01625
1796.76968,0.01635
1795.73942,0.01700
1794.70916,0.01734
1793.67890,0.01717
1792.64865,0.01731
1791.61839,0.01803
1790.58813,0.01846
1789.55787,0.01838
1788.52761,0.01822
1787.49736,0.01829
1786.46710,0.01835
1785.43684,0.01827
1784.40658,0.01836
1783.37633,0.01843
1782.34607,0.01834
1781.31581,0.01843
1780.28555,0.01889
1779.25529,0.01966
1778.22504,0.02030
1777.19478,0.02032
1776.16452,0.01992
1775.13426,0.01978
1774.10400,0.02011
1773.07375,0.02066
1772.04349,0.02099
1771.01323,0.02085
1769.98297,0.02091
1768.95272,0.02123
1767.92246,0.02125
1766.89220,0.02112
1765.86194,0.02142
1764.83168,0.02188
1763.80143,0.02205
1762.77117,0.02191
1761.74091,0.02176
1760.71065,0.02209
1759.68040,0.02284
1758.65014,0.02347
1757.61988,0.02352
1756.58962,0.02331
1755.55936,0.02343
1754.52911,0.02361
1753.49885,0.02383
1752.46859,0.02431
1751.43833,0.02478
1750.40807,0.02517
1749.37782,0.02579
1748.34756,0.02618
1747.31730,0.02608
1746.28704,0.02601
1745.25679,0.02645
1744.22653,0.02722
1743.19627,0.02781
1742.16601,0.02813
1741.13575,0.02830
1740.10550,0.02829
1739.07524,0.02834
1738.04498,0.02883
1737.01472,0.02953
1735.98446,0.03029
1734.95421,0.03108
1733.92395,0.03158
1732.89369,0.03162
1731.86343,0.03196
1730.83318,0.03273
1729.80292,0.03335
1728.77266,0.03361
1727.74240,0.03428
1726.71214,0.03534
1725.68189,0.03616
1724.65163,0.03670
1723.62137,0.03723
1722.59111,0.03782
1721.56085,0.03852
1720.53060,0.03933
1719.50034,0.03992
1718.47008,0.04005
1717.43982,0.04045
1716.40957,0.04164
1715.37931,0.04289
1714.34905,0.04396
1713.31879,0.04492
1712.28853,0.04592
1711.25828,0.04704
1710.22802,0.04811
1709.19776,0.04895
1708.16750,0.04972
1707.13725,0.05085
1706.10699,0.05237
1705.07673,0.05371
1704.04647,0.05477
1703.01621,0.05572
1701.98596,0.05660
1700.95570,0.05745
1699.92544,0.05872
1698.89518,0.06036
1697.86492,0.06183
1696.83467,0.06323
1695.80441,0.06450
1694.77415,0.06559
1693.74389,0.06668
1692.71364,0.06797
1691.68338,0.06960
1690.65312,0.07127
1689.62286,0.07256
1688.59260,0.07367
1687.56235,0.07504
1686.53209,0.07649
1685.50183,0.07794
1684.47157,0.07960
1683.44131,0.08101
1682.41106,0.08205
1681.38080,0.08326
1680.35054,0.08475
1679.32028,0.08634
1678.29003,0.08771
1677.25977,0.08887
1676.22951,0.08987
1675.19925,0.09088
1674.16899,0.09218
1673.13874,0.09354
1672.10848,0.09483
1671.07822,0.09616
1670.04796,0.09733
1669.01771,0.09812
1667.98745,0.09904
1666.95719,0.10012
1665.92693,0.10100
1664.89667,0.10185
1663.86642,0.10301
1662.83616,0.10427
1661.80590,0.10500
1660.77564,0.10553
1659.74538,0.10635
1658.71513,0.10727
1657.68487,0.10806
1656.65461,0.10870
1655.62435,0.10930
1654.59410,0.11010
1653.56384,0.11074
1652.53358,0.10968
1651.50332,0.10934
1650.47306,0.11014
1649.44281,0.11101
1648.41255,0.11125
1647.38229,0.11077
1646.35203,0.11019
1645.32177,0.10958
1644.29152,0.10912
1643.26126,0.10865
1642.23100,0.10819
1641.20074,0.10793
1640.17049,0.10764
1639.14023,0.10706
1638.10997,0.10598
1637.07971,0.10479
1636.04945,0.10397
1635.01920,0.10271
1633.98894,0.10126
1632.95868,0.10012
1631.92842,0.09908
1630.89816,0.09811
1629.86791,0.09698
1628.83765,0.09581
1627.80739,0.09430
1626.77713,0.09254
1625.74688,0.09128
1624.71662,0.09023
1623.68636,0.08852
1622.65610,0.08651
1621.62584,0.08519
1620.59559,0.08390
1619.56533,0.08246
1618.53507,0.08135
1617.50481,0.08025
1616.47456,0.07835
1615.44430,0.07701
1614.41404,0.07626
1613.38378,0.07506
1612.35352,0.07362
1611.32327,0.07242
1610.29301,0.07132
1609.26275,0.07024
1608.23249,0.06939
1607.20223,0.06845
1606.17198,0.06724
1605.14172,0.06608
1604.11146,0.06510
1603.08120,0.06424
1602.05095,0.06359
1601.02069,0.06309
1599.99043,0.06269
1598.96017,0.06230
1597.92991,0.06158
1596.89966,0.06056
1595.86940,0.05972
1594.83914,0.05924
1593.80888,0.05882
1592.77862,0.05827
1591.74837,0.05759
1590.71811,0.05693
1589.68785,0.05638
1588.65759,0.05602
1587.62734,0.05568
1586.59708,0.05512
1585.56682,0.05455
1584.53656,0.05413
1583.50630,0.05377
1582.47605,0.05336
1581.44579,0.05292
1580.41553,0.05239
1579.38527,0.05191
1578.35501,0.05179
1577.32476,0.05201
1576.29450,0.05159
1575.26424,0.05040
1574.23398,0.04997
1573.20373,0.04979
1572.17347,0.04958
1571.14321,0.04950
1570.11295,0.04916
1569.08269,0.04843
1568.05244,0.04824
1567.02218,0.04822
1565.99192,0.04794
1564.96166,0.04756
1563.93141,0.04727
1562.90115,0.04707
1561.87089,0.04695
1560.84063,0.04681
1559.81037,0.04595
1558.78012,0.04460
1557.74986,0.04443
1556.71960,0.04482
1555.68934,0.04523
1554.65908,0.04533
1553.62883,0.04498
1552.59857,0.04482
1551.56831,0.04476
1550.53805,0.04450
1549.50780,0.04412
1548.47754,0.04406
1547.44728,0.04427
1546.41702,0.04435
1545.38676,0.04397
1544.35651,0.04342
1543.32625,0.04325
1542.29599,0.04303
1541.26573,0.04271
1540.23547,0.04264
1539.20522,0.04237
1538.17496,0.04211
1537.14470,0.04201
1536.11444,0.04194
1535.08419,0.04197
1534.05393,0.04183
1533.02367,0.04157
1531.99341,0.04167
1530.96315,0.04169
1529.93290,0.04160
1528.90264,0.04161
1527.87238,0.04149
1526.84212,0.04139
1525.81186,0.04149
1524.78161,0.04157
1523.75135,0.04163
1522.72109,0.04176
1521.69083,0.04176
1520.66058,0.04129
1519.63032,0.04097
1518.60006,0.04109
1517.56980,0.04115
1516.53954,0.04110
1515.50929,0.04110
1514.47903,0.04107
1513.44877,0.04105
1512.41851,0.04111
1511.38826,0.04129
1510.35800,0.04146
1509.32774,0.04168
1508.29748,0.04208
1507.26722,0.04214
1506.23697,0.04153
1505.20671,0.04150
1504.17645,0.04181
1503.14619,0.04202
1502.11593,0.04217
1501.08568,0.04227
1500.05542,0.04237
1499.02516,0.04264
1497.99490,0.04317
1496.96465,0.04386
1495.93439,0.04466
1494.90413,0.04534
1493.87387,0.04613
1492.84361,0.04726
1491.81336,0.04870
1490.78310,0.05068
1489.75284,0.05354
1488.72258,0.05694
1487.69232,0.06124
1486.66207,0.06733
1485.63181,0.07502
1484.60155,0.08448
1483.57129,0.09545
1482.54104,0.10572
1481.51078,0.11214
1480.48052,0.11227
1479.45026,0.10716
1478.42000,0.10022
1477.38975,0.09394
1476.35949,0.08896
1475.32923,0.08670
1474.29897,0.08734
1473.26871,0.08966
1472.23846,0.09336
1471.20820,0.09779
1470.17794,0.10217
1469.14768,0.10685
1468.11743,0.11171
1467.08717,0.11580
1466.05691,0.11839
1465.02665,0.11920
1463.99639,0.11825
1462.96614,0.11636
1461.93588,0.11381
1460.90562,0.11094
1459.87536,0.10815
1458.84511,0.10490
1457.81485,0.10121
1456.78459,0.09742
1455.75433,0.09496
1454.72407,0.09376
1453.69382,0.09263
1452.66356,0.09112
1451.63330,0.08944
1450.60304,0.08815
1449.57278,0.08708
1448.54253,0.08550
1447.51227,0.08335
1446.48201,0.08160
1445.45175,0.08030
1444.42150,0.07886
1443.39124,0.07719
1442.36098,0.07562
1441.33072,0.07417
1440.30046,0.07253
1439.27021,0.07074
1438.23995,0.06922
1437.20969,0.06744
1436.17943,0.06461
1435.14917,0.06255
1434.11892,0.06130
1433.08866,0.06006
1432.05840,0.05879
1431.02814,0.05757
1429.99789,0.05635
1428.96763,0.05510
1427.93737,0.05401
1426.90711,0.05309
1425.87685,0.05235
1424.84660,0.05173
1423.81634,0.05101
1422.78608,0.05037
1421.75582,0.05011
1420.72556,0.05001
1419.69531,0.04972
1418.66505,0.04920
1417.63479,0.04879
1416.60453,0.04859
1415.57428,0.04854
1414.54402,0.04854
1413.51376,0.04852
1412.48350,0.04863
1411.45324,0.04904
1410.42299,0.04991
1409.39273,0.05098
1408.36247,0.05220
1407.33221,0.05400
1406.30196,0.05629
1405.27170,0.05875
1404.24144,0.06094
1403.21118,0.06245
1402.18092,0.06326
1401.15067,0.06331
1400.12041,0.06270
1399.09015,0.06113
1398.05989,0.05861
1397.02963,0.05616
1395.99938,0.05405
1394.96912,0.05205
1393.93886,0.05008
1392.90860,0.04873
1391.87835,0.04807
1390.84809,0.04759
1389.81783,0.04706
1388.78757,0.04661
1387.75731,0.04617
1386.72706,0.04577
1385.69680,0.04573
1384.66654,0.04590
1383.63628,0.04587
1382.60602,0.04552
1381.57577,0.04522
1380.54551,0.04530
1379.51525,0.04546
1378.48499,0.04533
1377.45474,0.04517
1376.42448,0.04527
1375.39422,0.04553
1374.36396,0.04571
1373.33370,0.04584
1372.30345,0.04603
1371.27319,0.04625
1370.24293,0.04644
1369.21267,0.04658
1368.18241,0.04682
1367.15216,0.04730
1366.12190,0.04794
1365.09164,0.04852
1364.06138,0.04887
1363.03113,0.04937
1362.00087,0.05031
1360.97061,0.05128
1359.94035,0.05235
1358.91009,0.05365
1357.87984,0.05486
1356.84958,0.05585
1355.81932,0.05695
1354.78906,0.05816
1353.75881,0.05921
1352.72855,0.06020
1351.69829,0.06116
1350.66803,0.06188
1349.63777,0.06227
1348.60752,0.06205
1347.57726,0.06108
1346.54700,0.05942
1345.51674,0.05701
1344.48648,0.05426
1343.45623,0.05169
1342.42597,0.04962
1341.39571,0.04812
1340.36545,0.04695
1339.33520,0.04612
1338.30494,0.04584
1337.27468,0.04592
1336.24442,0.04607
1335.21416,0.04616
1334.18391,0.04610
1333.15365,0.04597
1332.12339,0.04596
1331.09313,0.04607
1330.06287,0.04626
1329.03262,0.04643
1328.00236,0.04630
1326.97210,0.04589
1325.94184,0.04555
1324.91159,0.04528
1323.88133,0.04487
1322.85107,0.04455
1321.82081,0.04457
1320.79055,0.04476
1319.76030,0.04478
1318.73004,0.04464
1317.69978,0.04469
1316.66952,0.04499
1315.63927,0.04535
1314.60901,0.04563
1313.57875,0.04590
1312.54849,0.04641
1311.51823,0.04714
1310.48798,0.04784
1309.45772,0.04844
1308.42746,0.04914
1307.39720,0.04982
1306.36694,0.05025
1305.33669,0.05055
1304.30643,0.05085
1303.27617,0.05115
1302.24591,0.05153
1301.21566,0.05191
1300.18540,0.05204
1299.15514,0.05197
1298.12488,0.05192
1297.09462,0.05187
1296.06437,0.05172
1295.03411,0.05157
1294.00385,0.05152
1292.97359,0.05150
1291.94333,0.05153
1290.91308,0.05155
1289.88282,0.05144
1288.85256,0.05123
1287.82230,0.05086
1286.79205,0.05055
1285.76179,0.05052
1284.73153,0.05040
1283.70127,0.05005
1282.67101,0.04965
1281.64076,0.04931
1280.61050,0.04904
1279.58024,0.04868
1278.54998,0.04828
1277.51972,0.04806
1276.48947,0.04790
1275.45921,0.04754
1274.42895,0.04714
1273.39869,0.04694
1272.36844,0.04693
1271.33818,0.04696
1270.30792,0.04705
1269.27766,0.04723
1268.24740,0.04744
1267.21715,0.04775
1266.18689,0.04825
1265.15663,0.04888
1264.12637,0.04939
1263.09612,0.04963
1262.06586,0.05007
1261.03560,0.05094
1260.00534,0.05188
1258.97508,0.05277
1257.94483,0.05384
1256.91457,0.05497
1255.88431,0.05589
1254.85405,0.05685
1253.82379,0.05803
1252.79354,0.05917
1251.76328,0.06032
1250.73302,0.06172
1249.70276,0.06332
1248.67251,0.06502
1247.64225,0.06688
1246.61199,0.06920
1245.58173,0.07231
1244.55147,0.07601
1243.52122,0.07980
1242.49096,0.08369
1241.46070,0.08761
1240.43044,0.09103
1239.40018,0.09364
1238.36993,0.09507
1237.33967,0.09477
1236.30941,0.09277
1235.27915,0.08958
1234.24890,0.08546
1233.21864,0.08083
1232.18838,0.07624
1231.15812,0.07199
1230.12786,0.06800
1229.09761,0.06437
1228.06735,0.06146
1227.03709,0.05906
1226.00683,0.05677
1224.97657,0.05465
1223.94632,0.05289
1222.91606,0.05158
1221.88580,0.05055
1220.85554,0.04953
1219.82529,0.04840
1218.79503,0.04735
1217.76477,0.04661
1216.73451,0.04611
1215.70425,0.04564
1214.67400,0.04528
1213.64374,0.04503
1212.61348,0.04476
1211.58322,0.04442
1210.55297,0.04424
1209.52271,0.04427
1208.49245,0.04414
1207.46219,0.04387
1206.43193,0.04359
1205.40168,0.04328
1204.37142,0.04299
1203.34116,0.04271
1202.31090,0.04254
1201.28064,0.04255
1200.25039,0.04265
1199.22013,0.04280
1198.18987,0.04286
1197.15961,0.04276
1196.12936,0.04270
1195.09910,0.04266
1194.06884,0.04255
1193.03858,0.04244
1192.00832,0.04252
1190.97807,0.04271
1189.94781,0.04272
1188.91755,0.04248
1187.88729,0.04209
1186.85703,0.04182
1185.82678,0.04205
1184.79652,0.04267
1183.76626,0.04320
1182.73600,0.04357
1181.70575,0.04381
1180.67549,0.04360
1179.64523,0.04307
1178.61497,0.04273
1177.58471,0.04260
1176.55446,0.04276
1175.52420,0.04340
1174.49394,0.04419
1173.46368,0.04466
1172.43342,0.04486
1171.40317,0.04509
1170.37291,0.04555
1169.34265,0.04608
1168.31239,0.04646
1167.28214,0.04699
1166.25188,0.04787
1165.22162,0.04878
1164.19136,0.04960
1163.16110,0.05054
1162.13085,0.05167
1161.10059,0.05294
1160.07033,0.05433
1159.04007,0.05596
1158.00982,0.05788
1156.97956,0.06003
1155.94930,0.06231
1154.91904,0.06461
1153.88878,0.06695
1152.85853,0.06942
1151.82827,0.07193
1150.79801,0.07419
1149.76775,0.07632
1148.73749,0.07886
1147.70724,0.08166
1146.67698,0.08405
1145.64672,0.08604
1144.61646,0.08822
1143.58621,0.09058
1142.55595,0.09253
1141.52569,0.09407
1140.49543,0.09554
1139.46517,0.09682
1138.43492,0.09790
1137.40466,0.09893
1136.37440,0.09969
1135.34414,0.10032
1134.31388,0.10138
1133.28363,0.10259
1132.25337,0.10342
1131.22311,0.10406
1130.19285,0.10495
1129.16260,0.10638
1128.13234,0.10811
1127.10208,0.10974
1126.07182,0.11154
1125.04156,0.11374
1124.01131,0.11593
1122.98105,0.11780
1121.95079,0.11951
1120.92053,0.12119
1119.89027,0.12262
1118.86002,0.12365
1117.82976,0.12445
1116.79950,0.12489
1115.76924,0.12507
1114.73899,0.12568
1113.70873,0.12693
1112.67847,0.12839
1111.64821,0.12976
1110.61795,0.13081
1109.58770,0.13170
1108.55744,0.13276
1107.52718,0.13384
1106.49692,0.13478
1105.46667,0.13575
1104.43641,0.13700
1103.40615,0.13832
1102.37589,0.13959
1101.34563,0.14047
1100.31538,0.14082
1099.28512,0.14121
1098.25486,0.14169
1097.22460,0.14196
1096.19434,0.14202
1095.16409,0.14214
1094.13383,0.14228
1093.10357,0.14193
1092.07331,0.14100
1091.04306,0.13999
1090.01280,0.13926
1088.98254,0.13851
1087.95228,0.13754
1086.92202,0.13650
1085.89177,0.13539
1084.86151,0.13418
1083.83125,0.13287
1082.80099,0.13167
1081.77073,0.13067
1080.74048,0.12952
1079.71022,0.12844
1078.67996,0.12747
1077.64970,0.12608
1076.61945,0.12444
1075.58919,0.12283
1074.55893,0.12143
1073.52867,0.12048
1072.49841,0.11968
1071.46816,0.11864
1070.43790,0.11721
1069.40764,0.11549
1068.37738,0.11366
1067.34712,0.11179
1066.31687,0.10994
1065.28661,0.10810
1064.25635,0.10618
1063.22609,0.10399
1062.19584,0.10162
1061.16558,0.09940
1060.13532,0.09708
1059.10506,0.09449
1058.07480,0.09214
1057.04455,0.08994
1056.01429,0.08754
1054.98403,0.08526
1053.95377,0.08343
1052.92352,0.08171
1051.89326,0.07977
1050.86300,0.07791
1049.83274,0.07644
1048.80248,0.07540
1047.77223,0.07488
1046.74197,0.07456
1045.71171,0.07408
1044.68145,0.07358
1043.65119,0.07315
1042.62094,0.07274
1041.59068,0.07255
1040.56042,0.07244
1039.53016,0.07227
1038.49991,0.07230
1037.46965,0.07231
1036.43939,0.07207
1035.40913,0.07186
1034.37887,0.07165
1033.34862,0.07112
1032.31836,0.07050
1031.28810,0.07006
1030.25784,0.06956
1029.22758,0.06891
1028.19733,0.06837
1027.16707,0.06786
1026.13681,0.06694
1025.10655,0.06568
1024.07630,0.06451
1023.04604,0.06369
1022.01578,0.06334
1020.98552,0.06305
1019.95526,0.06229
1018.92501,0.06121
1017.89475,0.06030
1016.86449,0.05996
1015.83423,0.05985
1014.80397,0.05950
1013.77372,0.05908
1012.74346,0.05869
1011.71320,0.05820
1010.68294,0.05782
1009.65269,0.05780
1008.62243,0.05815
1007.59217,0.05855
1006.56191,0.05838
1005.53165,0.05792
1004.50140,0.05786
1003.47114,0.05798
1002.44088,0.05808
1001.41062,0.05839
1000.38037,0.05880
999.35011,0.05911
998.31985,0.05927
997.28959,0.05945
996.25933,0.05986
995.22908,0.06037
994.19882,0.06073
993.16856,0.06091
992.13830,0.06112
991.10804,0.06148
990.07779,0.06196
989.04753,0.06226
988.01727,0.06216
986.98701,0.06215
985.95676,0.06248
984.92650,0.06265
983.89624,0.06271
982.86598,0.06287
981.83572,0.06307
980.80547,0.06349
979.77521,0.06417
978.74495,0.06477
977.71469,0.06489
976.68443,0.06487
975.65418,0.06512
974.62392,0.06536
973.59366,0.06574
972.56340,0.06654
971.53315,0.06753
970.50289,0.06860
969.47263,0.06986
968.44237,0.07129
967.41211,0.07282
966.38186,0.07451
965.35160,0.07655
964.32134,0.07919
963.29108,0.08258
962.26082,0.08672
961.23057,0.09144
960.20031,0.09670
959.17005,0.10306
958.13979,0.11093
957.10954,0.11997
956.07928,0.12981
955.04902,0.14042
954.01876,0.15159
952.98850,0.16306
951.95825,0.17466
950.92799,0.18563
949.89773,0.19532
948.86747,0.20335
947.83722,0.20899
946.80696,0.21147
945.77670,0.21011
944.74644,0.20468
943.71618,0.19609
942.68593,0.18575
941.65567,0.17454
940.62541,0.16332
939.59515,0.15308
938.56489,0.14425
937.53464,0.13680
936.50438,0.13072
935.47412,0.12592
934.44386,0.12209
933.41361,0.11907
932.38335,0.11645
931.35309,0.11376
930.32283,0.11128
929.29257,0.10934
928.26232,0.10766
927.23206,0.10616
926.20180,0.10511
925.17154,0.10431
924.14128,0.10351
923.11103,0.10280
922.08077,0.10237
921.05051,0.10227
920.02025,0.10220
918.99000,0.10211
917.95974,0.10203
916.92948,0.10176
915.89922,0.10156
914.86896,0.10160
913.83871,0.10194
912.80845,0.10266
911.77819,0.10318
910.74793,0.10329
909.71768,0.10351
908.68742,0.10387
907.65716,0.10407
906.62690,0.10435
905.59664,0.10484
904.56639,0.10540
903.53613,0.10600
902.50587,0.10664
901.47561,0.10726
900.44535,0.10781
899.41510,0.10869
898.38484,0.10974
897.35458,0.11029
896.32432,0.11063
895.29407,0.11169
894.26381,0.11342
893.23355,0.11484
892.20329,0.11556
891.17303,0.11637
890.14278,0.11758
889.11252,0.11895
888.08226,0.12024
887.05200,0.12117
886.02174,0.12222
884.99149,0.12361
883.96123,0.12431
882.93097,0.12422
881.90071,0.12470
880.87046,0.12612
879.84020,0.12730
878.80994,0.12796
877.77968,0.12861
876.74942,0.12908
875.71917,0.12962
874.68891,0.13060
873.65865,0.13208
872.62839,0.13376
871.59813,0.13513
870.56788,0.13634
869.53762,0.13729
868.50736,0.13780
867.47710,0.13868
866.44685,0.14039
865.41659,0.14213
864.38633,0.14305
863.35607,0.14363
862.32581,0.14459
861.29556,0.14588
860.26530,0.14759
859.23504,0.14939
858.20478,0.15051
857.17453,0.15127
856.14427,0.15231
855.11401,0.15360
854.08375,0.15492
853.05349,0.15625
852.02324,0.15788
850.99298,0.15969
849.96272,0.16128
848.93246,0.16256
847.90220,0.16340
846.87195,0.16421
845.84169,0.16566
844.81143,0.16759
843.78117,0.16943
842.75092,0.17071
841.72066,0.17171
840.69040,0.17295
839.66014,0.17415
838.62988,0.17520
837.59963,0.17628
836.56937,0.17735
835.53911,0.17845
834.50885,0.17968
833.47859,0.18077
832.44834,0.18165
831.41808,0.18270
830.38782,0.18360
829.35756,0.18409
828.32731,0.18495
827.29705,0.18640
826.26679,0.18792
825.23653,0.18924
824.20627,0.19025
823.17602,0.19111
822.14576,0.19198
821.11550,0.19304
820.08524,0.19426
819.05498,0.19541
818.02473,0.19669
816.99447,0.19780
815.96421,0.19835
814.93395,0.19889
813.90370,0.19980
812.87344,0.20095
811.84318,0.20244
810.81292,0.20394
809.78266,0.20517
808.75241,0.20661
807.72215,0.20783
806.69189,0.20819
805.66163,0.20849
804.63138,0.20945
803.60112,0.21101
802.57086,0.21300
801.54060,0.21452
800.51034,0.21513
799.48009,0.21570
798.44983,0.21686
797.41957,0.21838
796.38931,0.21979
795.35905,0.22070
794.32880,0.22100
793.29854,0.22188
792.26828,0.22378
791.23802,0.22533
790.20777,0.22650
789.17751,0.22774
788.14725,0.22861
787.11699,0.22949
786.08673,0.23108
785.05648,0.23266
784.02622,0.23355
782.99596,0.23454
781.96570,0.23618
780.93544,0.23834
779.90519,0.24054
778.87493,0.24230
777.84467,0.24389
776.81441,0.24564
775.78416,0.24741
774.75390,0.24931
773.72364,0.25138
772.69338,0.25324
771.66312,0.25507
770.63287,0.25739
769.60261,0.26001
768.57235,0.26287
767.54209,0.26646
766.51183,0.27064
765.48158,0.27491
764.45132,0.27927
763.42106,0.28385
762.39080,0.28868
761.36055,0.29384
760.33029,0.29945
759.30003,0.30526
758.26977,0.31026
757.23951,0.31326
756.20926,0.31442
755.17900,0.31452
754.14874,0.31359
753.11848,0.31156
752.08823,0.30854
751.05797,0.30500
750.02771,0.30181
748.99745,0.29967
747.96719,0.29870
746.93694,0.29779
745.90668,0.29684
744.87642,0.29723
743.84616,0.29795
742.81590,0.29767
741.78565,0.29795
740.75539,0.29892
739.72513,0.29962
738.69487,0.30019
737.66462,0.30026
736.63436,0.30046
735.60410,0.30177
734.57384,0.30344
733.54358,0.30490
732.51333,0.30595
731.48307,0.30656
730.45281,0.30731
729.42255,0.30819
728.39229,0.30954
727.36204,0.31134
726.33178,0.31232
725.30152,0.31232
724.27126,0.31174
723.24101,0.31133
722.21075,0.31266
721.18049,0.31562
720.15023,0.31840
719.11997,0.31985
718.08972,0.32027
717.05946,0.32044
716.02920,0.32093
714.99894,0.32205
713.96868,0.32390
712.93843,0.32620
711.90817,0.32787
710.87791,0.32821
709.84765,0.32865
708.81740,0.33022
707.78714,0.33187
706.75688,0.33285
705.72662,0.33338
704.69636,0.33405
703.66611,0.33489
702.63585,0.33561
701.60559,0.33673
700.57533,0.33813
699.54508,0.33882
698.51482,0.33907
697.48456,0.33930
696.45430,0.33953
695.42404,0.34044
694.39379,0.34162
693.36353,0.34250
692.33327,0.34399
691.30301,0.34574
690.27275,0.34670
689.24250,0.34764
688.21224,0.34951
687.18198,0.35104
686.15172,0.35154
685.12147,0.35250
684.09121,0.35418
683.06095,0.35557
682.03069,0.35631
681.00043,0.35700
679.97018,0.35793
678.93992,0.35852
677.90966,0.35879
676.87940,0.35992
675.84914,0.36148
674.81889,0.36181
673.78863,0.36192
672.75837,0.36280
671.72811,0.36399
670.69786,0.36569
669.66760,0.36812
668.63734,0.37036
667.60708,0.36931
666.57682,0.36810
665.54657,0.36847
664.51631,0.36931
663.48605,0.36971
662.45579,0.37021
661.42553,0.37191
660.39528,0.37346
659.36502,0.37345
658.33476,0.37271
657.30450,0.37238
656.27425,0.37255
655.24399,0.37330
654.21373,0.37445
653.18347,0.37592
652.15321,0.37730
651.12296,0.37710
650.09270,0.37578
649.06244,0.37537
648.03218,0.37657
647.00193,0.37880
645.97167,0.38081
644.94141,0.38151
643.91115,0.38103
642.88089,0.38107
641.85064,0.38262
640.82038,0.38430
639.79012,0.38538
638.75986,0.38584
637.72960,0.38534
636.69935,0.38487
635.66909,0.38559
634.63883,0.38648
633.60857,0.38653
632.57832,0.38668
631.54806,0.38754
630.51780,0.38920
629.48754,0.39081
628.45728,0.39110
627.42703,0.38960
626.39677,0.38826
625.36651,0.38911
624.33625,0.38957
623.30599,0.38795
622.27574,0.38669
621.24548,0.38756
620.21522,0.38978
619.18496,0.39098
618.15471,0.39017
617.12445,0.39012
616.09419,0.39220
615.06393,0.39371
614.03367,0.39380
613.00342,0.39392
611.97316,0.39419
610.94290,0.39445
609.91264,0.39480
608.88238,0.39516
607.85213,0.39610
606.82187,0.39673
605.79161,0.39605
604.76135,0.39572
603.73110,0.39614
602.70084,0.39551
601.67058,0.39436
600.64032,0.39411
599.61006,0.39469
598.57981,0.39595
597.54955,0.39707
596.51929,0.39747
595.48903,0.39719
594.45878,0.39632
593.42852,0.39559
592.39826,0.39601
591.36800,0.39741
590.33774,0.39929
589.30749,0.40210
588.27723,0.40465
587.24697,0.40528
586.21671,0.40392
585.18645,0.40183
584.15620,0.40098
583.12594,0.40197
582.09568,0.40320
581.06542,0.40329
580.03517,0.40176
579.00491,0.39896
577.97465,0.39810
576.94439,0.39979
575.91413,0.40184
574.88388,0.40393
573.85362,0.40431
572.82336,0.40249
571.79310,0.40264
570.76284,0.40500
569.73259,0.40537
568.70233,0.40389
567.67207,0.40361
566.64181,0.40454
565.61156,0.40384
564.58130,0.40181
563.55104,0.40147
562.52078,0.40253
561.49052,0.40260
560.46027,0.40087
559.43001,0.39955
558.39975,0.40111
557.36949,0.40391
556.33924,0.40574
555.30898,0.40619
554.27872,0.40455
553.24846,0.40252
552.21820,0.40237
551.18795,0.40266
550.15769,0.40171
549.12743,0.40116
548.09717,0.40160
547.06691,0.40137
546.03666,0.40077
545.00640,0.40051
543.97614,0.40074
542.94588,0.40214
541.91563,0.40406
540.88537,0.40420
539.85511,0.40171
538.82485,0.39821
537.79459,0.39681
536.76434,0.39917
535.73408,0.40355
534.70382,0.40744
533.67356,0.40821
532.64330,0.40565
531.61305,0.40279
530.58279,0.40253
529.55253,0.40575
528.52227,0.40972
527.49202,0.41099
526.46176,0.41036
525.43150,0.41104
524.40124,0.41259
523.37098,0.41340
522.34073,0.41499
521.31047,0.41787
520.28021,0.42059
519.24995,0.42350
518.21969,0.42609
517.18944,0.42800
516.15918,0.43279
515.12892,0.43954
514.09866,0.44496
513.06841,0.45057
512.03815,0.45633
511.00789,0.45996
509.97763,0.46175
508.94737,0.46415
507.91712,0.46902
506.88686,0.47700
505.85660,0.48533
504.82634,0.49015
503.79609,0.49133
502.76583,0.49137
501.73557,0.49425
500.70531,0.49818
499.67505,0.49938
498.64480,0.49918
497.61454,0.49866
496.58428,0.49882
495.55402,0.49829
494.52376,0.49514
493.49351,0.49374
492.46325,0.49341
491.43299,0.48804
490.40273,0.48149
489.37248,0.47874
488.34222,0.47823
487.31196,0.47811
486.28170,0.47550
485.25144,0.46970
484.22119,0.46135
483.19093,0.45212
482.16067,0.44552
481.13041,0.43971
480.10015,0.43352
479.06990,0.42863
478.03964,0.42582
477.00938,0.42651
475.97912,0.42897
474.94887,0.42925
473.91861,0.42590
472.88835,0.42143
471.85809,0.42448
470.82783,0.43708
469.79758,0.45140
468.76732,0.46591
467.73706,0.48351
466.70680,0.50375
465.67654,0.52741
464.64629,0.55018
463.61603,0.56348
462.58577,0.56530
461.55551,0.55726
460.52526,0.54767
459.49500,0.54020
458.46474,0.52810
457.43448,0.51392
456.40422,0.50983
455.37397,0.51008
454.34371,0.50236
453.31345,0.48743
452.28319,0.47610
451.25294,0.46946
450.22268,0.46521
449.19242,0.46623
448.16216,0.46766
447.13190,0.45961
446.10165,0.44362
445.07139,0.43229
444.04113,0.43138
443.01087,0.43521
441.98061,0.43379
440.95036,0.42672
439.92010,0.42056
438.88984,0.41926
437.85958,0.42121
436.82933,0.41944
435.79907,0.41515
434.76881,0.41214
433.73855,0.40855
432.70829,0.40541
431.67804,0.40216
430.64778,0.40223
429.61752,0.40548
428.58726,0.40142
427.55700,0.39198
426.52675,0.38831
425.49649,0.39008
424.46623,0.39281
423.43597,0.39056
422.40572,0.37805
421.37546,0.36808
420.34520,0.36422
419.31494,0.35253
418.28468,0.34360
417.25443,0.35236
416.22417,0.36007
415.19391,0.36253
414.16365,0.36428
413.13339,0.36245
412.10314,0.35596
411.07288,0.34777
410.04262,0.34350
409.01236,0.34703
407.98211,0.35047
406.95185,0.34915
405.92159,0.35142
404.89133,0.35784
403.86107,0.35898
402.83082,0.35754
401.80056,0.35911
400.77030,0.35800
399.74004,0.35575
