4998.81105,0.00258
4997.78079,0.00186
4996.75054,0.00183
4995.72028,0.00222
4994.69002,0.00190
4993.65976,0.00102
4992.62951,0.00026
4991.59925,0.00013
4990.56899,0.00039
4989.53873,0.00092
4988.50847,0.00169
4987.47822,0.00178
4986.44796,0.00113
4985.41770,0.00021
4984.38744,-0.00081
4983.35718,-0.00086
4982.32693,-0.00012
4981.29667,0.00027
4980.26641,0.00075
4979.23615,0.00171
4978.20590,0.00251
4977.17564,0.00280
4976.14538,0.00255
4975.11512,0.00164
4974.08486,0.00035
4973.05461,-0.00061
4972.02435,-0.00028
4970.99409,0.00129
4969.96383,0.00178
4968.93357,0.00072
4967.90332,0.00003
4966.87306,-0.00012
4965.84280,-0.00009
4964.81254,0.00026
4963.78229,0.00078
4962.75203,0.00132
4961.72177,0.00154
4960.69151,0.00132
4959.66125,0.00096
4958.63100,0.00093
4957.60074,0.00109
4956.57048,0.00106
4955.54022,0.00116
4954.50997,0.00156
4953.47971,0.00211
4952.44945,0.00258
4951.41919,0.00260
4950.38893,0.00172
4949.35868,0.00032
4948.32842,-0.00057
4947.29816,-0.00088
4946.26790,-0.00062
4945.23764,0.00013
4944.20739,0.00096
4943.17713,0.00158
4942.14687,0.00145
4941.11661,0.00111
4940.08636,0.00155
4939.05610,0.00176
4938.02584,0.00077
4936.99558,-0.00006
4935.96532,-0.00024
4934.93507,-0.00028
4933.90481,-0.00001
4932.87455,0.00073
4931.84429,0.00156
4930.81403,0.00155
4929.78378,0.00127
4928.75352,0.00213
4927.72326,0.00307
4926.69300,0.00232
4925.66275,0.00057
4924.63249,-0.00010
4923.60223,0.00068
4922.57197,0.00130
4921.54171,0.00133
4920.51146,0.00186
4919.48120,0.00287
4918.45094,0.00302
4917.42068,0.00182
4916.39042,0.00095
4915.36017,0.00125
4914.32991,0.00171
4913.29965,0.00179
4912.26939,0.00174
4911.23914,0.00178
4910.20888,0.00169
4909.17862,0.00134
4908.14836,0.00111
4907.11810,0.00100
4906.08785,0.00055
4905.05759,0.00042
4904.02733,0.00037
4902.99707,-0.00032
4901.96682,-0.00079
4900.93656,-0.00042
4899.90630,0.00092
4898.87604,0.00230
4897.84578,0.00235
4896.81553,0.00137
4895.78527,0.00053
4894.75501,0.00023
4893.72475,0.00002
4892.69449,0.00013
4891.66424,0.00056
4890.63398,0.00027
4889.60372,-0.00057
4888.57346,-0.00095
4887.54321,-0.00050
4886.51295,0.00025
4885.48269,0.00066
4884.45243,0.00114
4883.42217,0.00156
4882.39192,0.00145
4881.36166,0.00120
4880.33140,0.00056
4879.30114,0.00022
4878.27088,0.00116
4877.24063,0.00191
4876.21037,0.00169
4875.18011,0.00152
4874.14985,0.00164
4873.11960,0.00180
4872.08934,0.00192
4871.05908,0.00181
4870.02882,0.00088
4868.99856,-0.00016
4867.96831,0.00051
4866.93805,0.00191
4865.90779,0.00217
4864.87753,0.00152
4863.84727,0.00076
4862.81702,0.00076
4861.78676,0.00148
4860.75650,0.00165
4859.72624,0.00080
4858.69599,-0.00026
4857.66573,-0.00067
4856.63547,0.00004
4855.60521,0.00095
4854.57495,0.00087
4853.54470,0.00052
4852.51444,0.00113
4851.48418,0.00207
4850.45392,0.00205
4849.42367,0.00142
4848.39341,0.00122
4847.36315,0.00142
4846.33289,0.00110
4845.30263,0.00037
4844.27238,0.00038
4843.24212,0.00072
4842.21186,0.00099
4841.18160,0.00158
4840.15134,0.00198
4839.12109,0.00192
4838.09083,0.00159
4837.06057,0.00114
4836.03031,0.00087
4835.00006,0.00085
4833.96980,0.00093
4832.93954,0.00100
4831.90928,0.00082
4830.87902,0.00088
4829.84877,0.00141
4828.81851,0.00115
4827.78825,0.00027
4826.75799,0.00008
4825.72773,0.00037
4824.69748,0.00050
4823.66722,0.00029
4822.63696,-0.00002
4821.60670,-0.00031
4820.57645,-0.00061
4819.54619,-0.00023
4818.51593,0.00091
4817.48567,0.00180
4816.45541,0.00196
4815.42516,0.00198
4814.39490,0.00201
4813.36464,0.00150
4812.33438,0.00119
4811.30412,0.00171
4810.27387,0.00237
4809.24361,0.00279
4808.21335,0.00290
4807.18309,0.00245
4806.15284,0.00188
4805.12258,0.00149
4804.09232,0.00072
4803.06206,-0.00010
4802.03180,0.00005
4801.00155,0.00140
4799.97129,0.00269
4798.94103,0.00237
4797.91077,0.00130
4796.88052,0.00083
4795.85026,0.00101
4794.82000,0.00135
4793.78974,0.00143
4792.75948,0.00161
4791.72923,0.00170
4790.69897,0.00120
4789.66871,0.00075
4788.63845,0.00073
4787.60819,0.00070
4786.57794,0.00049
4785.54768,0.00046
4784.51742,0.00040
4783.48716,0.00005
4782.45691,0.00010
4781.42665,0.00069
4780.39639,0.00114
4779.36613,0.00100
4778.33587,0.00062
4777.30562,0.00045
4776.27536,-0.00006
4775.24510,-0.00050
4774.21484,0.00023
4773.18458,0.00123
4772.15433,0.00112
4771.12407,0.00058
4770.09381,0.00080
4769.06355,0.00120
4768.03330,0.00101
4767.00304,0.00055
4765.97278,0.00027
4764.94252,0.00036
4763.91226,0.00056
4762.88201,0.00039
4761.85175,0.00032
4760.82149,0.00120
4759.79123,0.00216
4758.76098,0.00230
4757.73072,0.00183
4756.70046,0.00105
4755.67020,0.00063
4754.63994,0.00060
4753.60969,0.00099
4752.57943,0.00159
4751.54917,0.00138
4750.51891,0.00067
4749.48865,0.00040
4748.45840,0.00053
4747.42814,0.00082
4746.39788,0.00106
4745.36762,0.00086
4744.33737,0.00058
4743.30711,0.00086
4742.27685,0.00126
4741.24659,0.00160
4740.21633,0.00192
4739.18608,0.00179
4738.15582,0.00152
4737.12556,0.00121
4736.09530,0.00066
4735.06504,0.00048
4734.03479,0.00110
4733.00453,0.00217
4731.97427,0.00254
4730.94401,0.00179
4729.91376,0.00107
4728.88350,0.00127
4727.85324,0.00187
4726.82298,0.00215
4725.79272,0.00244
4724.76247,0.00214
4723.73221,0.00100
4722.70195,0.00052
4721.67169,0.00062
4720.64143,0.00047
4719.61118,0.00068
4718.58092,0.00146
4717.55066,0.00184
4716.52040,0.00127
4715.49015,0.00056
4714.45989,0.00080
4713.42963,0.00175
4712.39937,0.00191
4711.36911,0.00104
4710.33886,0.00036
4709.30860,0.00019
4708.27834,0.00030
4707.24808,0.00078
4706.21783,0.00116
4705.18757,0.00136
4704.15731,0.00131
4703.12705,0.00053
4702.09679,-0.00034
4701.06654,-0.00047
4700.03628,-0.00008
4699.00602,0.00055
4697.97576,0.00135
4696.94550,0.00161
4695.91525,0.00086
4694.88499,0.00009
4693.85473,-0.00004
4692.82447,-0.00008
4691.79422,-0.00020
4690.76396,-0.00005
4689.73370,0.00045
4688.70344,0.00111
4687.67318,0.00171
4686.64293,0.00194
4685.61267,0.00169
4684.58241,0.00137
4683.55215,0.00128
4682.52189,0.00134
4681.49164,0.00133
4680.46138,0.00124
4679.43112,0.00115
4678.40086,0.00137
4677.37061,0.00198
4676.34035,0.00248
4675.31009,0.00303
4674.27983,0.00350
4673.24957,0.00317
4672.21932,0.00241
4671.18906,0.00220
4670.15880,0.00195
4669.12854,0.00108
4668.09828,0.00032
4667.06803,0.00013
4666.03777,0.00065
4665.00751,0.00167
4663.97725,0.00237
4662.94700,0.00224
4661.91674,0.00138
4660.88648,0.00049
4659.85622,0.00063
4658.82596,0.00143
4657.79571,0.00169
4656.76545,0.00127
4655.73519,0.00070
4654.70493,0.00015
4653.67468,-0.00057
4652.64442,-0.00092
4651.61416,-0.00035
4650.58390,0.00053
4649.55364,0.00089
4648.52339,0.00090
4647.49313,0.00110
4646.46287,0.00167
4645.43261,0.00241
4644.40235,0.00286
4643.37210,0.00295
4642.34184,0.00233
4641.31158,0.00107
4640.28132,0.00084
4639.25107,0.00175
4638.22081,0.00172
4637.19055,0.00074
4636.16029,0.00080
4635.13003,0.00148
4634.09978,0.00134
4633.06952,0.00122
4632.03926,0.00181
4631.00900,0.00217
4629.97874,0.00168
4628.94849,0.00078
4627.91823,0.00045
4626.88797,0.00097
4625.85771,0.00140
4624.82746,0.00144
4623.79720,0.00137
4622.76694,0.00123
4621.73668,0.00160
4620.70642,0.00243
4619.67617,0.00259
4618.64591,0.00197
4617.61565,0.00152
4616.58539,0.00144
4615.55513,0.00100
4614.52488,0.00035
4613.49462,0.00049
4612.46436,0.00126
4611.43410,0.00163
4610.40385,0.00146
4609.37359,0.00090
4608.34333,-0.00007
4607.31307,-0.00072
4606.28281,-0.00026
4605.25256,0.00042
4604.22230,0.00049
4603.19204,0.00073
4602.16178,0.00138
4601.13153,0.00150
4600.10127,0.00108
4599.07101,0.00087
4598.04075,0.00068
4597.01049,0.00025
4595.98024,-0.00004
4594.94998,0.00019
4593.91972,0.00047
4592.88946,0.00047
4591.85920,0.00112
4590.82895,0.00213
4589.79869,0.00215
4588.76843,0.00135
4587.73817,0.00005
4586.70792,-0.00113
4585.67766,-0.00096
4584.64740,0.00004
4583.61714,0.00030
4582.58688,0.00003
4581.55663,0.00066
4580.52637,0.00186
4579.49611,0.00234
4578.46585,0.00190
4577.43559,0.00095
4576.40534,0.00042
4575.37508,0.00115
4574.34482,0.00207
4573.31456,0.00207
4572.28431,0.00184
4571.25405,0.00158
4570.22379,0.00104
4569.19353,0.00077
4568.16327,0.00110
4567.13302,0.00152
4566.10276,0.00164
4565.07250,0.00162
4564.04224,0.00163
4563.01198,0.00159
4561.98173,0.00127
4560.95147,0.00088
4559.92121,0.00076
4558.89095,0.00093
4557.86070,0.00102
4556.83044,0.00058
4555.80018,0.00033
4554.76992,0.00122
4553.73966,0.00222
4552.70941,0.00236
4551.67915,0.00210
4550.64889,0.00172
4549.61863,0.00164
4548.58838,0.00202
4547.55812,0.00204
4546.52786,0.00145
4545.49760,0.00086
4544.46734,0.00083
4543.43709,0.00125
4542.40683,0.00134
4541.37657,0.00074
4540.34631,0.00028
4539.31605,0.00058
4538.28580,0.00111
4537.25554,0.00162
4536.22528,0.00190
4535.19502,0.00134
4534.16477,0.00046
4533.13451,0.00006
4532.10425,-0.00009
4531.07399,0.00025
4530.04373,0.00099
4529.01348,0.00104
4527.98322,0.00059
4526.95296,0.00081
4525.92270,0.00161
4524.89244,0.00195
4523.86219,0.00175
4522.83193,0.00151
4521.80167,0.00133
4520.77141,0.00136
4519.74116,0.00171
4518.71090,0.00176
4517.68064,0.00107
4516.65038,0.00055
4515.62012,0.00076
4514.58987,0.00096
4513.55961,0.00081
4512.52935,0.00086
4511.49909,0.00121
4510.46883,0.00124
4509.43858,0.00082
4508.40832,0.00018
4507.37806,0.00029
4506.34780,0.00121
4505.31755,0.00140
4504.28729,0.00079
4503.25703,0.00062
4502.22677,0.00115
4501.19651,0.00135
4500.16626,0.00110
4499.13600,0.00094
4498.10574,0.00054
4497.07548,0.00029
4496.04523,0.00055
4495.01497,0.00061
4493.98471,0.00061
4492.95445,0.00106
4491.92419,0.00139
4490.89394,0.00122
4489.86368,0.00112
4488.83342,0.00117
4487.80316,0.00099
4486.77290,0.00057
4485.74265,0.00019
4484.71239,0.00030
4483.68213,0.00098
4482.65187,0.00120
4481.62162,0.00064
4480.59136,0.00045
4479.56110,0.00084
4478.53084,0.00101
4477.50058,0.00074
4476.47033,0.00067
4475.44007,0.00092
4474.40981,0.00096
4473.37955,0.00101
4472.34929,0.00101
4471.31904,0.00086
4470.28878,0.00121
4469.25852,0.00192
4468.22826,0.00228
4467.19801,0.00229
4466.16775,0.00196
4465.13749,0.00146
4464.10723,0.00117
4463.07697,0.00100
4462.04672,0.00095
4461.01646,0.00128
4459.98620,0.00206
4458.95594,0.00296
4457.92568,0.00302
4456.89543,0.00222
4455.86517,0.00159
4454.83491,0.00099
4453.80465,0.00024
4452.77440,0.00026
4451.74414,0.00067
4450.71388,0.00080
4449.68362,0.00095
4448.65336,0.00091
4447.62311,0.00073
4446.59285,0.00088
4445.56259,0.00120
4444.53233,0.00141
4443.50208,0.00147
4442.47182,0.00120
4441.44156,0.00062
4440.41130,0.00024
4439.38104,0.00045
4438.35079,0.00098
4437.32053,0.00144
4436.29027,0.00161
4435.26001,0.00153
4434.22975,0.00150
4433.19950,0.00096
4432.16924,0.00002
4431.13898,-0.00011
4430.10872,0.00052
4429.07847,0.00118
4428.04821,0.00160
4427.01795,0.00165
4425.98769,0.00180
4424.95743,0.00200
4423.92718,0.00153
4422.89692,0.00080
4421.86666,0.00079
4420.83640,0.00147
4419.80614,0.00199
4418.77589,0.00196
4417.74563,0.00169
4416.71537,0.00145
4415.68511,0.00136
4414.65486,0.00162
4413.62460,0.00158
4412.59434,0.00070
4411.56408,-0.00006
4410.53382,0.00012
4409.50357,0.00057
4408.47331,0.00082
4407.44305,0.00109
4406.41279,0.00103
4405.38253,0.00070
4404.35228,0.00073
4403.32202,0.00107
4402.29176,0.00130
4401.26150,0.00118
4400.23125,0.00116
4399.20099,0.00153
4398.17073,0.00171
4397.14047,0.00170
4396.11021,0.00200
4395.07996,0.00234
4394.04970,0.00227
4393.01944,0.00186
4391.98918,0.00174
4390.95893,0.00192
4389.92867,0.00157
4388.89841,0.00117
4387.86815,0.00138
4386.83789,0.00158
4385.80764,0.00156
4384.77738,0.00165
4383.74712,0.00186
4382.71686,0.00213
4381.68660,0.00210
4380.65635,0.00165
4379.62609,0.00138
4378.59583,0.00130
4377.56557,0.00139
4376.53532,0.00180
4375.50506,0.00215
4374.47480,0.00233
4373.44454,0.00274
4372.41428,0.00346
4371.38403,0.00359
4370.35377,0.00275
4369.32351,0.00213
4368.29325,0.00223
4367.26299,0.00197
4366.23274,0.00141
4365.20248,0.00141
4364.17222,0.00163
4363.14196,0.00188
4362.11171,0.00206
4361.08145,0.00162
4360.05119,0.00119
4359.02093,0.00126
4357.99067,0.00120
4356.96042,0.00138
4355.93016,0.00204
4354.89990,0.00234
4353.86964,0.00260
4352.83939,0.00305
4351.80913,0.00284
4350.77887,0.00219
4349.74861,0.00217
4348.71835,0.00274
4347.68810,0.00293
4346.65784,0.00231
4345.62758,0.00143
4344.59732,0.00125
4343.56706,0.00206
4342.53681,0.00279
4341.50655,0.00257
4340.47629,0.00229
4339.44603,0.00261
4338.41578,0.00255
4337.38552,0.00183
4336.35526,0.00160
4335.32500,0.00203
4334.29474,0.00227
4333.26449,0.00226
4332.23423,0.00258
4331.20397,0.00305
4330.17371,0.00337
4329.14345,0.00342
4328.11320,0.00338
4327.08294,0.00338
4326.05268,0.00294
4325.02242,0.00230
4323.99217,0.00207
4322.96191,0.00200
4321.93165,0.00183
4320.90139,0.00163
4319.87113,0.00136
4318.84088,0.00146
4317.81062,0.00201
4316.78036,0.00199
4315.75010,0.00142
4314.71984,0.00145
4313.68959,0.00215
4312.65933,0.00235
4311.62907,0.00192
4310.59881,0.00197
4309.56856,0.00264
4308.53830,0.00299
4307.50804,0.00272
4306.47778,0.00229
4305.44752,0.00214
4304.41727,0.00220
4303.38701,0.00231
4302.35675,0.00226
4301.32649,0.00183
4300.29624,0.00135
4299.26598,0.00130
4298.23572,0.00185
4297.20546,0.00262
4296.17520,0.00312
4295.14495,0.00304
4294.11469,0.00230
4293.08443,0.00156
4292.05417,0.00143
4291.02391,0.00161
4289.99366,0.00179
4288.96340,0.00172
4287.93314,0.00114
4286.90288,0.00059
4285.87263,0.00062
4284.84237,0.00090
4283.81211,0.00139
4282.78185,0.00218
4281.75159,0.00273
4280.72134,0.00252
4279.69108,0.00212
4278.66082,0.00226
4277.63056,0.00250
4276.60030,0.00232
4275.57005,0.00195
4274.53979,0.00139
4273.50953,0.00076
4272.47927,0.00066
4271.44902,0.00079
4270.41876,0.00068
4269.38850,0.00068
4268.35824,0.00093
4267.32798,0.00117
4266.29773,0.00117
4265.26747,0.00119
4264.23721,0.00131
4263.20695,0.00125
4262.17669,0.00099
4261.14644,0.00060
4260.11618,0.00052
4259.08592,0.00114
4258.05566,0.00185
4257.02541,0.00193
4255.99515,0.00164
4254.96489,0.00134
4253.93463,0.00125
4252.90437,0.00138
4251.87412,0.00124
4250.84386,0.00111
4249.81360,0.00132
4248.78334,0.00154
4247.75309,0.00194
4246.72283,0.00256
4245.69257,0.00253
4244.66231,0.00198
4243.63205,0.00172
4242.60180,0.00135
4241.57154,0.00095
4240.54128,0.00119
4239.51102,0.00187
4238.48076,0.00262
4237.45051,0.00283
4236.42025,0.00234
4235.38999,0.00177
4234.35973,0.00143
4233.32948,0.00127
4232.29922,0.00137
4231.26896,0.00149
4230.23870,0.00129
4229.20844,0.00119
4228.17819,0.00146
4227.14793,0.00177
4226.11767,0.00192
4225.08741,0.00201
4224.05715,0.00189
4223.02690,0.00175
4221.99664,0.00189
4220.96638,0.00189
4219.93612,0.00173
4218.90587,0.00177
4217.87561,0.00188
4216.84535,0.00177
4215.81509,0.00177
4214.78483,0.00211
4213.75458,0.00213
4212.72432,0.00163
4211.69406,0.00134
4210.66380,0.00137
4209.63354,0.00136
4208.60329,0.00135
4207.57303,0.00146
4206.54277,0.00174
4205.51251,0.00180
4204.48226,0.00155
4203.45200,0.00139
4202.42174,0.00113
4201.39148,0.00082
4200.36122,0.00093
4199.33097,0.00122
4198.30071,0.00134
4197.27045,0.00135
4196.24019,0.00139
4195.20994,0.00156
4194.17968,0.00161
4193.14942,0.00140
4192.11916,0.00127
4191.08890,0.00147
4190.05865,0.00168
4189.02839,0.00149
4187.99813,0.00126
4186.96787,0.00148
4185.93761,0.00214
4184.90736,0.00273
4183.87710,0.00272
4182.84684,0.00241
4181.81658,0.00214
4180.78633,0.00174
4179.75607,0.00151
4178.72581,0.00187
4177.69555,0.00246
4176.66529,0.00276
4175.63504,0.00283
4174.60478,0.00269
4173.57452,0.00220
4172.54426,0.00182
4171.51400,0.00192
4170.48375,0.00223
4169.45349,0.00252
4168.42323,0.00254
4167.39297,0.00200
4166.36272,0.00147
4165.33246,0.00143
4164.30220,0.00148
4163.27194,0.00147
4162.24168,0.00158
4161.21143,0.00171
4160.18117,0.00167
4159.15091,0.00158
4158.12065,0.00138
4157.09039,0.00104
4156.06014,0.00084
4155.02988,0.00099
4153.99962,0.00155
4152.96936,0.00202
4151.93911,0.00205
4150.90885,0.00197
4149.87859,0.00208
4148.84833,0.00200
4147.81807,0.00167
4146.78782,0.00142
4145.75756,0.00139
4144.72730,0.00183
4143.69704,0.00242
4142.66679,0.00244
4141.63653,0.00199
4140.60627,0.00154
4139.57601,0.00128
4138.54575,0.00121
4137.51550,0.00104
4136.48524,0.00104
4135.45498,0.00150
4134.42472,0.00195
4133.39446,0.00226
4132.36421,0.00242
4131.33395,0.00226
4130.30369,0.00204
4129.27343,0.00211
4128.24318,0.00263
4127.21292,0.00332
4126.18266,0.00336
4125.15240,0.00271
4124.12214,0.00230
4123.09189,0.00220
4122.06163,0.00203
4121.03137,0.00189
4120.00111,0.00182
4118.97085,0.00194
4117.94060,0.00241
4116.91034,0.00256
4115.88008,0.00202
4114.84982,0.00165
4113.81957,0.00187
4112.78931,0.00201
4111.75905,0.00153
4110.72879,0.00116
4109.69853,0.00174
4108.66828,0.00254
4107.63802,0.00272
4106.60776,0.00233
4105.57750,0.00179
4104.54724,0.00171
4103.51699,0.00183
4102.48673,0.00173
4101.45647,0.00184
4100.42621,0.00212
4099.39596,0.00211
4098.36570,0.00220
4097.33544,0.00243
4096.30518,0.00222
4095.27492,0.00207
4094.24467,0.00217
4093.21441,0.00207
4092.18415,0.00221
4091.15389,0.00254
4090.12364,0.00253
4089.09338,0.00211
4088.06312,0.00140
4087.03286,0.00123
4086.00260,0.00205
4084.97235,0.00253
4083.94209,0.00189
4082.91183,0.00128
4081.88157,0.00153
4080.85131,0.00222
4079.82106,0.00266
4078.79080,0.00264
4077.76054,0.00246
4076.73028,0.00229
4075.70003,0.00227
4074.66977,0.00259
4073.63951,0.00302
4072.60925,0.00319
4071.57899,0.00323
4070.54874,0.00322
4069.51848,0.00282
4068.48822,0.00223
4067.45796,0.00203
4066.42770,0.00219
4065.39745,0.00263
4064.36719,0.00311
4063.33693,0.00304
4062.30667,0.00267
4061.27642,0.00272
4060.24616,0.00313
4059.21590,0.00331
4058.18564,0.00308
4057.15538,0.00293
4056.12513,0.00310
4055.09487,0.00320
4054.06461,0.00303
4053.03435,0.00280
4052.00409,0.00269
4050.97384,0.00277
4049.94358,0.00282
4048.91332,0.00291
4047.88306,0.00314
4046.85281,0.00301
4045.82255,0.00270
4044.79229,0.00287
4043.76203,0.00298
4042.73177,0.00300
4041.70152,0.00353
4040.67126,0.00387
4039.64100,0.00349
4038.61074,0.00312
4037.58049,0.00327
4036.55023,0.00328
4035.51997,0.00295
4034.48971,0.00287
4033.45945,0.00295
4032.42920,0.00297
4031.39894,0.00350
4030.36868,0.00405
4029.33842,0.00381
4028.30816,0.00334
4027.27791,0.00321
4026.24765,0.00321
4025.21739,0.00296
4024.18713,0.00273
4023.15688,0.00298
4022.12662,0.00353
4021.09636,0.00390
4020.06610,0.00393
4019.03584,0.00403
4018.00559,0.00419
4016.97533,0.00393
4015.94507,0.00355
4014.91481,0.00363
4013.88455,0.00369
4012.85430,0.00344
4011.82404,0.00337
4010.79378,0.00342
4009.76352,0.00318
4008.73327,0.00283
4007.70301,0.00257
4006.67275,0.00233
4005.64249,0.00239
4004.61223,0.00289
4003.58198,0.00317
4002.55172,0.00296
4001.52146,0.00269
4000.49120,0.00294
3999.46095,0.00359
3998.43069,0.00366
3997.40043,0.00316
3996.37017,0.00298
3995.33991,0.00323
3994.30966,0.00338
3993.27940,0.00324
3992.24914,0.00318
3991.21888,0.00324
3990.18862,0.00317
3989.15837,0.00320
3988.12811,0.00335
3987.09785,0.00319
3986.06759,0.00280
3985.03734,0.00259
3984.00708,0.00249
3982.97682,0.00242
3981.94656,0.00250
3980.91630,0.00263
3979.88605,0.00286
3978.85579,0.00334
3977.82553,0.00371
3976.79527,0.00344
3975.76501,0.00277
3974.73476,0.00244
3973.70450,0.00253
3972.67424,0.00282
3971.64398,0.00330
3970.61373,0.00354
3969.58347,0.00312
3968.55321,0.00259
3967.52295,0.00244
3966.49269,0.00224
3965.46244,0.00187
3964.43218,0.00181
3963.40192,0.00225
3962.37166,0.00272
3961.34140,0.00269
3960.31115,0.00256
3959.28089,0.00277
3958.25063,0.00284
3957.22037,0.00259
3956.19012,0.00240
3955.15986,0.00224
3954.12960,0.00219
3953.09934,0.00254
3952.06908,0.00293
3951.03883,0.00289
3950.00857,0.00248
3948.97831,0.00203
3947.94805,0.00209
3946.91780,0.00276
3945.88754,0.00321
3944.85728,0.00296
3943.82702,0.00272
3942.79676,0.00284
3941.76651,0.00270
3940.73625,0.00241
3939.70599,0.00236
3938.67573,0.00241
3937.64547,0.00263
3936.61522,0.00252
3935.58496,0.00202
3934.55470,0.00220
3933.52444,0.00283
3932.49419,0.00281
3931.46393,0.00227
3930.43367,0.00174
3929.40341,0.00137
3928.37315,0.00143
3927.34290,0.00192
3926.31264,0.00235
3925.28238,0.00263
3924.25212,0.00271
3923.22186,0.00261
3922.19161,0.00284
3921.16135,0.00308
3920.13109,0.00279
3919.10083,0.00242
3918.07058,0.00212
3917.04032,0.00170
3916.01006,0.00151
3914.97980,0.00173
3913.94954,0.00215
3912.91929,0.00241
3911.88903,0.00210
3910.85877,0.00148
3909.82851,0.00137
3908.79825,0.00171
3907.76800,0.00180
3906.73774,0.00165
3905.70748,0.00157
3904.67722,0.00177
3903.64697,0.00241
3902.61671,0.00271
3901.58645,0.00239
3900.55619,0.00230
3899.52593,0.00253
3898.49568,0.00277
3897.46542,0.00276
3896.43516,0.00234
3895.40490,0.00204
3894.37465,0.00223
3893.34439,0.00233
3892.31413,0.00204
3891.28387,0.00178
3890.25361,0.00186
3889.22336,0.00245
3888.19310,0.00328
3887.16284,0.00367
3886.13258,0.00333
3885.10232,0.00255
3884.07207,0.00192
3883.04181,0.00151
3882.01155,0.00134
3880.98129,0.00157
3879.95104,0.00196
3878.92078,0.00206
3877.89052,0.00206
3876.86026,0.00209
3875.83000,0.00231
3874.79975,0.00255
3873.76949,0.00225
3872.73923,0.00205
3871.70897,0.00249
3870.67871,0.00316
3869.64846,0.00337
3868.61820,0.00251
3867.58794,0.00173
3866.55768,0.00198
3865.52743,0.00256
3864.49717,0.00238
3863.46691,0.00193
3862.43665,0.00178
3861.40639,0.00181
3860.37614,0.00185
3859.34588,0.00177
3858.31562,0.00165
3857.28536,0.00170
3856.25510,0.00206
3855.22485,0.00248
3854.19459,0.00245
3853.16433,0.00252
3852.13407,0.00312
3851.10382,0.00312
3850.07356,0.00264
3849.04330,0.00238
3848.01304,0.00243
3846.98278,0.00250
3845.95253,0.00246
3844.92227,0.00234
3843.89201,0.00244
3842.86175,0.00266
3841.83150,0.00261
3840.80124,0.00274
3839.77098,0.00293
3838.74072,0.00286
3837.71046,0.00296
3836.68021,0.00277
3835.64995,0.00201
3834.61969,0.00157
3833.58943,0.00192
3832.55917,0.00242
3831.52892,0.00278
3830.49866,0.00297
3829.46840,0.00273
3828.43814,0.00233
3827.40789,0.00208
3826.37763,0.00199
3825.34737,0.00229
3824.31711,0.00286
3823.28685,0.00319
3822.25660,0.00307
3821.22634,0.00256
3820.19608,0.00207
3819.16582,0.00195
3818.13556,0.00206
3817.10531,0.00228
3816.07505,0.00267
3815.04479,0.00288
3814.01453,0.00276
3812.98428,0.00266
3811.95402,0.00265
3810.92376,0.00254
3809.89350,0.00231
3808.86324,0.00222
3807.83299,0.00205
3806.80273,0.00152
3805.77247,0.00132
3804.74221,0.00151
3803.71195,0.00184
3802.68170,0.00250
3801.65144,0.00289
3800.62118,0.00209
3799.59092,0.00151
3798.56067,0.00172
3797.53041,0.00205
3796.50015,0.00214
3795.46989,0.00228
3794.43963,0.00236
3793.40938,0.00202
3792.37912,0.00178
3791.34886,0.00193
3790.31860,0.00187
3789.28835,0.00159
3788.25809,0.00149
3787.22783,0.00189
3786.19757,0.00278
3785.16731,0.00352
3784.13706,0.00339
3783.10680,0.00270
3782.07654,0.00246
3781.04628,0.00273
3780.01602,0.00278
3778.98577,0.00228
3777.95551,0.00173
3776.92525,0.00171
3775.89499,0.00195
3774.86474,0.00195
3773.83448,0.00186
3772.80422,0.00202
3771.77396,0.00227
3770.74370,0.00246
3769.71345,0.00277
3768.68319,0.00315
3767.65293,0.00330
3766.62267,0.00321
3765.59241,0.00311
3764.56216,0.00286
3763.53190,0.00233
3762.50164,0.00211
3761.47138,0.00247
3760.44113,0.00273
3759.41087,0.00255
3758.38061,0.00257
3757.35035,0.00258
3756.32009,0.00202
3755.28984,0.00177
3754.25958,0.00243
3753.22932,0.00329
3752.19906,0.00342
3751.16880,0.00286
3750.13855,0.00254
3749.10829,0.00215
3748.07803,0.00176
3747.04777,0.00181
3746.01752,0.00219
3744.98726,0.00252
3743.95700,0.00215
3742.92674,0.00193
3741.89648,0.00231
3740.86623,0.00270
3739.83597,0.00286
3738.80571,0.00318
3737.77545,0.00349
3736.74520,0.00306
3735.71494,0.00261
3734.68468,0.00323
3733.65442,0.00362
3732.62416,0.00329
3731.59391,0.00279
3730.56365,0.00255
3729.53339,0.00264
3728.50313,0.00267
3727.47287,0.00266
3726.44262,0.00284
3725.41236,0.00282
3724.38210,0.00235
3723.35184,0.00206
3722.32159,0.00242
3721.29133,0.00257
3720.26107,0.00245
3719.23081,0.00262
3718.20055,0.00281
3717.17030,0.00278
3716.14004,0.00255
3715.10978,0.00250
3714.07952,0.00276
3713.04926,0.00316
3712.01901,0.00361
3710.98875,0.00357
3709.95849,0.00296
3708.92823,0.00268
3707.89798,0.00307
3706.86772,0.00329
3705.83746,0.00288
3704.80720,0.00267
3703.77694,0.00323
3702.74669,0.00379
3701.71643,0.00363
3700.68617,0.00327
3699.65591,0.00332
3698.62565,0.00334
3697.59540,0.00315
3696.56514,0.00320
3695.53488,0.00338
3694.50462,0.00365
3693.47437,0.00442
3692.44411,0.00526
3691.41385,0.00541
3690.38359,0.00522
3689.35333,0.00539
3688.32308,0.00544
3687.29282,0.00496
3686.26256,0.00470
3685.23230,0.00489
3684.20205,0.00533
3683.17179,0.00611
3682.14153,0.00707
3681.11127,0.00741
3680.08101,0.00705
3679.05076,0.00683
3678.02050,0.00699
3676.99024,0.00702
3675.95998,0.00665
3674.92972,0.00649
3673.89947,0.00726
3672.86921,0.00813
3671.83895,0.00874
3670.80869,0.00900
3669.77844,0.00905
3668.74818,0.00962
3667.71792,0.01009
3666.68766,0.00995
3665.65740,0.00977
3664.62715,0.00987
3663.59689,0.01009
3662.56663,0.01034
3661.53637,0.01079
3660.50611,0.01128
3659.47586,0.01140
3658.44560,0.01137
3657.41534,0.01183
3656.38508,0.01274
3655.35483,0.01356
3654.32457,0.01393
3653.29431,0.01372
3652.26405,0.01323
3651.23379,0.01330
3650.20354,0.01448
3649.17328,0.01616
3648.14302,0.01714
3647.11276,0.01683
3646.08250,0.01615
3645.05225,0.01618
3644.02199,0.01645
3642.99173,0.01657
3641.96147,0.01717
3640.93122,0.01794
3639.90096,0.01820
3638.87070,0.01847
3637.84044,0.01928
3636.81018,0.02032
3635.77993,0.02086
3634.74967,0.02128
3633.71941,0.02214
3632.68915,0.02285
3631.65890,0.02335
3630.62864,0.02393
3629.59838,0.02431
3628.56812,0.02451
3627.53786,0.02534
3626.50761,0.02636
3625.47735,0.02672
3624.44709,0.02683
3623.41683,0.02729
3622.38657,0.02774
3621.35632,0.02804
3620.32606,0.02826
3619.29580,0.02849
3618.26554,0.02922
3617.23529,0.03012
3616.20503,0.03046
3615.17477,0.03072
3614.14451,0.03132
3613.11425,0.03231
3612.08400,0.03359
3611.05374,0.03472
3610.02348,0.03574
3608.99322,0.03678
3607.96296,0.03728
3606.93271,0.03701
3605.90245,0.03677
3604.87219,0.03745
3603.84193,0.03894
3602.81168,0.04031
3601.78142,0.04087
3600.75116,0.04091
3599.72090,0.04127
3598.69064,0.04220
3597.66039,0.04327
3596.63013,0.04446
3595.59987,0.04552
3594.56961,0.04595
3593.53936,0.04625
3592.50910,0.04695
3591.47884,0.04795
3590.44858,0.04916
3589.41832,0.05072
3588.38807,0.05227
3587.35781,0.05257
3586.32755,0.05196
3585.29729,0.05213
3584.26703,0.05300
3583.23678,0.05392
3582.20652,0.05469
3581.17626,0.05525
3580.14600,0.05590
3579.11575,0.05687
3578.08549,0.05788
3577.05523,0.05874
3576.02497,0.05972
3574.99471,0.06067
3573.96446,0.06106
3572.93420,0.06134
3571.90394,0.06215
3570.87368,0.06351
3569.84342,0.06500
3568.81317,0.06599
3567.78291,0.06632
3566.75265,0.06670
3565.72239,0.06748
3564.69214,0.06820
3563.66188,0.06872
3562.63162,0.06910
3561.60136,0.06958
3560.57110,0.07054
3559.54085,0.07184
3558.51059,0.07285
3557.48033,0.07339
3556.45007,0.07385
3555.41981,0.07457
3554.38956,0.07543
3553.35930,0.07615
3552.32904,0.07686
3551.29878,0.07762
3550.26853,0.07824
3549.23827,0.07928
3548.20801,0.08085
3547.17775,0.08163
3546.14749,0.08127
3545.11724,0.08106
3544.08698,0.08185
3543.05672,0.08301
3542.02646,0.08386
3540.99621,0.08463
3539.96595,0.08508
3538.93569,0.08484
3537.90543,0.08474
3536.87517,0.08557
3535.84492,0.08680
3534.81466,0.08766
3533.78440,0.08830
3532.75414,0.08900
3531.72388,0.08962
3530.69363,0.09009
3529.66337,0.09042
3528.63311,0.09056
3527.60285,0.09095
3526.57260,0.09156
3525.54234,0.09193
3524.51208,0.09225
3523.48182,0.09274
3522.45156,0.09350
3521.42131,0.09429
3520.39105,0.09456
3519.36079,0.09454
3518.33053,0.09494
3517.30027,0.09556
3516.27002,0.09587
3515.23976,0.09610
3514.20950,0.09697
3513.17924,0.09835
3512.14899,0.09906
3511.11873,0.09891
3510.08847,0.09912
3509.05821,0.09991
3508.02795,0.09997
3506.99770,0.09960
3505.96744,0.09995
3504.93718,0.10083
3503.90692,0.10173
3502.87666,0.10234
3501.84641,0.10254
3500.81615,0.10252
3499.78589,0.10251
3498.75563,0.10283
3497.72538,0.10338
3496.69512,0.10361
3495.66486,0.10354
3494.63460,0.10383
3493.60434,0.10455
3492.57409,0.10478
3491.54383,0.10439
3490.51357,0.10444
3489.48331,0.10512
3488.45306,0.10530
3487.42280,0.10496
3486.39254,0.10523
3485.36228,0.10596
3484.33202,0.10659
3483.30177,0.10709
3482.27151,0.10742
3481.24125,0.10744
3480.21099,0.10720
3479.18073,0.10726
3478.15048,0.10793
3477.12022,0.10860
3476.08996,0.10870
3475.05970,0.10842
3474.02945,0.10832
3472.99919,0.10849
3471.96893,0.10872
3470.93867,0.10863
3469.90841,0.10824
3468.87816,0.10845
3467.84790,0.10914
3466.81764,0.10929
3465.78738,0.10908
3464.75712,0.10961
3463.72687,0.11052
3462.69661,0.11069
3461.66635,0.11035
3460.63609,0.11035
3459.60584,0.11089
3458.57558,0.11163
3457.54532,0.11192
3456.51506,0.11145
3455.48480,0.11087
3454.45455,0.11094
3453.42429,0.11152
3452.39403,0.11225
3451.36377,0.11263
3450.33351,0.11247
3449.30326,0.11247
3448.27300,0.11285
3447.24274,0.11295
3446.21248,0.11276
3445.18223,0.11318
3444.15197,0.11380
3443.12171,0.11365
3442.09145,0.11312
3441.06119,0.11314
3440.03094,0.11369
3439.00068,0.11383
3437.97042,0.11333
3436.94016,0.11325
3435.90991,0.11391
3434.87965,0.11427
3433.84939,0.11409
3432.81913,0.11399
3431.78887,0.11384
3430.75862,0.11358
3429.72836,0.11388
3428.69810,0.11439
3427.66784,0.11441
3426.63758,0.11417
3425.60733,0.11416
3424.57707,0.11455
3423.54681,0.11519
3422.51655,0.11568
3421.48630,0.11574
3420.45604,0.11543
3419.42578,0.11504
3418.39552,0.11480
3417.36526,0.11457
3416.33501,0.11437
3415.30475,0.11424
3414.27449,0.11402
3413.24423,0.11410
3412.21397,0.11423
3411.18372,0.11392
3410.15346,0.11385
3409.12320,0.11428
3408.09294,0.11439
3407.06269,0.11420
3406.03243,0.11423
3405.00217,0.11428
3403.97191,0.11413
3402.94165,0.11381
3401.91140,0.11327
3400.88114,0.11300
3399.85088,0.11329
3398.82062,0.11338
3397.79036,0.11317
3396.76011,0.11289
3395.72985,0.11245
3394.69959,0.11185
3393.66933,0.11129
3392.63908,0.11120
3391.60882,0.11144
3390.57856,0.11162
3389.54830,0.11161
3388.51804,0.11130
3387.48779,0.11088
3386.45753,0.11058
3385.42727,0.11051
3384.39701,0.11083
3383.36676,0.11103
3382.33650,0.11049
3381.30624,0.10952
3380.27598,0.10846
3379.24572,0.10750
3378.21547,0.10712
3377.18521,0.10736
3376.15495,0.10794
3375.12469,0.10846
3374.09443,0.10832
3373.06418,0.10770
3372.03392,0.10701
3371.00366,0.10614
3369.97340,0.10530
3368.94315,0.10489
3367.91289,0.10477
3366.88263,0.10459
3365.85237,0.10427
3364.82211,0.10396
3363.79186,0.10391
3362.76160,0.10401
3361.73134,0.10361
3360.70108,0.10268
3359.67082,0.10189
3358.64057,0.10143
3357.61031,0.10109
3356.58005,0.10063
3355.54979,0.10003
3354.51954,0.09967
3353.48928,0.09935
3352.45902,0.09850
3351.42876,0.09774
3350.39850,0.09772
3349.36825,0.09780
3348.33799,0.09746
3347.30773,0.09703
3346.27747,0.09679
3345.24721,0.09659
3344.21696,0.09649
3343.18670,0.09621
3342.15644,0.09520
3341.12618,0.09415
3340.09593,0.09406
3339.06567,0.09453
3338.03541,0.09450
3337.00515,0.09382
3335.97489,0.09298
3334.94464,0.09252
3333.91438,0.09264
3332.88412,0.09265
3331.85386,0.09213
3330.82361,0.09153
3329.79335,0.09119
3328.76309,0.09114
3327.73283,0.09111
3326.70257,0.09074
3325.67232,0.09034
3324.64206,0.09020
3323.61180,0.09010
3322.58154,0.08979
3321.55128,0.08931
3320.52103,0.08878
3319.49077,0.08819
3318.46051,0.08790
3317.43025,0.08798
3316.40000,0.08779
3315.36974,0.08748
3314.33948,0.08747
3313.30922,0.08734
3312.27896,0.08697
3311.24871,0.08680
3310.21845,0.08648
3309.18819,0.08584
3308.15793,0.08545
3307.12767,0.08534
3306.09742,0.08548
3305.06716,0.08586
3304.03690,0.08595
3303.00664,0.08574
3301.97639,0.08563
3300.94613,0.08542
3299.91587,0.08460
3298.88561,0.08355
3297.85535,0.08317
3296.82510,0.08350
3295.79484,0.08388
3294.76458,0.08394
3293.73432,0.08381
3292.70406,0.08363
3291.67381,0.08338
3290.64355,0.08315
3289.61329,0.08292
3288.58303,0.08278
3287.55278,0.08260
3286.52252,0.08241
3285.49226,0.08261
3284.46200,0.08298
3283.43174,0.08273
3282.40149,0.08184
3281.37123,0.08113
3280.34097,0.08093
3279.31071,0.08108
3278.28046,0.08125
3277.25020,0.08106
3276.21994,0.08084
3275.18968,0.08082
3274.15942,0.08062
3273.12917,0.08018
3272.09891,0.07974
3271.06865,0.07932
3270.03839,0.07886
3269.00813,0.07867
3267.97788,0.07919
3266.94762,0.07981
3265.91736,0.07950
3264.88710,0.07857
3263.85685,0.07783
3262.82659,0.07756
3261.79633,0.07749
3260.76607,0.07739
3259.73581,0.07735
3258.70556,0.07720
3257.67530,0.07668
3256.64504,0.07619
3255.61478,0.07587
3254.58452,0.07527
3253.55427,0.07488
3252.52401,0.07519
3251.49375,0.07522
3250.46349,0.07466
3249.43324,0.07437
3248.40298,0.07429
3247.37272,0.07384
3246.34246,0.07318
3245.31220,0.07289
3244.28195,0.07293
3243.25169,0.07272
3242.22143,0.07219
3241.19117,0.07150
3240.16092,0.07099
3239.13066,0.07094
3238.10040,0.07098
3237.07014,0.07065
3236.03988,0.07005
3235.00963,0.06959
3233.97937,0.06938
3232.94911,0.06923
3231.91885,0.06901
3230.88859,0.06866
3229.85834,0.06795
3228.82808,0.06719
3227.79782,0.06716
3226.76756,0.06753
3225.73731,0.06742
3224.70705,0.06678
3223.67679,0.06603
3222.64653,0.06549
3221.61627,0.06527
3220.58602,0.06502
3219.55576,0.06456
3218.52550,0.06414
3217.49524,0.06379
3216.46498,0.06322
3215.43473,0.06262
3214.40447,0.06246
3213.37421,0.06232
3212.34395,0.06176
3211.31370,0.06134
3210.28344,0.06137
3209.25318,0.06130
3208.22292,0.06074
3207.19266,0.05998
3206.16241,0.05957
3205.13215,0.05964
3204.10189,0.05964
3203.07163,0.05912
3202.04137,0.05819
3201.01112,0.05733
3199.98086,0.05674
3198.95060,0.05628
3197.92034,0.05584
3196.89009,0.05544
3195.85983,0.05529
3194.82957,0.05542
3193.79931,0.05527
3192.76905,0.05456
3191.73880,0.05379
3190.70854,0.05341
3189.67828,0.05336
3188.64802,0.05322
3187.61777,0.05259
3186.58751,0.05183
3185.55725,0.05142
3184.52699,0.05132
3183.49673,0.05144
3182.46648,0.05160
3181.43622,0.05148
3180.40596,0.05113
3179.37570,0.05055
3178.34544,0.04962
3177.31519,0.04876
3176.28493,0.04829
3175.25467,0.04793
3174.22441,0.04757
3173.19416,0.04739
3172.16390,0.04746
3171.13364,0.04758
3170.10338,0.04751
3169.07312,0.04714
3168.04287,0.04664
3167.01261,0.04630
3165.98235,0.04608
3164.95209,0.04568
3163.92183,0.04516
3162.89158,0.04488
3161.86132,0.04493
3160.83106,0.04493
3159.80080,0.04454
3158.77055,0.04403
3157.74029,0.04381
3156.71003,0.04354
3155.67977,0.04280
3154.64951,0.04202
3153.61926,0.04169
3152.58900,0.04152
3151.55874,0.04113
3150.52848,0.04077
3149.49822,0.04084
3148.46797,0.04077
3147.43771,0.04032
3146.40745,0.03990
3145.37719,0.03939
3144.34694,0.03888
3143.31668,0.03874
3142.28642,0.03882
3141.25616,0.03905
3140.22590,0.03921
3139.19565,0.03888
3138.16539,0.03826
3137.13513,0.03776
3136.10487,0.03724
3135.07462,0.03666
3134.04436,0.03633
3133.01410,0.03638
3131.98384,0.03670
3130.95358,0.03670
3129.92333,0.03630
3128.89307,0.03612
3127.86281,0.03603
3126.83255,0.03549
3125.80229,0.03477
3124.77204,0.03463
3123.74178,0.03498
3122.71152,0.03541
3121.68126,0.03547
3120.65101,0.03496
3119.62075,0.03453
3118.59049,0.03447
3117.56023,0.03430
3116.52997,0.03387
3115.49972,0.03355
3114.46946,0.03330
3113.43920,0.03316
3112.40894,0.03321
3111.37868,0.03294
3110.34843,0.03249
3109.31817,0.03238
3108.28791,0.03238
3107.25765,0.03221
3106.22740,0.03192
3105.19714,0.03159
3104.16688,0.03143
3103.13662,0.03146
3102.10636,0.03123
3101.07611,0.03081
3100.04585,0.03064
3099.01559,0.03068
3097.98533,0.03056
3096.95507,0.03031
3095.92482,0.03006
3094.89456,0.02968
3093.86430,0.02927
3092.83404,0.02915
3091.80379,0.02921
3090.77353,0.02915
3089.74327,0.02889
3088.71301,0.02860
3087.68275,0.02836
3086.65250,0.02829
3085.62224,0.02828
3084.59198,0.02804
3083.56172,0.02782
3082.53147,0.02782
3081.50121,0.02789
3080.47095,0.02783
3079.44069,0.02744
3078.41043,0.02706
3077.38018,0.02715
3076.34992,0.02744
3075.31966,0.02747
3074.28940,0.02720
3073.25914,0.02676
3072.22889,0.02664
3071.19863,0.02691
3070.16837,0.02701
3069.13811,0.02685
3068.10786,0.02661
3067.07760,0.02620
3066.04734,0.02563
3065.01708,0.02519
3063.98682,0.02507
3062.95657,0.02526
3061.92631,0.02563
3060.89605,0.02574
3059.86579,0.02542
3058.83553,0.02510
3057.80528,0.02505
3056.77502,0.02517
3055.74476,0.02520
3054.71450,0.02498
3053.68425,0.02481
3052.65399,0.02483
3051.62373,0.02486
3050.59347,0.02477
3049.56321,0.02438
3048.53296,0.02387
3047.50270,0.02380
3046.47244,0.02402
3045.44218,0.02402
3044.41192,0.02388
3043.38167,0.02391
3042.35141,0.02388
3041.32115,0.02355
3040.29089,0.02334
3039.26064,0.02324
3038.23038,0.02314
3037.20012,0.02337
3036.16986,0.02363
3035.13960,0.02342
3034.10935,0.02298
3033.07909,0.02268
3032.04883,0.02248
3031.01857,0.02224
3029.98832,0.02225
3028.95806,0.02269
3027.92780,0.02305
3026.89754,0.02295
3025.86728,0.02274
3024.83703,0.02268
3023.80677,0.02239
3022.77651,0.02191
3021.74625,0.02192
3020.71599,0.02244
3019.68574,0.02274
3018.65548,0.02233
3017.62522,0.02161
3016.59496,0.02120
3015.56471,0.02135
3014.53445,0.02162
3013.50419,0.02151
3012.47393,0.02125
3011.44367,0.02115
3010.41342,0.02124
3009.38316,0.02150
3008.35290,0.02178
3007.32264,0.02173
3006.29238,0.02125
3005.26213,0.02075
3004.23187,0.02041
3003.20161,0.02041
3002.17135,0.02102
3001.14110,0.02170
3000.11084,0.02197
2999.08058,0.02213
2998.05032,0.02238
2997.02006,0.02240
2995.98981,0.02217
2994.95955,0.02209
2993.92929,0.02213
2992.89903,0.02208
2991.86877,0.02233
2990.83852,0.02308
2989.80826,0.02401
2988.77800,0.02473
2987.74774,0.02505
2986.71749,0.02493
2985.68723,0.02494
2984.65697,0.02562
2983.62671,0.02657
2982.59645,0.02735
2981.56620,0.02811
2980.53594,0.02902
2979.50568,0.02999
2978.47542,0.03091
2977.44517,0.03195
2976.41491,0.03328
2975.38465,0.03465
2974.35439,0.03581
2973.32413,0.03689
2972.29388,0.03821
2971.26362,0.03985
2970.23336,0.04140
2969.20310,0.04270
2968.17284,0.04433
2967.14259,0.04641
2966.11233,0.04836
2965.08207,0.05000
2964.05181,0.05150
2963.02156,0.05304
2961.99130,0.05483
2960.96104,0.05676
2959.93078,0.05871
2958.90052,0.06055
2957.87027,0.06204
2956.84001,0.06343
2955.80975,0.06502
2954.77949,0.06655
2953.74923,0.06813
2952.71898,0.06995
2951.68872,0.07164
2950.65846,0.07305
2949.62820,0.07436
2948.59795,0.07567
2947.56769,0.07711
2946.53743,0.07849
2945.50717,0.07922
2944.47691,0.07927
2943.44666,0.07947
2942.41640,0.08029
2941.38614,0.08148
2940.35588,0.08273
2939.32562,0.08380
2938.29537,0.08483
2937.26511,0.08593
2936.23485,0.08661
2935.20459,0.08677
2934.17434,0.08704
2933.14408,0.08774
2932.11382,0.08883
2931.08356,0.09016
2930.05330,0.09133
2929.02305,0.09217
2927.99279,0.09293
2926.96253,0.09405
2925.93227,0.09549
2924.90202,0.09683
2923.87176,0.09813
2922.84150,0.09923
2921.81124,0.10009
2920.78098,0.10128
2919.75073,0.10292
2918.72047,0.10446
2917.69021,0.10574
2916.65995,0.10720
2915.62969,0.10888
2914.59944,0.11011
2913.56918,0.11080
2912.53892,0.11138
2911.50866,0.11209
2910.47841,0.11301
2909.44815,0.11397
2908.41789,0.11463
2907.38763,0.11509
2906.35737,0.11578
2905.32712,0.11675
2904.29686,0.11754
2903.26660,0.11802
2902.23634,0.11841
2901.20608,0.11898
2900.17583,0.11995
2899.14557,0.12080
2898.11531,0.12144
2897.08505,0.12254
2896.05480,0.12379
2895.02454,0.12465
2893.99428,0.12525
2892.96402,0.12567
2891.93376,0.12610
2890.90351,0.12673
2889.87325,0.12776
2888.84299,0.12926
2887.81273,0.13088
2886.78247,0.13231
2885.75222,0.13366
2884.72196,0.13523
2883.69170,0.13691
2882.66144,0.13850
2881.63119,0.14011
2880.60093,0.14159
2879.57067,0.14292
2878.54041,0.14458
2877.51015,0.14639
2876.47990,0.14763
2875.44964,0.14837
2874.41938,0.14910
2873.38912,0.14984
2872.35887,0.15045
2871.32861,0.15110
2870.29835,0.15174
2869.26809,0.15204
2868.23783,0.15193
2867.20758,0.15146
2866.17732,0.15046
2865.14706,0.14900
2864.11680,0.14745
2863.08654,0.14562
2862.05629,0.14304
2861.02603,0.13990
2859.99577,0.13713
2858.96551,0.13459
2857.93526,0.13138
2856.90500,0.12778
2855.87474,0.12426
2854.84448,0.12075
2853.81422,0.11724
2852.78397,0.11338
2851.75371,0.10919
2850.72345,0.10537
2849.69319,0.10216
2848.66293,0.09906
2847.63268,0.09576
2846.60242,0.09252
2845.57216,0.08965
2844.54190,0.08691
2843.51165,0.08403
2842.48139,0.08116
2841.45113,0.07851
2840.42087,0.07637
2839.39061,0.07448
2838.36036,0.07225
2837.33010,0.06982
2836.29984,0.06776
2835.26958,0.06603
2834.23933,0.06442
2833.20907,0.06305
2832.17881,0.06167
2831.14855,0.06003
2830.11829,0.05852
2829.08804,0.05736
2828.05778,0.05641
2827.02752,0.05569
2825.99726,0.05492
2824.96700,0.05388
2823.93675,0.05284
2822.90649,0.05196
2821.87623,0.05127
2820.84597,0.05067
2819.81572,0.05000
2818.78546,0.04929
2817.75520,0.04853
2816.72494,0.04761
2815.69468,0.04649
2814.66443,0.04553
2813.63417,0.04482
2812.60391,0.04414
2811.57365,0.04359
2810.54339,0.04317
2809.51314,0.04257
2808.48288,0.04163
2807.45262,0.04054
2806.42236,0.03960
2805.39211,0.03891
2804.36185,0.03821
2803.33159,0.03747
2802.30133,0.03689
2801.27107,0.03624
2800.24082,0.03547
2799.21056,0.03493
2798.18030,0.03442
2797.15004,0.03383
2796.11978,0.03331
2795.08953,0.03285
2794.05927,0.03261
2793.02901,0.03241
2791.99875,0.03188
2790.96850,0.03103
2789.93824,0.03027
2788.90798,0.02990
2787.87772,0.02955
2786.84746,0.02894
2785.81721,0.02833
2784.78695,0.02784
2783.75669,0.02764
2782.72643,0.02761
2781.69618,0.02714
2780.66592,0.02652
2779.63566,0.02622
2778.60540,0.02585
2777.57514,0.02550
2776.54489,0.02537
2775.51463,0.02517
2774.48437,0.02479
2773.45411,0.02433
2772.42385,0.02404
2771.39360,0.02403
2770.36334,0.02391
2769.33308,0.02359
2768.30282,0.02327
2767.27257,0.02305
2766.24231,0.02292
2765.21205,0.02275
2764.18179,0.02260
2763.15153,0.02258
2762.12128,0.02251
2761.09102,0.02214
2760.06076,0.02174
2759.03050,0.02154
2758.00024,0.02128
2756.96999,0.02097
2755.93973,0.02085
2754.90947,0.02096
2753.87921,0.02116
2752.84896,0.02125
2751.81870,0.02129
2750.78844,0.02132
2749.75818,0.02123
2748.72792,0.02117
2747.69767,0.02107
2746.66741,0.02086
2745.63715,0.02077
2744.60689,0.02087
2743.57663,0.02073
2742.54638,0.02031
2741.51612,0.01999
2740.48586,0.01971
2739.45560,0.01951
2738.42535,0.01959
2737.39509,0.01989
2736.36483,0.02009
2735.33457,0.01997
2734.30431,0.01962
2733.27406,0.01919
2732.24380,0.01890
2731.21354,0.01876
2730.18328,0.01861
2729.15303,0.01843
2728.12277,0.01843
2727.09251,0.01857
2726.06225,0.01846
2725.03199,0.01798
2724.00174,0.01761
2722.97148,0.01764
2721.94122,0.01769
2720.91096,0.01746
2719.88070,0.01708
2718.85045,0.01685
2717.82019,0.01668
2716.78993,0.01640
2715.75967,0.01609
2714.72942,0.01594
2713.69916,0.01597
2712.66890,0.01587
2711.63864,0.01567
2710.60838,0.01566
2709.57813,0.01561
2708.54787,0.01526
2707.51761,0.01489
2706.48735,0.01481
2705.45709,0.01487
2704.42684,0.01475
2703.39658,0.01451
2702.36632,0.01449
2701.33606,0.01438
2700.30581,0.01411
2699.27555,0.01403
2698.24529,0.01397
2697.21503,0.01374
2696.18477,0.01353
2695.15452,0.01338
2694.12426,0.01318
2693.09400,0.01296
2692.06374,0.01286
2691.03348,0.01287
2690.00323,0.01273
2688.97297,0.01238
2687.94271,0.01197
2686.91245,0.01155
2685.88220,0.01137
2684.85194,0.01144
2683.82168,0.01130
2682.79142,0.01087
2681.76116,0.01058
2680.73091,0.01045
2679.70065,0.01022
2678.67039,0.00990
2677.64013,0.00970
2676.60988,0.00962
2675.57962,0.00944
2674.54936,0.00918
2673.51910,0.00929
2672.48884,0.00979
2671.45859,0.01000
2670.42833,0.00953
2669.39807,0.00907
2668.36781,0.00908
2667.33755,0.00897
2666.30730,0.00865
2665.27704,0.00858
2664.24678,0.00873
2663.21652,0.00883
2662.18627,0.00865
2661.15601,0.00837
2660.12575,0.00829
2659.09549,0.00832
2658.06523,0.00830
2657.03498,0.00825
2656.00472,0.00814
2654.97446,0.00802
2653.94420,0.00798
2652.91394,0.00786
2651.88369,0.00774
2650.85343,0.00788
2649.82317,0.00798
2648.79291,0.00767
2647.76266,0.00731
2646.73240,0.00717
2645.70214,0.00720
2644.67188,0.00742
2643.64162,0.00749
2642.61137,0.00730
2641.58111,0.00723
2640.55085,0.00743
2639.52059,0.00778
2638.49033,0.00799
2637.46008,0.00769
2636.42982,0.00714
2635.39956,0.00691
2634.36930,0.00699
2633.33905,0.00709
2632.30879,0.00705
2631.27853,0.00702
2630.24827,0.00694
2629.21801,0.00667
2628.18776,0.00670
2627.15750,0.00690
2626.12724,0.00675
2625.09698,0.00664
2624.06673,0.00669
2623.03647,0.00670
2622.00621,0.00667
2620.97595,0.00659
2619.94569,0.00667
2618.91544,0.00682
2617.88518,0.00664
2616.85492,0.00629
2615.82466,0.00608
2614.79440,0.00593
2613.76415,0.00596
2612.73389,0.00626
2611.70363,0.00650
2610.67337,0.00654
2609.64312,0.00642
2608.61286,0.00613
2607.58260,0.00605
2606.55234,0.00632
2605.52208,0.00643
2604.49183,0.00652
2603.46157,0.00674
2602.43131,0.00666
2601.40105,0.00644
2600.37079,0.00630
2599.34054,0.00599
2598.31028,0.00571
2597.28002,0.00583
2596.24976,0.00585
2595.21951,0.00559
2594.18925,0.00558
2593.15899,0.00582
2592.12873,0.00587
2591.09847,0.00555
2590.06822,0.00522
2589.03796,0.00524
2588.00770,0.00558
2586.97744,0.00591
2585.94718,0.00591
2584.91693,0.00571
2583.88667,0.00551
2582.85641,0.00534
2581.82615,0.00534
2580.79590,0.00539
2579.76564,0.00532
2578.73538,0.00553
2577.70512,0.00596
2576.67486,0.00601
2575.64461,0.00601
2574.61435,0.00627
2573.58409,0.00653
2572.55383,0.00634
2571.52358,0.00548
2570.49332,0.00469
2569.46306,0.00455
2568.43280,0.00458
2567.40254,0.00452
2566.37229,0.00465
2565.34203,0.00495
2564.31177,0.00507
2563.28151,0.00479
2562.25125,0.00466
2561.22100,0.00498
2560.19074,0.00521
2559.16048,0.00518
2558.13022,0.00515
2557.09997,0.00519
2556.06971,0.00528
2555.03945,0.00532
2554.00919,0.00480
2552.97893,0.00406
2551.94868,0.00410
2550.91842,0.00453
2549.88816,0.00460
2548.85790,0.00436
2547.82764,0.00434
2546.79739,0.00488
2545.76713,0.00527
2544.73687,0.00497
2543.70661,0.00471
2542.67636,0.00496
2541.64610,0.00522
2540.61584,0.00500
2539.58558,0.00466
2538.55532,0.00441
2537.52507,0.00423
2536.49481,0.00436
2535.46455,0.00466
2534.43429,0.00488
2533.40403,0.00510
2532.37378,0.00530
2531.34352,0.00536
2530.31326,0.00516
2529.28300,0.00473
2528.25275,0.00454
2527.22249,0.00471
2526.19223,0.00516
2525.16197,0.00558
2524.13171,0.00535
2523.10146,0.00465
2522.07120,0.00464
2521.04094,0.00545
2520.01068,0.00563
2518.98043,0.00509
2517.95017,0.00493
2516.91991,0.00497
2515.88965,0.00462
2514.85939,0.00433
2513.82914,0.00480
2512.79888,0.00546
2511.76862,0.00546
2510.73836,0.00497
2509.70810,0.00475
2508.67785,0.00464
2507.64759,0.00431
2506.61733,0.00407
2505.58707,0.00411
2504.55682,0.00440
2503.52656,0.00441
2502.49630,0.00400
2501.46604,0.00364
2500.43578,0.00356
2499.40553,0.00373
2498.37527,0.00397
2497.34501,0.00406
2496.31475,0.00427
2495.28449,0.00453
2494.25424,0.00433
2493.22398,0.00382
2492.19372,0.00370
2491.16346,0.00415
2490.13321,0.00458
2489.10295,0.00461
2488.07269,0.00458
2487.04243,0.00446
2486.01217,0.00399
2484.98192,0.00346
2483.95166,0.00331
2482.92140,0.00365
2481.89114,0.00398
2480.86088,0.00421
2479.83063,0.00473
2478.80037,0.00469
2477.77011,0.00368
2476.73985,0.00288
2475.70960,0.00291
2474.67934,0.00331
2473.64908,0.00362
2472.61882,0.00376
2471.58856,0.00372
2470.55831,0.00359
2469.52805,0.00383
2468.49779,0.00427
2467.46753,0.00423
2466.43728,0.00384
2465.40702,0.00374
2464.37676,0.00375
2463.34650,0.00363
2462.31624,0.00373
2461.28599,0.00378
2460.25573,0.00352
2459.22547,0.00330
2458.19521,0.00321
2457.16495,0.00316
2456.13470,0.00345
2455.10444,0.00388
2454.07418,0.00390
2453.04392,0.00401
2452.01367,0.00463
2450.98341,0.00506
2449.95315,0.00483
2448.92289,0.00453
2447.89263,0.00460
2446.86238,0.00479
2445.83212,0.00472
2444.80186,0.00438
2443.77160,0.00431
2442.74134,0.00438
2441.71109,0.00391
2440.68083,0.00355
2439.65057,0.00389
2438.62031,0.00409
2437.59006,0.00388
2436.55980,0.00377
2435.52954,0.00395
2434.49928,0.00426
2433.46902,0.00411
2432.43877,0.00364
2431.40851,0.00396
2430.37825,0.00458
2429.34799,0.00421
2428.31774,0.00355
2427.28748,0.00388
2426.25722,0.00469
2425.22696,0.00495
2424.19670,0.00478
2423.16645,0.00434
2422.13619,0.00371
2421.10593,0.00332
2420.07567,0.00353
2419.04541,0.00418
2418.01516,0.00466
2416.98490,0.00478
2415.95464,0.00493
2414.92438,0.00496
2413.89413,0.00459
2412.86387,0.00437
2411.83361,0.00460
2410.80335,0.00462
2409.77309,0.00417
2408.74284,0.00363
2407.71258,0.00348
2406.68232,0.00410
2405.65206,0.00469
2404.62180,0.00454
2403.59155,0.00436
2402.56129,0.00435
2401.53103,0.00417
2400.50077,0.00394
2399.47052,0.00404
2398.44026,0.00452
2397.41000,0.00499
2396.37974,0.00500
2395.34948,0.00470
2394.31923,0.00481
2393.28897,0.00501
2392.25871,0.00464
2391.22845,0.00412
2390.19819,0.00386
2389.16794,0.00394
2388.13768,0.00427
2387.10742,0.00429
2386.07716,0.00395
2385.04691,0.00380
2384.01665,0.00412
2382.98639,0.00457
2381.95613,0.00473
2380.92587,0.00485
2379.89562,0.00522
2378.86536,0.00577
2377.83510,0.00625
2376.80484,0.00662
2375.77459,0.00682
2374.74433,0.00686
2373.71407,0.00710
2372.68381,0.00753
2371.65355,0.00787
2370.62330,0.00798
2369.59304,0.00818
2368.56278,0.00908
2367.53252,0.00994
2366.50226,0.00936
2365.47201,0.00827
2364.44175,0.00818
2363.41149,0.00874
2362.38123,0.00939
2361.35098,0.01026
2360.32072,0.01081
2359.29046,0.01010
2358.26020,0.00892
2357.22994,0.00839
2356.19969,0.00840
2355.16943,0.00819
2354.13917,0.00809
2353.10891,0.00865
2352.07865,0.00867
2351.04840,0.00768
2350.01814,0.00676
2348.98788,0.00643
2347.95762,0.00673
2346.92737,0.00760
2345.89711,0.00803
2344.86685,0.00783
2343.83659,0.00818
2342.80633,0.00886
2341.77608,0.00904
2340.74582,0.00908
2339.71556,0.00915
2338.68530,0.00874
2337.65504,0.00833
2336.62479,0.00837
2335.59453,0.00810
2334.56427,0.00750
2333.53401,0.00714
2332.50376,0.00712
2331.47350,0.00714
2330.44324,0.00710
2329.41298,0.00734
2328.38272,0.00785
2327.35247,0.00853
2326.32221,0.00898
2325.29195,0.00876
2324.26169,0.00841
2323.23144,0.00843
2322.20118,0.00838
2321.17092,0.00801
2320.14066,0.00744
2319.11040,0.00706
2318.08015,0.00719
2317.04989,0.00730
2316.01963,0.00730
2314.98937,0.00723
2313.95911,0.00678
2312.92886,0.00638
2311.89860,0.00603
2310.86834,0.00515
2309.83808,0.00445
2308.80783,0.00483
2307.77757,0.00527
2306.74731,0.00494
2305.71705,0.00470
2304.68679,0.00511
2303.65654,0.00522
2302.62628,0.00473
2301.59602,0.00453
2300.56576,0.00454
2299.53550,0.00439
2298.50525,0.00429
2297.47499,0.00459
2296.44473,0.00491
2295.41447,0.00508
2294.38422,0.00536
2293.35396,0.00518
2292.32370,0.00454
2291.29344,0.00424
2290.26318,0.00432
2289.23293,0.00466
2288.20267,0.00508
2287.17241,0.00543
2286.14215,0.00573
2285.11189,0.00566
2284.08164,0.00531
2283.05138,0.00507
2282.02112,0.00502
2280.99086,0.00504
2279.96061,0.00490
2278.93035,0.00432
2277.90009,0.00356
2276.86983,0.00330
2275.83957,0.00388
2274.80932,0.00481
2273.77906,0.00516
2272.74880,0.00463
2271.71854,0.00409
2270.68829,0.00425
2269.65803,0.00438
2268.62777,0.00442
2267.59751,0.00478
2266.56725,0.00487
2265.53700,0.00465
2264.50674,0.00455
2263.47648,0.00464
2262.44622,0.00450
2261.41596,0.00414
2260.38571,0.00436
2259.35545,0.00503
2258.32519,0.00534
2257.29493,0.00523
2256.26468,0.00486
2255.23442,0.00421
2254.20416,0.00340
2253.17390,0.00282
2252.14364,0.00340
2251.11339,0.00471
2250.08313,0.00520
2249.05287,0.00477
2248.02261,0.00448
2246.99235,0.00473
2245.96210,0.00443
2244.93184,0.00361
2243.90158,0.00329
2242.87132,0.00329
2241.84107,0.00388
2240.81081,0.00456
2239.78055,0.00428
2238.75029,0.00363
2237.72003,0.00370
2236.68978,0.00448
2235.65952,0.00492
2234.62926,0.00447
2233.59900,0.00352
2232.56874,0.00296
2231.53849,0.00348
2230.50823,0.00436
2229.47797,0.00436
2228.44771,0.00333
2227.41746,0.00243
2226.38720,0.00286
2225.35694,0.00338
2224.32668,0.00247
2223.29642,0.00127
2222.26617,0.00112
2221.23591,0.00248
2220.20565,0.00438
2219.17539,0.00450
2218.14514,0.00340
2217.11488,0.00326
2216.08462,0.00375
2215.05436,0.00385
2214.02410,0.00348
2212.99385,0.00220
2211.96359,0.00073
2210.93333,0.00106
2209.90307,0.00250
2208.87281,0.00328
2207.84256,0.00364
2206.81230,0.00409
2205.78204,0.00368
2204.75178,0.00195
2203.72153,0.00108
2202.69127,0.00275
2201.66101,0.00471
2200.63075,0.00487
2199.60049,0.00484
2198.57024,0.00505
2197.53998,0.00424
2196.50972,0.00300
2195.47946,0.00225
2194.44920,0.00202
2193.41895,0.00236
2192.38869,0.00291
2191.35843,0.00192
2190.32817,-0.00022
2189.29792,-0.00009
2188.26766,0.00260
2187.23740,0.00456
2186.20714,0.00431
2185.17688,0.00355
2184.14663,0.00355
2183.11637,0.00380
2182.08611,0.00349
2181.05585,0.00255
2180.02559,0.00265
2178.99534,0.00415
2177.96508,0.00463
2176.93482,0.00316
2175.90456,0.00132
2174.87431,0.00041
2173.84405,0.00104
2172.81379,0.00267
2171.78353,0.00365
2170.75327,0.00376
2169.72302,0.00344
2168.69276,0.00292
2167.66250,0.00284
2166.63224,0.00314
2165.60199,0.00250
2164.57173,0.00124
2163.54147,0.00131
2162.51121,0.00177
2161.48095,0.00112
2160.45070,0.00107
2159.42044,0.00265
2158.39018,0.00268
2157.35992,0.00129
2156.32966,0.00288
2155.29941,0.00548
2154.26915,0.00471
2153.23889,0.00206
2152.20863,0.00042
2151.17838,0.00030
2150.14812,0.00090
2149.11786,0.00141
2148.08760,0.00145
2147.05734,0.00178
2146.02709,0.00329
2144.99683,0.00478
2143.96657,0.00506
2142.93631,0.00394
2141.90605,0.00259
2140.87580,0.00307
2139.84554,0.00499
2138.81528,0.00656
2137.78502,0.00704
2136.75477,0.00649
2135.72451,0.00591
2134.69425,0.00677
2133.66399,0.00805
2132.63373,0.00813
2131.60348,0.00747
2130.57322,0.00649
2129.54296,0.00563
2128.51270,0.00534
2127.48244,0.00510
2126.45219,0.00504
2125.42193,0.00572
2124.39167,0.00635
2123.36141,0.00637
2122.33116,0.00626
2121.30090,0.00662
2120.27064,0.00764
2119.24038,0.00831
2118.21012,0.00824
2117.17987,0.00777
2116.14961,0.00679
2115.11935,0.00597
2114.08909,0.00609
2113.05884,0.00674
2112.02858,0.00691
2110.99832,0.00682
2109.96806,0.00735
2108.93780,0.00767
2107.90755,0.00742
2106.87729,0.00724
2105.84703,0.00713
2104.81677,0.00701
2103.78651,0.00678
2102.75626,0.00644
2101.72600,0.00613
2100.69574,0.00636
2099.66548,0.00684
2098.63523,0.00628
2097.60497,0.00565
2096.57471,0.00646
2095.54445,0.00797
2094.51419,0.00853
2093.48394,0.00782
2092.45368,0.00717
2091.42342,0.00695
2090.39316,0.00716
2089.36290,0.00800
2088.33265,0.00866
2087.30239,0.00814
2086.27213,0.00637
2085.24187,0.00510
2084.21162,0.00530
2083.18136,0.00595
2082.15110,0.00722
2081.12084,0.00879
2080.09058,0.00847
2079.06033,0.00643
2078.03007,0.00473
2076.99981,0.00437
2075.96955,0.00506
2074.93930,0.00585
2073.90904,0.00631
2072.87878,0.00638
2071.84852,0.00640
2070.81826,0.00593
2069.78801,0.00524
2068.75775,0.00576
2067.72749,0.00660
2066.69723,0.00681
2065.66697,0.00641
2064.63672,0.00568
2063.60646,0.00534
2062.57620,0.00535
2061.54594,0.00576
2060.51569,0.00660
2059.48543,0.00677
2058.45517,0.00589
2057.42491,0.00490
2056.39465,0.00437
2055.36440,0.00486
2054.33414,0.00598
2053.30388,0.00596
2052.27362,0.00454
2051.24336,0.00330
2050.21311,0.00403
2049.18285,0.00680
2048.15259,0.00868
2047.12233,0.00784
2046.09208,0.00642
2045.06182,0.00633
2044.03156,0.00751
2043.00130,0.00846
2041.97104,0.00790
2040.94079,0.00701
2039.91053,0.00586
2038.88027,0.00444
2037.85001,0.00432
2036.81975,0.00555
2035.78950,0.00695
2034.75924,0.00665
2033.72898,0.00451
2032.69872,0.00311
2031.66847,0.00323
2030.63821,0.00357
2029.60795,0.00322
2028.57769,0.00210
2027.54743,0.00118
2026.51718,0.00107
2025.48692,0.00231
2024.45666,0.00389
2023.42640,0.00396
2022.39615,0.00413
2021.36589,0.00551
2020.33563,0.00611
2019.30537,0.00571
2018.27511,0.00584
2017.24486,0.00554
2016.21460,0.00444
2015.18434,0.00508
2014.15408,0.00719
2013.12382,0.00796
2012.09357,0.00623
2011.06331,0.00492
2010.03305,0.00662
2009.00279,0.00879
2007.97254,0.00917
2006.94228,0.00832
2005.91202,0.00723
2004.88176,0.00659
2003.85150,0.00637
2002.82125,0.00550
2001.79099,0.00400
2000.76073,0.00388
1999.73047,0.00502
1998.70021,0.00555
1997.66996,0.00524
1996.63970,0.00534
1995.60944,0.00651
1994.57918,0.00754
1993.54893,0.00730
1992.51867,0.00674
1991.48841,0.00684
1990.45815,0.00681
1989.42789,0.00696
1988.39764,0.00823
1987.36738,0.00888
1986.33712,0.00802
1985.30686,0.00694
1984.27660,0.00557
1983.24635,0.00481
1982.21609,0.00616
1981.18583,0.00818
1980.15557,0.00942
1979.12532,0.01012
1978.09506,0.01001
1977.06480,0.00904
1976.03454,0.00854
1975.00428,0.00794
1973.97403,0.00619
1972.94377,0.00505
1971.91351,0.00529
1970.88325,0.00612
1969.85300,0.00717
1968.82274,0.00719
1967.79248,0.00656
1966.76222,0.00678
1965.73196,0.00743
1964.70171,0.00846
1963.67145,0.00933
1962.64119,0.00888
1961.61093,0.00727
1960.58067,0.00607
1959.55042,0.00660
1958.52016,0.00817
1957.48990,0.00961
1956.45964,0.00983
1955.42939,0.00863
1954.39913,0.00741
1953.36887,0.00738
1952.33861,0.00839
1951.30835,0.00928
1950.27810,0.00959
1949.24784,0.00919
1948.21758,0.00883
1947.18732,0.00961
1946.15706,0.01009
1945.12681,0.00846
1944.09655,0.00656
1943.06629,0.00698
1942.03603,0.00829
1941.00578,0.00859
1939.97552,0.00846
1938.94526,0.00801
1937.91500,0.00770
1936.88474,0.00772
1935.85449,0.00749
1934.82423,0.00712
1933.79397,0.00680
1932.76371,0.00685
1931.73345,0.00743
1930.70320,0.00791
1929.67294,0.00840
1928.64268,0.00896
1927.61242,0.00881
1926.58217,0.00852
1925.55191,0.00845
1924.52165,0.00785
1923.49139,0.00690
1922.46113,0.00646
1921.43088,0.00656
1920.40062,0.00647
1919.37036,0.00601
1918.34010,0.00547
1917.30985,0.00532
1916.27959,0.00565
1915.24933,0.00581
1914.21907,0.00566
1913.18881,0.00540
1912.15856,0.00502
1911.12830,0.00525
1910.09804,0.00623
1909.06778,0.00658
1908.03752,0.00598
1907.00727,0.00523
1905.97701,0.00502
1904.94675,0.00522
1903.91649,0.00528
1902.88624,0.00534
1901.85598,0.00561
1900.82572,0.00562
1899.79546,0.00506
1898.76520,0.00438
1897.73495,0.00423
1896.70469,0.00452
1895.67443,0.00494
1894.64417,0.00547
1893.61391,0.00588
1892.58366,0.00609
1891.55340,0.00586
1890.52314,0.00517
1889.49288,0.00447
1888.46263,0.00389
1887.43237,0.00387
1886.40211,0.00454
1885.37185,0.00484
1884.34159,0.00437
1883.31134,0.00399
1882.28108,0.00378
1881.25082,0.00320
1880.22056,0.00293
1879.19030,0.00336
1878.16005,0.00405
1877.12979,0.00499
1876.09953,0.00547
1875.06927,0.00507
1874.03902,0.00452
1873.00876,0.00420
1871.97850,0.00430
1870.94824,0.00470
1869.91798,0.00468
1868.88773,0.00401
1867.85747,0.00346
1866.82721,0.00372
1865.79695,0.00438
1864.76670,0.00481
1863.73644,0.00500
1862.70618,0.00515
1861.67592,0.00490
1860.64566,0.00421
1859.61541,0.00394
1858.58515,0.00427
1857.55489,0.00461
1856.52463,0.00497
1855.49437,0.00521
1854.46412,0.00481
1853.43386,0.00423
1852.40360,0.00413
1851.37334,0.00433
1850.34309,0.00476
1849.31283,0.00517
1848.28257,0.00495
1847.25231,0.00432
1846.22205,0.00422
1845.19180,0.00454
1844.16154,0.00431
1843.13128,0.00384
1842.10102,0.00390
1841.07076,0.00405
1840.04051,0.00400
1839.01025,0.00402
1837.97999,0.00416
1836.94973,0.00437
1835.91948,0.00462
1834.88922,0.00460
1833.85896,0.00439
1832.82870,0.00434
1831.79844,0.00439
1830.76819,0.00434
1829.73793,0.00423
1828.70767,0.00401
1827.67741,0.00394
1826.64715,0.00428
1825.61690,0.00444
1824.58664,0.00414
1823.55638,0.00398
1822.52612,0.00408
1821.49587,0.00432
1820.46561,0.00465
1819.43535,0.00503
1818.40509,0.00510
1817.37483,0.00478
1816.34458,0.00477
1815.31432,0.00511
1814.28406,0.00511
1813.25380,0.00483
1812.22355,0.00492
1811.19329,0.00531
1810.16303,0.00542
1809.13277,0.00527
1808.10251,0.00529
1807.07226,0.00550
1806.04200,0.00567
1805.01174,0.00582
1803.98148,0.00601
1802.95122,0.00615
1801.92097,0.00614
1800.89071,0.00599
1799.86045,0.00575
1798.83019,0.00542
1797.79994,0.00514
1796.76968,0.00548
1795.73942,0.00624
1794.70916,0.00643
1793.67890,0.00605
1792.64865,0.00580
1791.61839,0.00597
1790.58813,0.00609
1789.55787,0.00588
1788.52761,0.00568
1787.49736,0.00573
1786.46710,0.00589
1785.43684,0.00602
1784.40658,0.00600
1783.37633,0.00594
1782.34607,0.00615
1781.31581,0.00645
1780.28555,0.00656
1779.25529,0.00687
1778.22504,0.00731
1777.19478,0.00737
1776.16452,0.00705
1775.13426,0.00670
1774.10400,0.00653
1773.07375,0.00667
1772.04349,0.00690
1771.01323,0.00672
1769.98297,0.00665
1768.95272,0.00695
1767.92246,0.00699
1766.89220,0.00681
1765.86194,0.00696
1764.83168,0.00725
1763.80143,0.00756
1762.77117,0.00789
1761.74091,0.00789
1760.71065,0.00770
1759.68040,0.00795
1758.65014,0.00844
1757.61988,0.00854
1756.58962,0.00823
1755.55936,0.00822
1754.52911,0.00846
1753.49885,0.00854
1752.46859,0.00856
1751.43833,0.00859
1750.40807,0.00866
1749.37782,0.00898
1748.34756,0.00940
1747.31730,0.00944
1746.28704,0.00910
1745.25679,0.00901
1744.22653,0.00931
1743.19627,0.00937
1742.16601,0.00913
1741.13575,0.00901
1740.10550,0.00899
1739.07524,0.00906
1738.04498,0.00915
1737.01472,0.00923
1735.98446,0.00953
1734.95421,0.01025
1733.92395,0.01096
1732.89369,0.01064
1731.86343,0.01034
1730.83318,0.01055
1729.80292,0.01069
1728.77266,0.01074
1727.74240,0.01115
1726.71214,0.01155
1725.68189,0.01173
1724.65163,0.01212
1723.62137,0.01259
1722.59111,0.01274
1721.56085,0.01271
1720.53060,0.01285
1719.50034,0.01298
1718.47008,0.01268
1717.43982,0.01251
1716.40957,0.01309
1715.37931,0.01370
1714.34905,0.01414
1713.31879,0.01446
1712.28853,0.01463
1711.25828,0.01490
1710.22802,0.01544
1709.19776,0.01587
1708.16750,0.01616
1707.13725,0.01677
1706.10699,0.01758
1705.07673,0.01801
1704.04647,0.01821
1703.01621,0.01830
1701.98596,0.01830
1700.95570,0.01851
1699.92544,0.01940
1698.89518,0.02017
1697.86492,0.02047
1696.83467,0.02077
1695.80441,0.02139
1694.77415,0.02221
1693.74389,0.02279
1692.71364,0.02332
1691.68338,0.02415
1690.65312,0.02538
1689.62286,0.02648
1688.59260,0.02715
1687.56235,0.02773
1686.53209,0.02835
1685.50183,0.02923
1684.47157,0.03103
1683.44131,0.03275
1682.41106,0.03331
1681.38080,0.03386
1680.35054,0.03481
1679.32028,0.03600
1678.29003,0.03706
1677.25977,0.03787
1676.22951,0.03852
1675.19925,0.03956
1674.16899,0.04117
1673.13874,0.04254
1672.10848,0.04378
1671.07822,0.04518
1670.04796,0.04672
1669.01771,0.04813
1667.98745,0.04916
1666.95719,0.05023
1665.92693,0.05156
1664.89667,0.05283
1663.86642,0.05401
1662.83616,0.05549
1661.80590,0.05714
1660.77564,0.05845
1659.74538,0.05955
1658.71513,0.06061
1657.68487,0.06167
1656.65461,0.06264
1655.62435,0.06364
1654.59410,0.06486
1653.56384,0.06643
1652.53358,0.06736
1651.50332,0.06707
1650.47306,0.06711
1649.44281,0.06766
1648.41255,0.06828
1647.38229,0.06854
1646.35203,0.06867
1645.32177,0.06846
1644.29152,0.06793
1643.26126,0.06745
1642.23100,0.06721
1641.20074,0.06722
1640.17049,0.06718
1639.14023,0.06686
1638.10997,0.06604
1637.07971,0.06506
1636.04945,0.06432
1635.01920,0.06313
1633.98894,0.06184
1632.95868,0.06098
1631.92842,0.06013
1630.89816,0.05925
1629.86791,0.05838
1628.83765,0.05733
1627.80739,0.05565
1626.77713,0.05380
1625.74688,0.05247
1624.71662,0.05139
1623.68636,0.04989
1622.65610,0.04799
1621.62584,0.04653
1620.59559,0.04518
1619.56533,0.04381
1618.53507,0.04282
1617.50481,0.04200
1616.47456,0.04037
1615.44430,0.03868
1614.41404,0.03758
1613.38378,0.03646
1612.35352,0.03526
1611.32327,0.03411
1610.29301,0.03302
1609.26275,0.03186
1608.23249,0.03077
1607.20223,0.02985
1606.17198,0.02898
1605.14172,0.02817
1604.11146,0.02736
1603.08120,0.02652
1602.05095,0.02587
1601.02069,0.02537
1599.99043,0.02469
1598.96017,0.02385
1597.92991,0.02316
1596.89966,0.02273
1595.86940,0.02248
1594.83914,0.02231
1593.80888,0.02200
1592.77862,0.02143
1591.74837,0.02077
1590.71811,0.02035
1589.68785,0.02011
1588.65759,0.01984
1587.62734,0.01952
1586.59708,0.01911
1585.56682,0.01860
1584.53656,0.01830
1583.50630,0.01826
1582.47605,0.01798
1581.44579,0.01740
1580.41553,0.01686
1579.38527,0.01669
1578.35501,0.01699
1577.32476,0.01741
1576.29450,0.01708
1575.26424,0.01628
1574.23398,0.01606
1573.20373,0.01590
1572.17347,0.01573
1571.14321,0.01571
1570.11295,0.01581
1569.08269,0.01575
1568.05244,0.01546
1567.02218,0.01532
1565.99192,0.01533
1564.96166,0.01521
1563.93141,0.01503
1562.90115,0.01498
1561.87089,0.01489
1560.84063,0.01468
1559.81037,0.01416
1558.78012,0.01379
1557.74986,0.01422
1556.71960,0.01453
1555.68934,0.01455
1554.65908,0.01435
1553.62883,0.01398
1552.59857,0.01376
1551.56831,0.01371
1550.53805,0.01379
1549.50780,0.01394
1548.47754,0.01402
1547.44728,0.01420
1546.41702,0.01438
1545.38676,0.01430
1544.35651,0.01411
1543.32625,0.01409
1542.29599,0.01405
1541.26573,0.01390
1540.23547,0.01399
1539.20522,0.01407
1538.17496,0.01371
1537.14470,0.01351
1536.11444,0.01355
1535.08419,0.01354
1534.05393,0.01329
1533.02367,0.01318
1531.99341,0.01352
1530.96315,0.01373
1529.93290,0.01385
1528.90264,0.01398
1527.87238,0.01387
1526.84212,0.01380
1525.81186,0.01410
1524.78161,0.01425
1523.75135,0.01406
1522.72109,0.01408
1521.69083,0.01451
1520.66058,0.01469
1519.63032,0.01460
1518.60006,0.01462
1517.56980,0.01461
1516.53954,0.01456
1515.50929,0.01463
1514.47903,0.01465
1513.44877,0.01466
1512.41851,0.01481
1511.38826,0.01501
1510.35800,0.01518
1509.32774,0.01562
1508.29748,0.01629
1507.26722,0.01648
1506.23697,0.01596
1505.20671,0.01578
1504.17645,0.01594
1503.14619,0.01629
1502.11593,0.01687
1501.08568,0.01762
1500.05542,0.01831
1499.02516,0.01881
1497.99490,0.01937
1496.96465,0.02038
1495.93439,0.02191
1494.90413,0.02329
1493.87387,0.02466
1492.84361,0.02638
1491.81336,0.02815
1490.78310,0.02997
1489.75284,0.03220
1488.72258,0.03416
1487.69232,0.03560
1486.66207,0.03735
1485.63181,0.03960
1484.60155,0.04189
1483.57129,0.04409
1482.54104,0.04625
1481.51078,0.04826
1480.48052,0.05000
1479.45026,0.05155
1478.42000,0.05328
1477.38975,0.05529
1476.35949,0.05787
1475.32923,0.06103
1474.29897,0.06417
1473.26871,0.06741
1472.23846,0.07029
1471.20820,0.07210
1470.17794,0.07326
1469.14768,0.07445
1468.11743,0.07572
1467.08717,0.07688
1466.05691,0.07792
1465.02665,0.07886
1463.99639,0.07954
1462.96614,0.08010
1461.93588,0.08065
1460.90562,0.08087
1459.87536,0.08084
1458.84511,0.08083
1457.81485,0.08093
1456.78459,0.08118
1455.75433,0.08184
1454.72407,0.08214
1453.69382,0.08190
1452.66356,0.08114
1451.63330,0.07968
1450.60304,0.07784
1449.57278,0.07606
1448.54253,0.07388
1447.51227,0.07096
1446.48201,0.06853
1445.45175,0.06691
1444.42150,0.06550
1443.39124,0.06390
1442.36098,0.06211
1441.33072,0.06008
1440.30046,0.05770
1439.27021,0.05516
1438.23995,0.05295
1437.20969,0.05055
1436.17943,0.04703
1435.14917,0.04428
1434.11892,0.04260
1433.08866,0.04128
1432.05840,0.04014
1431.02814,0.03916
1429.99789,0.03806
1428.96763,0.03669
1427.93737,0.03565
1426.90711,0.03527
1425.87685,0.03507
1424.84660,0.03459
1423.81634,0.03409
1422.78608,0.03385
1421.75582,0.03385
1420.72556,0.03397
1419.69531,0.03393
1418.66505,0.03355
1417.63479,0.03318
1416.60453,0.03292
1415.57428,0.03289
1414.54402,0.03298
1413.51376,0.03297
1412.48350,0.03298
1411.45324,0.03304
1410.42299,0.03318
1409.39273,0.03330
1408.36247,0.03330
1407.33221,0.03344
1406.30196,0.03392
1405.27170,0.03450
1404.24144,0.03484
1403.21118,0.03496
1402.18092,0.03496
1401.15067,0.03495
1400.12041,0.03525
1399.09015,0.03566
1398.05989,0.03549
1397.02963,0.03517
1395.99938,0.03508
1394.96912,0.03502
1393.93886,0.03476
1392.90860,0.03462
1391.87835,0.03489
1390.84809,0.03525
1389.81783,0.03544
1388.78757,0.03561
1387.75731,0.03566
1386.72706,0.03566
1385.69680,0.03605
1384.66654,0.03668
1383.63628,0.03733
1382.60602,0.03777
1381.57577,0.03805
1380.54551,0.03854
1379.51525,0.03926
1378.48499,0.03998
1377.45474,0.04061
1376.42448,0.04123
1375.39422,0.04205
1374.36396,0.04311
1373.33370,0.04417
1372.30345,0.04521
1371.27319,0.04645
1370.24293,0.04770
1369.21267,0.04883
1368.18241,0.05016
1367.15216,0.05189
1366.12190,0.05400
1365.09164,0.05615
1364.06138,0.05813
1363.03113,0.06057
1362.00087,0.06361
1360.97061,0.06702
1359.94035,0.07083
1358.91009,0.07481
1357.87984,0.07896
1356.84958,0.08335
1355.81932,0.08796
1354.78906,0.09288
1353.75881,0.09811
1352.72855,0.10343
1351.69829,0.10851
1350.66803,0.11308
1349.63777,0.11658
1348.60752,0.11788
1347.57726,0.11615
1346.54700,0.11109
1345.51674,0.10255
1344.48648,0.09155
1343.45623,0.08021
1342.42597,0.07029
1341.39571,0.06252
1340.36545,0.05679
1339.33520,0.05301
1338.30494,0.05106
1337.27468,0.05026
1336.24442,0.05010
1335.21416,0.05033
1334.18391,0.05067
1333.15365,0.05119
1332.12339,0.05208
1331.09313,0.05314
1330.06287,0.05423
1329.03262,0.05532
1328.00236,0.05599
1326.97210,0.05596
1325.94184,0.05556
1324.91159,0.05495
1323.88133,0.05383
1322.85107,0.05235
1321.82081,0.05099
1320.79055,0.04998
1319.76030,0.04932
1318.73004,0.04900
1317.69978,0.04900
1316.66952,0.04948
1315.63927,0.05054
1314.60901,0.05195
1313.57875,0.05352
1312.54849,0.05544
1311.51823,0.05798
1310.48798,0.06082
1309.45772,0.06347
1308.42746,0.06622
1307.39720,0.06918
1306.36694,0.07179
1305.33669,0.07411
1304.30643,0.07642
1303.27617,0.07820
1302.24591,0.07941
1301.21566,0.08061
1300.18540,0.08156
1299.15514,0.08210
1298.12488,0.08249
1297.09462,0.08255
1296.06437,0.08218
1295.03411,0.08180
1294.00385,0.08169
1292.97359,0.08167
1291.94333,0.08143
1290.91308,0.08102
1289.88282,0.08074
1288.85256,0.08041
1287.82230,0.07959
1286.79205,0.07852
1285.76179,0.07762
1284.73153,0.07673
1283.70127,0.07570
1282.67101,0.07446
1281.64076,0.07313
1280.61050,0.07189
1279.58024,0.07043
1278.54998,0.06860
1277.51972,0.06685
1276.48947,0.06533
1275.45921,0.06380
1274.42895,0.06237
1273.39869,0.06129
1272.36844,0.06045
1271.33818,0.05959
1270.30792,0.05882
1269.27766,0.05853
1268.24740,0.05887
1267.21715,0.05956
1266.18689,0.06049
1265.15663,0.06184
1264.12637,0.06352
1263.09612,0.06534
1262.06586,0.06749
1261.03560,0.07022
1260.00534,0.07321
1258.97508,0.07636
1257.94483,0.07969
1256.91457,0.08286
1255.88431,0.08563
1254.85405,0.08815
1253.82379,0.09046
1252.79354,0.09242
1251.76328,0.09415
1250.73302,0.09565
1249.70276,0.09667
1248.67251,0.09704
1247.64225,0.09657
1246.61199,0.09554
1245.58173,0.09440
1244.55147,0.09283
1243.52122,0.09067
1242.49096,0.08847
1241.46070,0.08631
1240.43044,0.08391
1239.40018,0.08137
1238.36993,0.07893
1237.33967,0.07652
1236.30941,0.07377
1235.27915,0.07075
1234.24890,0.06770
1233.21864,0.06467
1232.18838,0.06177
1231.15812,0.05911
1230.12786,0.05659
1229.09761,0.05411
1228.06735,0.05191
1227.03709,0.04999
1226.00683,0.04805
1224.97657,0.04641
1223.94632,0.04528
1222.91606,0.04441
1221.88580,0.04340
1220.85554,0.04212
1219.82529,0.04100
1218.79503,0.04015
1217.76477,0.03933
1216.73451,0.03857
1215.70425,0.03782
1214.67400,0.03698
1213.64374,0.03599
1212.61348,0.03502
1211.58322,0.03431
1210.55297,0.03388
1209.52271,0.03358
1208.49245,0.03314
1207.46219,0.03269
1206.43193,0.03234
1205.40168,0.03192
1204.37142,0.03153
1203.34116,0.03130
1202.31090,0.03113
1201.28064,0.03103
1200.25039,0.03105
1199.22013,0.03103
1198.18987,0.03084
1197.15961,0.03076
1196.12936,0.03092
1195.09910,0.03105
1194.06884,0.03116
1193.03858,0.03146
1192.00832,0.03168
1190.97807,0.03158
1189.94781,0.03139
1188.91755,0.03148
1187.88729,0.03175
1186.85703,0.03210
1185.82678,0.03269
1184.79652,0.03334
1183.76626,0.03390
1182.73600,0.03469
1181.70575,0.03561
1180.67549,0.03631
1179.64523,0.03676
1178.61497,0.03708
1177.58471,0.03750
1176.55446,0.03833
1175.52420,0.03948
1174.49394,0.04076
1173.46368,0.04216
1172.43342,0.04365
1171.40317,0.04517
1170.37291,0.04677
1169.34265,0.04871
1168.31239,0.05100
1167.28214,0.05356
1166.25188,0.05636
1165.22162,0.05964
1164.19136,0.06349
1163.16110,0.06759
1162.13085,0.07204
1161.10059,0.07719
1160.07033,0.08302
1159.04007,0.08944
1158.00982,0.09644
1156.97956,0.10411
1155.94930,0.11241
1154.91904,0.12102
1153.88878,0.12984
1152.85853,0.13892
1151.82827,0.14812
1150.79801,0.15719
1149.76775,0.16613
1148.73749,0.17511
1147.70724,0.18389
1146.67698,0.19227
1145.64672,0.20043
1144.61646,0.20831
1143.58621,0.21565
1142.55595,0.22216
1141.52569,0.22818
1140.49543,0.23434
1139.46517,0.24025
1138.43492,0.24546
1137.40466,0.25027
1136.37440,0.25471
1135.34414,0.25893
1134.31388,0.26343
1133.28363,0.26770
1132.25337,0.27118
1131.22311,0.27464
1130.19285,0.27859
1129.16260,0.28269
1128.13234,0.28706
1127.10208,0.29195
1126.07182,0.29713
1125.04156,0.30239
1124.01131,0.30800
1122.98105,0.31396
1121.95079,0.31976
1120.92053,0.32578
1119.89027,0.33251
1118.86002,0.33937
1117.82976,0.34597
1116.79950,0.35246
1115.76924,0.35887
1114.73899,0.36528
1113.70873,0.37184
1112.67847,0.37865
1111.64821,0.38574
1110.61795,0.39287
1109.58770,0.39999
1108.55744,0.40735
1107.52718,0.41518
1106.49692,0.42300
1105.46667,0.43054
1104.43641,0.43840
1103.40615,0.44675
1102.37589,0.45505
1101.34563,0.46294
1100.31538,0.47031
1099.28512,0.47700
1098.25486,0.48317
1097.22460,0.48920
1096.19434,0.49527
1095.16409,0.50074
1094.13383,0.50503
1093.10357,0.50867
1092.07331,0.51127
1091.04306,0.51246
1090.01280,0.51356
1088.98254,0.51495
1087.95228,0.51519
1086.92202,0.51397
1085.89177,0.51212
1084.86151,0.50989
1083.83125,0.50719
1082.80099,0.50385
1081.77073,0.49979
1080.74048,0.49555
1079.71022,0.49164
1078.67996,0.48765
1077.64970,0.48308
1076.61945,0.47793
1075.58919,0.47246
1074.55893,0.46725
1073.52867,0.46268
1072.49841,0.45866
1071.46816,0.45456
1070.43790,0.44960
1069.40764,0.44421
1068.37738,0.43901
1067.34712,0.43350
1066.31687,0.42731
1065.28661,0.42050
1064.25635,0.41272
1063.22609,0.40375
1062.19584,0.39386
1061.16558,0.38347
1060.13532,0.37285
1059.10506,0.36184
1058.07480,0.35021
1057.04455,0.33798
1056.01429,0.32554
1054.98403,0.31352
1053.95377,0.30239
1052.92352,0.29224
1051.89326,0.28280
1050.86300,0.27376
1049.83274,0.26525
1048.80248,0.25807
1047.77223,0.25242
1046.74197,0.24787
1045.71171,0.24440
1044.68145,0.24195
1043.65119,0.24016
1042.62094,0.23881
1041.59068,0.23778
1040.56042,0.23716
1039.53016,0.23674
1038.49991,0.23617
1037.46965,0.23560
1036.43939,0.23495
1035.40913,0.23383
1034.37887,0.23212
1033.34862,0.22959
1032.31836,0.22627
1031.28810,0.22255
1030.25784,0.21845
1029.22758,0.21368
1028.19733,0.20837
1027.16707,0.20271
1026.13681,0.19637
1025.10655,0.18956
1024.07630,0.18293
1023.04604,0.17639
1022.01578,0.16974
1020.98552,0.16293
1019.95526,0.15599
1018.92501,0.14954
1017.89475,0.14381
1016.86449,0.13835
1015.83423,0.13313
1014.80397,0.12835
1013.77372,0.12405
1012.74346,0.12018
1011.71320,0.11637
1010.68294,0.11278
1009.65269,0.10993
1008.62243,0.10790
1007.59217,0.10628
1006.56191,0.10449
1005.53165,0.10294
1004.50140,0.10218
1003.47114,0.10168
1002.44088,0.10110
1001.41062,0.10059
1000.38037,0.10030
999.35011,0.10014
998.31985,0.10006
997.28959,0.10018
996.25933,0.10034
995.22908,0.10019
994.19882,0.09960
993.16856,0.09866
992.13830,0.09760
991.10804,0.09647
990.07779,0.09528
989.04753,0.09419
988.01727,0.09294
986.98701,0.09121
985.95676,0.08925
984.92650,0.08741
983.89624,0.08580
982.86598,0.08443
981.83572,0.08319
980.80547,0.08204
979.77521,0.08097
978.74495,0.07971
977.71469,0.07827
976.68443,0.07720
975.65418,0.07660
974.62392,0.07606
973.59366,0.07582
972.56340,0.07634
971.53315,0.07735
970.50289,0.07862
969.47263,0.08027
968.44237,0.08244
967.41211,0.08517
966.38186,0.08840
965.35160,0.09225
964.32134,0.09684
963.29108,0.10212
962.26082,0.10802
961.23057,0.11445
960.20031,0.12157
959.17005,0.12948
958.13979,0.13775
957.10954,0.14619
956.07928,0.15496
955.04902,0.16377
954.01876,0.17196
952.98850,0.17940
951.95825,0.18632
950.92799,0.19260
949.89773,0.19821
948.86747,0.20313
947.83722,0.20684
946.80696,0.20872
945.77670,0.20898
944.74644,0.20822
943.71618,0.20659
942.68593,0.20419
941.65567,0.20125
940.62541,0.19786
939.59515,0.19391
938.56489,0.18964
937.53464,0.18568
936.50438,0.18195
935.47412,0.17811
934.44386,0.17441
933.41361,0.17075
932.38335,0.16703
931.35309,0.16344
930.32283,0.15990
929.29257,0.15619
928.26232,0.15231
927.23206,0.14853
926.20180,0.14510
925.17154,0.14207
924.14128,0.13940
923.11103,0.13705
922.08077,0.13464
921.05051,0.13224
920.02025,0.13027
918.99000,0.12848
917.95974,0.12640
916.92948,0.12408
915.89922,0.12177
914.86896,0.11952
913.83871,0.11754
912.80845,0.11577
911.77819,0.11368
910.74793,0.11119
909.71768,0.10888
908.68742,0.10672
907.65716,0.10434
906.62690,0.10229
905.59664,0.10071
904.56639,0.09903
903.53613,0.09719
902.50587,0.09575
901.47561,0.09488
900.44535,0.09410
899.41510,0.09356
898.38484,0.09368
897.35458,0.09431
896.32432,0.09539
895.29407,0.09698
894.26381,0.09887
893.23355,0.10091
892.20329,0.10314
891.17303,0.10553
890.14278,0.10797
889.11252,0.11042
888.08226,0.11285
887.05200,0.11470
886.02174,0.11595
884.99149,0.11674
883.96123,0.11644
882.93097,0.11538
881.90071,0.11440
880.87046,0.11325
879.84020,0.11163
878.80994,0.10979
877.77968,0.10791
876.74942,0.10655
875.71917,0.10607
874.68891,0.10580
873.65865,0.10577
872.62839,0.10646
871.59813,0.10737
870.56788,0.10825
869.53762,0.10944
868.50736,0.11098
867.47710,0.11234
866.44685,0.11360
865.41659,0.11510
864.38633,0.11616
863.35607,0.11689
862.32581,0.11797
861.29556,0.11931
860.26530,0.12100
859.23504,0.12276
858.20478,0.12399
857.17453,0.12509
856.14427,0.12693
855.11401,0.12916
854.08375,0.13110
853.05349,0.13305
852.02324,0.13526
850.99298,0.13745
849.96272,0.13935
848.93246,0.14088
847.90220,0.14208
846.87195,0.14325
845.84169,0.14462
844.81143,0.14596
843.78117,0.14712
842.75092,0.14796
841.72066,0.14859
840.69040,0.14919
839.66014,0.14911
838.62988,0.14854
837.59963,0.14806
836.56937,0.14734
835.53911,0.14638
834.50885,0.14524
833.47859,0.14372
832.44834,0.14226
831.41808,0.14097
830.38782,0.13914
829.35756,0.13670
828.32731,0.13436
827.29705,0.13227
826.26679,0.13051
825.23653,0.12921
824.20627,0.12777
823.17602,0.12608
822.14576,0.12475
821.11550,0.12356
820.08524,0.12232
819.05498,0.12143
818.02473,0.12066
816.99447,0.11978
815.96421,0.11909
814.93395,0.11866
813.90370,0.11807
812.87344,0.11755
811.84318,0.11748
810.81292,0.11720
809.78266,0.11655
808.75241,0.11630
807.72215,0.11612
806.69189,0.11520
805.66163,0.11420
804.63138,0.11407
803.60112,0.11446
802.57086,0.11451
801.54060,0.11392
800.51034,0.11286
799.48009,0.11208
798.44983,0.11181
797.41957,0.11118
796.38931,0.11027
795.35905,0.10968
794.32880,0.10927
793.29854,0.10936
792.26828,0.10942
791.23802,0.10873
790.20777,0.10847
789.17751,0.10884
788.14725,0.10867
787.11699,0.10813
786.08673,0.10790
785.05648,0.10784
784.02622,0.10775
782.99596,0.10793
781.96570,0.10826
780.93544,0.10821
779.90519,0.10808
778.87493,0.10827
777.84467,0.10862
776.81441,0.10925
775.78416,0.11034
774.75390,0.11095
773.72364,0.11072
772.69338,0.11094
771.66312,0.11189
770.63287,0.11284
769.60261,0.11346
768.57235,0.11384
767.54209,0.11473
766.51183,0.11637
765.48158,0.11824
764.45132,0.12019
763.42106,0.12220
762.39080,0.12366
761.36055,0.12379
760.33029,0.12343
759.30003,0.12400
758.26977,0.12516
757.23951,0.12564
756.20926,0.12529
755.17900,0.12498
754.14874,0.12467
753.11848,0.12393
752.08823,0.12343
751.05797,0.12354
750.02771,0.12351
748.99745,0.12329
747.96719,0.12354
746.93694,0.12426
745.90668,0.12520
744.87642,0.12601
743.84616,0.12656
742.81590,0.12694
741.78565,0.12732
740.75539,0.12844
739.72513,0.13025
738.69487,0.13115
737.66462,0.13075
736.63436,0.13084
735.60410,0.13210
734.57384,0.13344
733.54358,0.13400
732.51333,0.13356
731.48307,0.13325
730.45281,0.13425
729.42255,0.13515
728.39229,0.13540
727.36204,0.13660
726.33178,0.13833
725.30152,0.13938
724.27126,0.13996
723.24101,0.14001
722.21075,0.14000
721.18049,0.14148
720.15023,0.14378
719.11997,0.14509
718.08972,0.14573
717.05946,0.14623
716.02920,0.14677
714.99894,0.14772
713.96868,0.14868
712.93843,0.14924
711.90817,0.14955
710.87791,0.15015
709.84765,0.15103
708.81740,0.15210
707.78714,0.15352
706.75688,0.15446
705.72662,0.15475
704.69636,0.15540
703.66611,0.15634
702.63585,0.15692
701.60559,0.15745
700.57533,0.15800
699.54508,0.15827
698.51482,0.15874
697.48456,0.15965
696.45430,0.16050
695.42404,0.16127
694.39379,0.16211
693.36353,0.16313
692.33327,0.16424
691.30301,0.16499
690.27275,0.16581
689.24250,0.16703
688.21224,0.16772
687.18198,0.16781
686.15172,0.16853
685.12147,0.16993
684.09121,0.17094
683.06095,0.17151
682.03069,0.17198
681.00043,0.17250
679.97018,0.17294
678.93992,0.17323
677.90966,0.17387
676.87940,0.17476
675.84914,0.17559
674.81889,0.17647
673.78863,0.17718
672.75837,0.17778
671.72811,0.17890
670.69786,0.18070
669.66760,0.18283
668.63734,0.18505
667.60708,0.18554
666.57682,0.18437
665.54657,0.18370
664.51631,0.18340
663.48605,0.18364
662.45579,0.18469
661.42553,0.18592
660.39528,0.18655
659.36502,0.18671
658.33476,0.18684
657.30450,0.18773
656.27425,0.18965
655.24399,0.19090
654.21373,0.19061
653.18347,0.19034
652.15321,0.19086
651.12296,0.19165
650.09270,0.19238
649.06244,0.19324
648.03218,0.19429
647.00193,0.19526
645.97167,0.19615
644.94141,0.19615
643.91115,0.19512
642.88089,0.19524
641.85064,0.19686
640.82038,0.19856
639.79012,0.20024
638.75986,0.20168
637.72960,0.20211
636.69935,0.20205
635.66909,0.20247
634.63883,0.20290
633.60857,0.20261
632.57832,0.20243
631.54806,0.20354
630.51780,0.20519
629.48754,0.20645
628.45728,0.20749
627.42703,0.20804
626.39677,0.20844
625.36651,0.20967
624.33625,0.21050
623.30599,0.20950
622.27574,0.20861
621.24548,0.20934
620.21522,0.21014
619.18496,0.21006
618.15471,0.21014
617.12445,0.21109
616.09419,0.21194
615.06393,0.21208
614.03367,0.21256
613.00342,0.21317
611.97316,0.21327
610.94290,0.21443
609.91264,0.21641
608.88238,0.21739
607.85213,0.21831
606.82187,0.21982
605.79161,0.22083
604.76135,0.22118
603.73110,0.22120
602.70084,0.22141
601.67058,0.22237
600.64032,0.22393
599.61006,0.22540
598.57981,0.22712
597.54955,0.22846
596.51929,0.22760
595.48903,0.22620
594.45878,0.22680
593.42852,0.22901
592.39826,0.23130
591.36800,0.23266
590.33774,0.23318
589.30749,0.23445
588.27723,0.23689
587.24697,0.23829
586.21671,0.23757
585.18645,0.23571
584.15620,0.23464
583.12594,0.23532
582.09568,0.23690
581.06542,0.23903
580.03517,0.24069
579.00491,0.24136
577.97465,0.24282
576.94439,0.24569
575.91413,0.24841
574.88388,0.24943
573.85362,0.24899
572.82336,0.24804
571.79310,0.24732
570.76284,0.24744
569.73259,0.24805
568.70233,0.24851
567.67207,0.24919
566.64181,0.25043
565.61156,0.25189
564.58130,0.25387
563.55104,0.25596
562.52078,0.25609
561.49052,0.25530
560.46027,0.25479
559.43001,0.25370
558.39975,0.25456
557.36949,0.25765
556.33924,0.25921
555.30898,0.25865
554.27872,0.25821
553.24846,0.25961
552.21820,0.26122
551.18795,0.26129
550.15769,0.26234
549.12743,0.26494
548.09717,0.26407
547.06691,0.26068
546.03666,0.26006
545.00640,0.26078
543.97614,0.26159
542.94588,0.26408
541.91563,0.26595
540.88537,0.26469
539.85511,0.26281
538.82485,0.26359
537.79459,0.26615
536.76434,0.26811
535.73408,0.27023
534.70382,0.27232
533.67356,0.27209
532.64330,0.27147
531.61305,0.27230
530.58279,0.27321
529.55253,0.27494
528.52227,0.27710
527.49202,0.27690
526.46176,0.27622
525.43150,0.27804
524.40124,0.28102
523.37098,0.28276
522.34073,0.28291
521.31047,0.28347
520.28021,0.28289
519.24995,0.28073
518.21969,0.28268
517.18944,0.28763
516.15918,0.28872
515.12892,0.28733
514.09866,0.28751
513.06841,0.28782
512.03815,0.28774
511.00789,0.28823
509.97763,0.28878
508.94737,0.28951
507.91712,0.28895
506.88686,0.28634
505.85660,0.28520
504.82634,0.28674
503.79609,0.28821
502.76583,0.28877
501.73557,0.28935
500.70531,0.28996
499.67505,0.29029
498.64480,0.28836
497.61454,0.28364
496.58428,0.28077
495.55402,0.28214
494.52376,0.28439
493.49351,0.28516
492.46325,0.28347
491.43299,0.28010
490.40273,0.27815
489.37248,0.27730
488.34222,0.27605
487.31196,0.27461
486.28170,0.27378
485.25144,0.27368
484.22119,0.27366
483.19093,0.27401
482.16067,0.27375
481.13041,0.27201
480.10015,0.26973
479.06990,0.26807
478.03964,0.26801
477.00938,0.26841
475.97912,0.26909
474.94887,0.27059
473.91861,0.27137
472.88835,0.27301
471.85809,0.27580
470.82783,0.27496
469.79758,0.27207
468.76732,0.27334
467.73706,0.27907
466.70680,0.28360
465.67654,0.28618
464.64629,0.28820
463.61603,0.28789
462.58577,0.28476
461.55551,0.28063
460.52526,0.27806
459.49500,0.27581
458.46474,0.27150
457.43448,0.26815
456.40422,0.26821
455.37397,0.26935
454.34371,0.27117
453.31345,0.27244
452.28319,0.27055
451.25294,0.26726
450.22268,0.26551
449.19242,0.26419
448.16216,0.26228
447.13190,0.26130
446.10165,0.26140
445.07139,0.26052
444.04113,0.25969
443.01087,0.25970
441.98061,0.25873
440.95036,0.25761
439.92010,0.25717
438.88984,0.25761
437.85958,0.25750
436.82933,0.25365
435.79907,0.25023
434.76881,0.25255
433.73855,0.25738
432.70829,0.26109
431.67804,0.26230
430.64778,0.26241
429.61752,0.26405
428.58726,0.26296
427.55700,0.25685
426.52675,0.25082
425.49649,0.24715
424.46623,0.24511
423.43597,0.24488
422.40572,0.24937
421.37546,0.25695
420.34520,0.26086
419.31494,0.25328
418.28468,0.24071
417.25443,0.23900
416.22417,0.24109
415.19391,0.24297
414.16365,0.24505
413.13339,0.24363
412.10314,0.24043
411.07288,0.23969
410.04262,0.23555
409.01236,0.23141
407.98211,0.23673
406.95185,0.24252
405.92159,0.23839
404.89133,0.22983
403.86107,0.22748
402.83082,0.23272
401.80056,0.23317
400.77030,0.22453
399.74004,0.22048
