4998.81105,0.00349
4997.78079,0.00259
4996.75054,0.00173
4995.72028,0.00175
4994.69002,0.00221
4993.65976,0.00261
4992.62951,0.00255
4991.59925,0.00192
4990.56899,0.00107
4989.53873,0.00106
4988.50847,0.00181
4987.47822,0.00211
4986.44796,0.00170
4985.41770,0.00129
4984.38744,0.00142
4983.35718,0.00191
4982.32693,0.00216
4981.29667,0.00217
4980.26641,0.00221
4979.23615,0.00175
4978.20590,0.00141
4977.17564,0.00214
4976.14538,0.00298
4975.11512,0.00253
4974.08486,0.00142
4973.05461,0.00135
4972.02435,0.00201
4970.99409,0.00220
4969.96383,0.00161
4968.93357,0.00072
4967.90332,0.00060
4966.87306,0.00114
4965.84280,0.00171
4964.81254,0.00220
4963.78229,0.00241
4962.75203,0.00209
4961.72177,0.00162
4960.69151,0.00164
4959.66125,0.00171
4958.63100,0.00169
4957.60074,0.00165
4956.57048,0.00175
4955.54022,0.00255
4954.50997,0.00308
4953.47971,0.00279
4952.44945,0.00248
4951.41919,0.00216
4950.38893,0.00158
4949.35868,0.00105
4948.32842,0.00073
4947.29816,0.00020
4946.26790,0.00020
4945.23764,0.00166
4944.20739,0.00288
4943.17713,0.00281
4942.14687,0.00242
4941.11661,0.00234
4940.08636,0.00223
4939.05610,0.00159
4938.02584,0.00033
4936.99558,-0.00058
4935.96532,-0.00044
4934.93507,-0.00037
4933.90481,-0.00067
4932.87455,0.00000
4931.84429,0.00159
4930.81403,0.00207
4929.78378,0.00132
4928.75352,0.00109
4927.72326,0.00141
4926.69300,0.00170
4925.66275,0.00176
4924.63249,0.00169
4923.60223,0.00187
4922.57197,0.00199
4921.54171,0.00195
4920.51146,0.00247
4919.48120,0.00348
4918.45094,0.00359
4917.42068,0.00229
4916.39042,0.00161
4915.36017,0.00202
4914.32991,0.00213
4913.29965,0.00203
4912.26939,0.00187
4911.23914,0.00167
4910.20888,0.00115
4909.17862,0.00051
4908.14836,0.00060
4907.11810,0.00089
4906.08785,0.00077
4905.05759,0.00072
4904.02733,0.00062
4902.99707,0.00045
4901.96682,0.00085
4900.93656,0.00097
4899.90630,0.00087
4898.87604,0.00148
4897.84578,0.00213
4896.81553,0.00175
4895.78527,0.00073
4894.75501,0.00054
4893.72475,0.00131
4892.69449,0.00222
4891.66424,0.00322
4890.63398,0.00418
4889.60372,0.00386
4888.57346,0.00243
4887.54321,0.00180
4886.51295,0.00225
4885.48269,0.00228
4884.45243,0.00182
4883.42217,0.00151
4882.39192,0.00128
4881.36166,0.00114
4880.33140,0.00078
4879.30114,0.00127
4878.27088,0.00295
4877.24063,0.00390
4876.21037,0.00376
4875.18011,0.00320
4874.14985,0.00243
4873.11960,0.00175
4872.08934,0.00145
4871.05908,0.00147
4870.02882,0.00167
4868.99856,0.00188
4867.96831,0.00199
4866.93805,0.00192
4865.90779,0.00173
4864.87753,0.00144
4863.84727,0.00158
4862.81702,0.00270
4861.78676,0.00381
4860.75650,0.00344
4859.72624,0.00190
4858.69599,0.00082
4857.66573,0.00011
4856.63547,-0.00047
4855.60521,-0.00004
4854.57495,0.00086
4853.54470,0.00148
4852.51444,0.00189
4851.48418,0.00225
4850.45392,0.00279
4849.42367,0.00334
4848.39341,0.00317
4847.36315,0.00232
4846.33289,0.00110
4845.30263,0.00010
4844.27238,0.00057
4843.24212,0.00177
4842.21186,0.00187
4841.18160,0.00128
4840.15134,0.00104
4839.12109,0.00096
4838.09083,0.00082
4837.06057,0.00067
4836.03031,0.00080
4835.00006,0.00127
4833.96980,0.00169
4832.93954,0.00187
4831.90928,0.00154
4830.87902,0.00113
4829.84877,0.00127
4828.81851,0.00137
4827.78825,0.00111
4826.75799,0.00135
4825.72773,0.00213
4824.69748,0.00246
4823.66722,0.00209
4822.63696,0.00188
4821.60670,0.00219
4820.57645,0.00224
4819.54619,0.00189
4818.51593,0.00192
4817.48567,0.00220
4816.45541,0.00214
4815.42516,0.00197
4814.39490,0.00185
4813.36464,0.00160
4812.33438,0.00148
4811.30412,0.00142
4810.27387,0.00128
4809.24361,0.00167
4808.21335,0.00253
4807.18309,0.00272
4806.15284,0.00192
4805.12258,0.00106
4804.09232,0.00081
4803.06206,0.00093
4802.03180,0.00125
4801.00155,0.00201
4799.97129,0.00273
4798.94103,0.00232
4797.91077,0.00159
4796.88052,0.00188
4795.85026,0.00231
4794.82000,0.00212
4793.78974,0.00184
4792.75948,0.00181
4791.72923,0.00191
4790.69897,0.00203
4789.66871,0.00229
4788.63845,0.00236
4787.60819,0.00220
4786.57794,0.00212
4785.54768,0.00174
4784.51742,0.00165
4783.48716,0.00228
4782.45691,0.00264
4781.42665,0.00251
4780.39639,0.00230
4779.36613,0.00218
4778.33587,0.00210
4777.30562,0.00196
4776.27536,0.00156
4775.24510,0.00122
4774.21484,0.00144
4773.18458,0.00166
4772.15433,0.00152
4771.12407,0.00114
4770.09381,0.00076
4769.06355,0.00060
4768.03330,0.00052
4767.00304,0.00019
4765.97278,-0.00009
4764.94252,0.00011
4763.91226,0.00031
4762.88201,0.00035
4761.85175,0.00067
4760.82149,0.00156
4759.79123,0.00288
4758.76098,0.00357
4757.73072,0.00312
4756.70046,0.00256
4755.67020,0.00233
4754.63994,0.00197
4753.60969,0.00212
4752.57943,0.00296
4751.54917,0.00303
4750.51891,0.00205
4749.48865,0.00128
4748.45840,0.00147
4747.42814,0.00224
4746.39788,0.00236
4745.36762,0.00198
4744.33737,0.00233
4743.30711,0.00319
4742.27685,0.00365
4741.24659,0.00327
4740.21633,0.00223
4739.18608,0.00148
4738.15582,0.00168
4737.12556,0.00211
4736.09530,0.00198
4735.06504,0.00176
4734.03479,0.00185
4733.00453,0.00221
4731.97427,0.00234
4730.94401,0.00178
4729.91376,0.00105
4728.88350,0.00069
4727.85324,0.00096
4726.82298,0.00192
4725.79272,0.00279
4724.76247,0.00253
4723.73221,0.00185
4722.70195,0.00196
4721.67169,0.00225
4720.64143,0.00219
4719.61118,0.00222
4718.58092,0.00252
4717.55066,0.00267
4716.52040,0.00201
4715.49015,0.00122
4714.45989,0.00180
4713.42963,0.00278
4712.39937,0.00252
4711.36911,0.00182
4710.33886,0.00168
4709.30860,0.00158
4708.27834,0.00164
4707.24808,0.00236
4706.21783,0.00272
4705.18757,0.00226
4704.15731,0.00175
4703.12705,0.00139
4702.09679,0.00100
4701.06654,0.00084
4700.03628,0.00124
4699.00602,0.00190
4697.97576,0.00267
4696.94550,0.00346
4695.91525,0.00364
4694.88499,0.00277
4693.85473,0.00163
4692.82447,0.00153
4691.79422,0.00191
4690.76396,0.00145
4689.73370,0.00069
4688.70344,0.00088
4687.67318,0.00206
4686.64293,0.00310
4685.61267,0.00306
4684.58241,0.00219
4683.55215,0.00208
4682.52189,0.00291
4681.49164,0.00285
4680.46138,0.00201
4679.43112,0.00156
4678.40086,0.00169
4677.37061,0.00232
4676.34035,0.00255
4675.31009,0.00213
4674.27983,0.00202
4673.24957,0.00260
4672.21932,0.00355
4671.18906,0.00384
4670.15880,0.00306
4669.12854,0.00187
4668.09828,0.00059
4667.06803,-0.00025
4666.03777,0.00027
4665.00751,0.00186
4663.97725,0.00302
4662.94700,0.00302
4661.91674,0.00210
4660.88648,0.00123
4659.85622,0.00137
4658.82596,0.00211
4657.79571,0.00244
4656.76545,0.00196
4655.73519,0.00127
4654.70493,0.00069
4653.67468,0.00003
4652.64442,0.00004
4651.61416,0.00100
4650.58390,0.00198
4649.55364,0.00229
4648.52339,0.00225
4647.49313,0.00218
4646.46287,0.00214
4645.43261,0.00215
4644.40235,0.00219
4643.37210,0.00258
4642.34184,0.00271
4641.31158,0.00199
4640.28132,0.00169
4639.25107,0.00240
4638.22081,0.00263
4637.19055,0.00176
4636.16029,0.00143
4635.13003,0.00200
4634.09978,0.00221
4633.06952,0.00205
4632.03926,0.00182
4631.00900,0.00157
4629.97874,0.00168
4628.94849,0.00177
4627.91823,0.00187
4626.88797,0.00222
4625.85771,0.00230
4624.82746,0.00229
4623.79720,0.00228
4622.76694,0.00208
4621.73668,0.00205
4620.70642,0.00206
4619.67617,0.00196
4618.64591,0.00170
4617.61565,0.00136
4616.58539,0.00150
4615.55513,0.00190
4614.52488,0.00182
4613.49462,0.00178
4612.46436,0.00235
4611.43410,0.00265
4610.40385,0.00200
4609.37359,0.00123
4608.34333,0.00102
4607.31307,0.00109
4606.28281,0.00143
4605.25256,0.00175
4604.22230,0.00186
4603.19204,0.00228
4602.16178,0.00275
4601.13153,0.00262
4600.10127,0.00190
4599.07101,0.00145
4598.04075,0.00179
4597.01049,0.00153
4595.98024,0.00030
4594.94998,-0.00007
4593.91972,0.00061
4592.88946,0.00097
4591.85920,0.00119
4590.82895,0.00141
4589.79869,0.00112
4588.76843,0.00103
4587.73817,0.00128
4586.70792,0.00132
4585.67766,0.00149
4584.64740,0.00170
4583.61714,0.00116
4582.58688,0.00054
4581.55663,0.00131
4580.52637,0.00270
4579.49611,0.00324
4578.46585,0.00305
4577.43559,0.00228
4576.40534,0.00162
4575.37508,0.00181
4574.34482,0.00225
4573.31456,0.00254
4572.28431,0.00291
4571.25405,0.00282
4570.22379,0.00169
4569.19353,0.00064
4568.16327,0.00096
4567.13302,0.00162
4566.10276,0.00173
4565.07250,0.00195
4564.04224,0.00220
4563.01198,0.00178
4561.98173,0.00103
4560.95147,0.00090
4559.92121,0.00108
4558.89095,0.00115
4557.86070,0.00155
4556.83044,0.00196
4555.80018,0.00176
4554.76992,0.00149
4553.73966,0.00161
4552.70941,0.00193
4551.67915,0.00198
4550.64889,0.00146
4549.61863,0.00121
4548.58838,0.00155
4547.55812,0.00146
4546.52786,0.00126
4545.49760,0.00160
4544.46734,0.00201
4543.43709,0.00229
4542.40683,0.00224
4541.37657,0.00147
4540.34631,0.00083
4539.31605,0.00115
4538.28580,0.00159
4537.25554,0.00157
4536.22528,0.00119
4535.19502,0.00040
4534.16477,-0.00006
4533.13451,0.00009
4532.10425,0.00027
4531.07399,0.00063
4530.04373,0.00130
4529.01348,0.00219
4527.98322,0.00278
4526.95296,0.00240
4525.92270,0.00176
4524.89244,0.00142
4523.86219,0.00141
4522.83193,0.00220
4521.80167,0.00307
4520.77141,0.00290
4519.74116,0.00215
4518.71090,0.00168
4517.68064,0.00141
4516.65038,0.00100
4515.62012,0.00096
4514.58987,0.00164
4513.55961,0.00232
4512.52935,0.00286
4511.49909,0.00318
4510.46883,0.00287
4509.43858,0.00249
4508.40832,0.00251
4507.37806,0.00277
4506.34780,0.00304
4505.31755,0.00310
4504.28729,0.00280
4503.25703,0.00205
4502.22677,0.00123
4501.19651,0.00112
4500.16626,0.00169
4499.13600,0.00198
4498.10574,0.00165
4497.07548,0.00158
4496.04523,0.00202
4495.01497,0.00214
4493.98471,0.00218
4492.95445,0.00281
4491.92419,0.00339
4490.89394,0.00323
4489.86368,0.00299
4488.83342,0.00308
4487.80316,0.00289
4486.77290,0.00220
4485.74265,0.00171
4484.71239,0.00180
4483.68213,0.00211
4482.65187,0.00202
4481.62162,0.00142
4480.59136,0.00135
4479.56110,0.00188
4478.53084,0.00196
4477.50058,0.00186
4476.47033,0.00188
4475.44007,0.00187
4474.40981,0.00227
4473.37955,0.00307
4472.34929,0.00346
4471.31904,0.00331
4470.28878,0.00316
4469.25852,0.00319
4468.22826,0.00305
4467.19801,0.00276
4466.16775,0.00286
4465.13749,0.00337
4464.10723,0.00355
4463.07697,0.00309
4462.04672,0.00280
4461.01646,0.00308
4459.98620,0.00346
4458.95594,0.00377
4457.92568,0.00380
4456.89543,0.00338
4455.86517,0.00287
4454.83491,0.00233
4453.80465,0.00209
4452.77440,0.00245
4451.74414,0.00241
4450.71388,0.00219
4449.68362,0.00279
4448.65336,0.00356
4447.62311,0.00384
4446.59285,0.00353
4445.56259,0.00301
4444.53233,0.00308
4443.50208,0.00333
4442.47182,0.00304
4441.44156,0.00252
4440.41130,0.00224
4439.38104,0.00242
4438.35079,0.00265
4437.32053,0.00259
4436.29027,0.00256
4435.26001,0.00249
4434.22975,0.00228
4433.19950,0.00210
4432.16924,0.00189
4431.13898,0.00164
4430.10872,0.00160
4429.07847,0.00206
4428.04821,0.00260
4427.01795,0.00284
4425.98769,0.00340
4424.95743,0.00368
4423.92718,0.00281
4422.89692,0.00193
4421.86666,0.00192
4420.83640,0.00220
4419.80614,0.00197
4418.77589,0.00125
4417.74563,0.00111
4416.71537,0.00168
4415.68511,0.00205
4414.65486,0.00254
4413.62460,0.00329
4412.59434,0.00354
4411.56408,0.00334
4410.53382,0.00293
4409.50357,0.00216
4408.47331,0.00145
4407.44305,0.00126
4406.41279,0.00147
4405.38253,0.00166
4404.35228,0.00153
4403.32202,0.00139
4402.29176,0.00153
4401.26150,0.00159
4400.23125,0.00152
4399.20099,0.00147
4398.17073,0.00148
4397.14047,0.00190
4396.11021,0.00253
4395.07996,0.00255
4394.04970,0.00189
4393.01944,0.00118
4391.98918,0.00125
4390.95893,0.00209
4389.92867,0.00253
4388.89841,0.00266
4387.86815,0.00302
4386.83789,0.00270
4385.80764,0.00188
4384.77738,0.00206
4383.74712,0.00279
4382.71686,0.00273
4381.68660,0.00210
4380.65635,0.00154
4379.62609,0.00118
4378.59583,0.00096
4377.56557,0.00124
4376.53532,0.00198
4375.50506,0.00236
4374.47480,0.00253
4373.44454,0.00302
4372.41428,0.00353
4371.38403,0.00320
4370.35377,0.00211
4369.32351,0.00154
4368.29325,0.00191
4367.26299,0.00235
4366.23274,0.00236
4365.20248,0.00220
4364.17222,0.00221
4363.14196,0.00238
4362.11171,0.00235
4361.08145,0.00204
4360.05119,0.00219
4359.02093,0.00256
4357.99067,0.00185
4356.96042,0.00076
4355.93016,0.00077
4354.89990,0.00131
4353.86964,0.00175
4352.83939,0.00226
4351.80913,0.00238
4350.77887,0.00210
4349.74861,0.00212
4348.71835,0.00238
4347.68810,0.00229
4346.65784,0.00190
4345.62758,0.00139
4344.59732,0.00135
4343.56706,0.00216
4342.53681,0.00256
4341.50655,0.00212
4340.47629,0.00208
4339.44603,0.00265
4338.41578,0.00248
4337.38552,0.00139
4336.35526,0.00095
4335.32500,0.00139
4334.29474,0.00177
4333.26449,0.00199
4332.23423,0.00244
4331.20397,0.00303
4330.17371,0.00317
4329.14345,0.00292
4328.11320,0.00292
4327.08294,0.00294
4326.05268,0.00249
4325.02242,0.00206
4323.99217,0.00224
4322.96191,0.00265
4321.93165,0.00255
4320.90139,0.00198
4319.87113,0.00156
4318.84088,0.00165
4317.81062,0.00207
4316.78036,0.00223
4315.75010,0.00196
4314.71984,0.00176
4313.68959,0.00158
4312.65933,0.00139
4311.62907,0.00164
4310.59881,0.00236
4309.56856,0.00307
4308.53830,0.00327
4307.50804,0.00291
4306.47778,0.00261
4305.44752,0.00282
4304.41727,0.00334
4303.38701,0.00368
4302.35675,0.00339
4301.32649,0.00285
4300.29624,0.00263
4299.26598,0.00253
4298.23572,0.00243
4297.20546,0.00253
4296.17520,0.00289
4295.14495,0.00302
4294.11469,0.00274
4293.08443,0.00265
4292.05417,0.00276
4291.02391,0.00270
4289.99366,0.00270
4288.96340,0.00259
4287.93314,0.00237
4286.90288,0.00268
4285.87263,0.00296
4284.84237,0.00255
4283.81211,0.00215
4282.78185,0.00239
4281.75159,0.00282
4280.72134,0.00277
4279.69108,0.00240
4278.66082,0.00221
4277.63056,0.00227
4276.60030,0.00228
4275.57005,0.00212
4274.53979,0.00186
4273.50953,0.00161
4272.47927,0.00171
4271.44902,0.00188
4270.41876,0.00149
4269.38850,0.00112
4268.35824,0.00120
4267.32798,0.00138
4266.29773,0.00152
4265.26747,0.00158
4264.23721,0.00164
4263.20695,0.00184
4262.17669,0.00203
4261.14644,0.00184
4260.11618,0.00149
4259.08592,0.00157
4258.05566,0.00189
4257.02541,0.00180
4255.99515,0.00146
4254.96489,0.00151
4253.93463,0.00189
4252.90437,0.00238
4251.87412,0.00267
4250.84386,0.00231
4249.81360,0.00159
4248.78334,0.00128
4247.75309,0.00156
4246.72283,0.00215
4245.69257,0.00254
4244.66231,0.00231
4243.63205,0.00179
4242.60180,0.00138
4241.57154,0.00108
4240.54128,0.00109
4239.51102,0.00189
4238.48076,0.00290
4237.45051,0.00311
4236.42025,0.00277
4235.38999,0.00260
4234.35973,0.00235
4233.32948,0.00173
4232.29922,0.00138
4231.26896,0.00161
4230.23870,0.00195
4229.20844,0.00203
4228.17819,0.00218
4227.14793,0.00286
4226.11767,0.00321
4225.08741,0.00259
4224.05715,0.00196
4223.02690,0.00212
4221.99664,0.00237
4220.96638,0.00193
4219.93612,0.00149
4218.90587,0.00171
4217.87561,0.00222
4216.84535,0.00254
4215.81509,0.00271
4214.78483,0.00283
4213.75458,0.00257
4212.72432,0.00209
4211.69406,0.00177
4210.66380,0.00173
4209.63354,0.00190
4208.60329,0.00213
4207.57303,0.00229
4206.54277,0.00233
4205.51251,0.00225
4204.48226,0.00213
4203.45200,0.00189
4202.42174,0.00144
4201.39148,0.00102
4200.36122,0.00114
4199.33097,0.00171
4198.30071,0.00196
4197.27045,0.00166
4196.24019,0.00151
4195.20994,0.00165
4194.17968,0.00145
4193.14942,0.00082
4192.11916,0.00043
4191.08890,0.00088
4190.05865,0.00170
4189.02839,0.00185
4187.99813,0.00145
4186.96787,0.00154
4185.93761,0.00226
4184.90736,0.00281
4183.87710,0.00296
4182.84684,0.00306
4181.81658,0.00277
4180.78633,0.00196
4179.75607,0.00181
4178.72581,0.00263
4177.69555,0.00322
4176.66529,0.00339
4175.63504,0.00354
4174.60478,0.00366
4173.57452,0.00355
4172.54426,0.00300
4171.51400,0.00257
4170.48375,0.00269
4169.45349,0.00290
4168.42323,0.00293
4167.39297,0.00264
4166.36272,0.00235
4165.33246,0.00261
4164.30220,0.00326
4163.27194,0.00366
4162.24168,0.00336
4161.21143,0.00274
4160.18117,0.00229
4159.15091,0.00209
4158.12065,0.00181
4157.09039,0.00132
4156.06014,0.00141
4155.02988,0.00220
4153.99962,0.00284
4152.96936,0.00325
4151.93911,0.00332
4150.90885,0.00286
4149.87859,0.00247
4148.84833,0.00228
4147.81807,0.00219
4146.78782,0.00236
4145.75756,0.00254
4144.72730,0.00289
4143.69704,0.00354
4142.66679,0.00375
4141.63653,0.00330
4140.60627,0.00267
4139.57601,0.00229
4138.54575,0.00228
4137.51550,0.00237
4136.48524,0.00244
4135.45498,0.00249
4134.42472,0.00242
4133.39446,0.00251
4132.36421,0.00278
4131.33395,0.00262
4130.30369,0.00221
4129.27343,0.00222
4128.24318,0.00261
4127.21292,0.00303
4126.18266,0.00298
4125.15240,0.00257
4124.12214,0.00244
4123.09189,0.00238
4122.06163,0.00206
4121.03137,0.00198
4120.00111,0.00254
4118.97085,0.00298
4117.94060,0.00268
4116.91034,0.00225
4115.88008,0.00213
4114.84982,0.00198
4113.81957,0.00176
4112.78931,0.00178
4111.75905,0.00175
4110.72879,0.00165
4109.69853,0.00213
4108.66828,0.00271
4107.63802,0.00264
4106.60776,0.00225
4105.57750,0.00196
4104.54724,0.00193
4103.51699,0.00205
4102.48673,0.00206
4101.45647,0.00208
4100.42621,0.00222
4099.39596,0.00209
4098.36570,0.00193
4097.33544,0.00211
4096.30518,0.00236
4095.27492,0.00275
4094.24467,0.00310
4093.21441,0.00312
4092.18415,0.00310
4091.15389,0.00305
4090.12364,0.00281
4089.09338,0.00275
4088.06312,0.00249
4087.03286,0.00199
4086.00260,0.00214
4084.97235,0.00259
4083.94209,0.00241
4082.91183,0.00205
4081.88157,0.00214
4080.85131,0.00254
4079.82106,0.00280
4078.79080,0.00286
4077.76054,0.00300
4076.73028,0.00324
4075.70003,0.00341
4074.66977,0.00347
4073.63951,0.00341
4072.60925,0.00329
4071.57899,0.00337
4070.54874,0.00369
4069.51848,0.00365
4068.48822,0.00308
4067.45796,0.00250
4066.42770,0.00223
4065.39745,0.00240
4064.36719,0.00294
4063.33693,0.00312
4062.30667,0.00271
4061.27642,0.00254
4060.24616,0.00292
4059.21590,0.00298
4058.18564,0.00243
4057.15538,0.00216
4056.12513,0.00232
4055.09487,0.00224
4054.06461,0.00198
4053.03435,0.00213
4052.00409,0.00253
4050.97384,0.00258
4049.94358,0.00236
4048.91332,0.00240
4047.88306,0.00270
4046.85281,0.00276
4045.82255,0.00267
4044.79229,0.00280
4043.76203,0.00311
4042.73177,0.00334
4041.70152,0.00338
4040.67126,0.00315
4039.64100,0.00280
4038.61074,0.00264
4037.58049,0.00268
4036.55023,0.00284
4035.51997,0.00278
4034.48971,0.00261
4033.45945,0.00262
4032.42920,0.00266
4031.39894,0.00297
4030.36868,0.00330
4029.33842,0.00324
4028.30816,0.00318
4027.27791,0.00331
4026.24765,0.00334
4025.21739,0.00302
4024.18713,0.00252
4023.15688,0.00227
4022.12662,0.00258
4021.09636,0.00318
4020.06610,0.00341
4019.03584,0.00340
4018.00559,0.00347
4016.97533,0.00350
4015.94507,0.00353
4014.91481,0.00350
4013.88455,0.00321
4012.85430,0.00300
4011.82404,0.00313
4010.79378,0.00300
4009.76352,0.00231
4008.73327,0.00176
4007.70301,0.00170
4006.67275,0.00180
4005.64249,0.00196
4004.61223,0.00227
4003.58198,0.00245
4002.55172,0.00245
4001.52146,0.00282
4000.49120,0.00349
3999.46095,0.00376
3998.43069,0.00354
3997.40043,0.00327
3996.37017,0.00312
3995.33991,0.00295
3994.30966,0.00263
3993.27940,0.00241
3992.24914,0.00270
3991.21888,0.00310
3990.18862,0.00307
3989.15837,0.00294
3988.12811,0.00303
3987.09785,0.00285
3986.06759,0.00237
3985.03734,0.00219
3984.00708,0.00240
3982.97682,0.00267
3981.94656,0.00267
3980.91630,0.00252
3979.88605,0.00246
3978.85579,0.00245
3977.82553,0.00250
3976.79527,0.00248
3975.76501,0.00217
3974.73476,0.00210
3973.70450,0.00259
3972.67424,0.00303
3971.64398,0.00324
3970.61373,0.00331
3969.58347,0.00307
3968.55321,0.00266
3967.52295,0.00258
3966.49269,0.00289
3965.46244,0.00281
3964.43218,0.00207
3963.40192,0.00177
3962.37166,0.00222
3961.34140,0.00225
3960.31115,0.00214
3959.28089,0.00250
3958.25063,0.00254
3957.22037,0.00228
3956.19012,0.00236
3955.15986,0.00239
3954.12960,0.00206
3953.09934,0.00173
3952.06908,0.00172
3951.03883,0.00187
3950.00857,0.00188
3948.97831,0.00202
3947.94805,0.00240
3946.91780,0.00272
3945.88754,0.00274
3944.85728,0.00232
3943.82702,0.00191
3942.79676,0.00199
3941.76651,0.00209
3940.73625,0.00210
3939.70599,0.00262
3938.67573,0.00335
3937.64547,0.00332
3936.61522,0.00236
3935.58496,0.00155
3934.55470,0.00166
3933.52444,0.00242
3932.49419,0.00314
3931.46393,0.00318
3930.43367,0.00276
3929.40341,0.00259
3928.37315,0.00267
3927.34290,0.00254
3926.31264,0.00234
3925.28238,0.00230
3924.25212,0.00209
3923.22186,0.00198
3922.19161,0.00229
3921.16135,0.00258
3920.13109,0.00284
3919.10083,0.00327
3918.07058,0.00351
3917.04032,0.00301
3916.01006,0.00197
3914.97980,0.00147
3913.94954,0.00172
3912.91929,0.00181
3911.88903,0.00149
3910.85877,0.00137
3909.82851,0.00163
3908.79825,0.00212
3907.76800,0.00241
3906.73774,0.00242
3905.70748,0.00248
3904.67722,0.00257
3903.64697,0.00278
3902.61671,0.00285
3901.58645,0.00247
3900.55619,0.00221
3899.52593,0.00242
3898.49568,0.00296
3897.46542,0.00321
3896.43516,0.00286
3895.40490,0.00231
3894.37465,0.00213
3893.34439,0.00223
3892.31413,0.00234
3891.28387,0.00265
3890.25361,0.00300
3889.22336,0.00331
3888.19310,0.00377
3887.16284,0.00398
3886.13258,0.00359
3885.10232,0.00278
3884.07207,0.00216
3883.04181,0.00201
3882.01155,0.00237
3880.98129,0.00290
3879.95104,0.00300
3878.92078,0.00254
3877.89052,0.00214
3876.86026,0.00220
3875.83000,0.00261
3874.79975,0.00315
3873.76949,0.00361
3872.73923,0.00362
3871.70897,0.00325
3870.67871,0.00264
3869.64846,0.00218
3868.61820,0.00229
3867.58794,0.00253
3866.55768,0.00267
3865.52743,0.00283
3864.49717,0.00280
3863.46691,0.00245
3862.43665,0.00225
3861.40639,0.00243
3860.37614,0.00260
3859.34588,0.00248
3858.31562,0.00239
3857.28536,0.00255
3856.25510,0.00290
3855.22485,0.00332
3854.19459,0.00358
3853.16433,0.00345
3852.13407,0.00325
3851.10382,0.00321
3850.07356,0.00299
3849.04330,0.00263
3848.01304,0.00263
3846.98278,0.00308
3845.95253,0.00350
3844.92227,0.00333
3843.89201,0.00262
3842.86175,0.00199
3841.83150,0.00174
3840.80124,0.00213
3839.77098,0.00288
3838.74072,0.00303
3837.71046,0.00265
3836.68021,0.00252
3835.64995,0.00250
3834.61969,0.00237
3833.58943,0.00243
3832.55917,0.00267
3831.52892,0.00269
3830.49866,0.00273
3829.46840,0.00305
3828.43814,0.00326
3827.40789,0.00320
3826.37763,0.00305
3825.34737,0.00297
3824.31711,0.00292
3823.28685,0.00282
3822.25660,0.00300
3821.22634,0.00343
3820.19608,0.00336
3819.16582,0.00296
3818.13556,0.00272
3817.10531,0.00271
3816.07505,0.00316
3815.04479,0.00357
3814.01453,0.00342
3812.98428,0.00305
3811.95402,0.00277
3810.92376,0.00279
3809.89350,0.00300
3808.86324,0.00325
3807.83299,0.00298
3806.80273,0.00181
3805.77247,0.00137
3804.74221,0.00195
3803.71195,0.00254
3802.68170,0.00313
3801.65144,0.00350
3800.62118,0.00318
3799.59092,0.00286
3798.56067,0.00278
3797.53041,0.00269
3796.50015,0.00232
3795.46989,0.00219
3794.43963,0.00264
3793.40938,0.00302
3792.37912,0.00319
3791.34886,0.00327
3790.31860,0.00292
3789.28835,0.00240
3788.25809,0.00233
3787.22783,0.00256
3786.19757,0.00299
3785.16731,0.00363
3784.13706,0.00378
3783.10680,0.00327
3782.07654,0.00292
3781.04628,0.00306
3780.01602,0.00318
3778.98577,0.00300
3777.95551,0.00275
3776.92525,0.00276
3775.89499,0.00307
3774.86474,0.00299
3773.83448,0.00244
3772.80422,0.00234
3771.77396,0.00281
3770.74370,0.00339
3769.71345,0.00386
3768.68319,0.00394
3767.65293,0.00377
3766.62267,0.00365
3765.59241,0.00358
3764.56216,0.00347
3763.53190,0.00337
3762.50164,0.00340
3761.47138,0.00364
3760.44113,0.00392
3759.41087,0.00363
3758.38061,0.00311
3757.35035,0.00320
3756.32009,0.00340
3755.28984,0.00326
3754.25958,0.00347
3753.22932,0.00407
3752.19906,0.00381
3751.16880,0.00270
3750.13855,0.00261
3749.10829,0.00298
3748.07803,0.00297
3747.04777,0.00323
3746.01752,0.00364
3744.98726,0.00298
3743.95700,0.00166
3742.92674,0.00240
3741.89648,0.00354
3740.86623,0.00393
3739.83597,0.00396
3738.80571,0.00433
3737.77545,0.00482
3736.74520,0.00443
3735.71494,0.00343
3734.68468,0.00287
3733.65442,0.00278
3732.62416,0.00324
3731.59391,0.00390
3730.56365,0.00411
3729.53339,0.00408
3728.50313,0.00396
3727.47287,0.00379
3726.44262,0.00375
3725.41236,0.00394
3724.38210,0.00424
3723.35184,0.00455
3722.32159,0.00455
3721.29133,0.00424
3720.26107,0.00428
3719.23081,0.00419
3718.20055,0.00361
3717.17030,0.00332
3716.14004,0.00355
3715.10978,0.00405
3714.07952,0.00420
3713.04926,0.00368
3712.01901,0.00378
3710.98875,0.00504
3709.95849,0.00555
3708.92823,0.00523
3707.89798,0.00521
3706.86772,0.00536
3705.83746,0.00509
3704.80720,0.00497
3703.77694,0.00549
3702.74669,0.00586
3701.71643,0.00558
3700.68617,0.00540
3699.65591,0.00554
3698.62565,0.00565
3697.59540,0.00587
3696.56514,0.00616
3695.53488,0.00622
3694.50462,0.00640
3693.47437,0.00683
3692.44411,0.00710
3691.41385,0.00737
3690.38359,0.00800
3689.35333,0.00856
3688.32308,0.00846
3687.29282,0.00766
3686.26256,0.00722
3685.23230,0.00757
3684.20205,0.00823
3683.17179,0.00885
3682.14153,0.00918
3681.11127,0.00893
3680.08101,0.00853
3679.05076,0.00865
3678.02050,0.00906
3676.99024,0.00938
3675.95998,0.01010
3674.92972,0.01137
3673.89947,0.01214
3672.86921,0.01261
3671.83895,0.01297
3670.80869,0.01290
3669.77844,0.01287
3668.74818,0.01358
3667.71792,0.01396
3666.68766,0.01389
3665.65740,0.01408
3664.62715,0.01451
3663.59689,0.01502
3662.56663,0.01564
3661.53637,0.01622
3660.50611,0.01670
3659.47586,0.01716
3658.44560,0.01733
3657.41534,0.01727
3656.38508,0.01752
3655.35483,0.01857
3654.32457,0.01997
3653.29431,0.02084
3652.26405,0.02094
3651.23379,0.02065
3650.20354,0.02079
3649.17328,0.02176
3648.14302,0.02271
3647.11276,0.02317
3646.08250,0.02303
3645.05225,0.02284
3644.02199,0.02312
3642.99173,0.02379
3641.96147,0.02469
3640.93122,0.02550
3639.90096,0.02595
3638.87070,0.02619
3637.84044,0.02670
3636.81018,0.02784
3635.77993,0.02886
3634.74967,0.02945
3633.71941,0.03000
3632.68915,0.03002
3631.65890,0.03000
3630.62864,0.03105
3629.59838,0.03278
3628.56812,0.03338
3627.53786,0.03328
3626.50761,0.03365
3625.47735,0.03400
3624.44709,0.03436
3623.41683,0.03486
3622.38657,0.03531
3621.35632,0.03556
3620.32606,0.03547
3619.29580,0.03585
3618.26554,0.03753
3617.23529,0.03912
3616.20503,0.03936
3615.17477,0.03909
3614.14451,0.03959
3613.11425,0.04083
3612.08400,0.04173
3611.05374,0.04233
3610.02348,0.04305
3608.99322,0.04364
3607.96296,0.04397
3606.93271,0.04401
3605.90245,0.04420
3604.87219,0.04514
3603.84193,0.04665
3602.81168,0.04790
3601.78142,0.04837
3600.75116,0.04832
3599.72090,0.04849
3598.69064,0.04933
3597.66039,0.05041
3596.63013,0.05145
3595.59987,0.05227
3594.56961,0.05300
3593.53936,0.05361
3592.50910,0.05377
3591.47884,0.05408
3590.44858,0.05488
3589.41832,0.05607
3588.38807,0.05737
3587.35781,0.05797
3586.32755,0.05817
3585.29729,0.05884
3584.26703,0.05972
3583.23678,0.06014
3582.20652,0.06042
3581.17626,0.06118
3580.14600,0.06214
3579.11575,0.06316
3578.08549,0.06456
3577.05523,0.06592
3576.02497,0.06647
3574.99471,0.06660
3573.96446,0.06693
3572.93420,0.06738
3571.90394,0.06821
3570.87368,0.06954
3569.84342,0.07057
3568.81317,0.07107
3567.78291,0.07166
3566.75265,0.07264
3565.72239,0.07386
3564.69214,0.07476
3563.66188,0.07514
3562.63162,0.07569
3561.60136,0.07674
3560.57110,0.07766
3559.54085,0.07836
3558.51059,0.07934
3557.48033,0.08038
3556.45007,0.08128
3555.41981,0.08227
3554.38956,0.08337
3553.35930,0.08424
3552.32904,0.08489
3551.29878,0.08590
3550.26853,0.08713
3549.23827,0.08855
3548.20801,0.09022
3547.17775,0.09106
3546.14749,0.09112
3545.11724,0.09145
3544.08698,0.09224
3543.05672,0.09360
3542.02646,0.09513
3540.99621,0.09635
3539.96595,0.09734
3538.93569,0.09801
3537.90543,0.09860
3536.87517,0.09916
3535.84492,0.09946
3534.81466,0.10013
3533.78440,0.10155
3532.75414,0.10294
3531.72388,0.10384
3530.69363,0.10469
3529.66337,0.10569
3528.63311,0.10653
3527.60285,0.10742
3526.57260,0.10843
3525.54234,0.10913
3524.51208,0.10986
3523.48182,0.11111
3522.45156,0.11243
3521.42131,0.11354
3520.39105,0.11454
3519.36079,0.11527
3518.33053,0.11576
3517.30027,0.11638
3516.27002,0.11739
3515.23976,0.11867
3514.20950,0.12008
3513.17924,0.12149
3512.14899,0.12264
3511.11873,0.12358
3510.08847,0.12455
3509.05821,0.12529
3508.02795,0.12561
3506.99770,0.12632
3505.96744,0.12781
3504.93718,0.12959
3503.90692,0.13106
3502.87666,0.13191
3501.84641,0.13270
3500.81615,0.13362
3499.78589,0.13422
3498.75563,0.13476
3497.72538,0.13576
3496.69512,0.13705
3495.66486,0.13822
3494.63460,0.13945
3493.60434,0.14070
3492.57409,0.14116
3491.54383,0.14101
3490.51357,0.14154
3489.48331,0.14263
3488.45306,0.14342
3487.42280,0.14435
3486.39254,0.14585
3485.36228,0.14719
3484.33202,0.14815
3483.30177,0.14921
3482.27151,0.15006
3481.24125,0.15053
3480.21099,0.15111
3479.18073,0.15194
3478.15048,0.15298
3477.12022,0.15437
3476.08996,0.15588
3475.05970,0.15696
3474.02945,0.15735
3472.99919,0.15766
3471.96893,0.15827
3470.93867,0.15887
3469.90841,0.15988
3468.87816,0.16147
3467.84790,0.16284
3466.81764,0.16358
3465.78738,0.16400
3464.75712,0.16488
3463.72687,0.16658
3462.69661,0.16799
3461.66635,0.16826
3460.63609,0.16799
3459.60584,0.16815
3458.57558,0.16944
3457.54532,0.17113
3456.51506,0.17197
3455.48480,0.17255
3454.45455,0.17360
3453.42429,0.17477
3452.39403,0.17566
3451.36377,0.17603
3450.33351,0.17645
3449.30326,0.17730
3448.27300,0.17836
3447.24274,0.17934
3446.21248,0.17992
3445.18223,0.18074
3444.15197,0.18205
3443.12171,0.18336
3442.09145,0.18441
3441.06119,0.18512
3440.03094,0.18573
3439.00068,0.18639
3437.97042,0.18710
3436.94016,0.18807
3435.90991,0.18918
3434.87965,0.19017
3433.84939,0.19104
3432.81913,0.19175
3431.78887,0.19242
3430.75862,0.19345
3429.72836,0.19500
3428.69810,0.19634
3427.66784,0.19726
3426.63758,0.19799
3425.60733,0.19844
3424.57707,0.19917
3423.54681,0.20045
3422.51655,0.20175
3421.48630,0.20260
3420.45604,0.20284
3419.42578,0.20300
3418.39552,0.20366
3417.36526,0.20460
3416.33501,0.20535
3415.30475,0.20591
3414.27449,0.20637
3413.24423,0.20669
3412.21397,0.20694
3411.18372,0.20767
3410.15346,0.20890
3409.12320,0.21023
3408.09294,0.21122
3407.06269,0.21168
3406.03243,0.21190
3405.00217,0.21214
3403.97191,0.21278
3402.94165,0.21388
3401.91140,0.21497
3400.88114,0.21557
3399.85088,0.21594
3398.82062,0.21674
3397.79036,0.21817
3396.76011,0.21959
3395.72985,0.22015
3394.69959,0.21990
3393.66933,0.21936
3392.63908,0.21912
3391.60882,0.21957
3390.57856,0.22041
3389.54830,0.22142
3388.51804,0.22269
3387.48779,0.22365
3386.45753,0.22373
3385.42727,0.22376
3384.39701,0.22465
3383.36676,0.22551
3382.33650,0.22566
3381.30624,0.22573
3380.27598,0.22590
3379.24572,0.22621
3378.21547,0.22694
3377.18521,0.22777
3376.15495,0.22833
3375.12469,0.22869
3374.09443,0.22906
3373.06418,0.22935
3372.03392,0.22915
3371.00366,0.22878
3369.97340,0.22904
3368.94315,0.22974
3367.91289,0.23030
3366.88263,0.23035
3365.85237,0.23032
3364.82211,0.23103
3363.79186,0.23208
3362.76160,0.23255
3361.73134,0.23232
3360.70108,0.23199
3359.67082,0.23214
3358.64057,0.23277
3357.61031,0.23341
3356.58005,0.23375
3355.54979,0.23391
3354.51954,0.23386
3353.48928,0.23362
3352.45902,0.23369
3351.42876,0.23406
3350.39850,0.23448
3349.36825,0.23480
3348.33799,0.23481
3347.30773,0.23444
3346.27747,0.23406
3345.24721,0.23450
3344.21696,0.23577
3343.18670,0.23647
3342.15644,0.23610
3341.12618,0.23553
3340.09593,0.23537
3339.06567,0.23529
3338.03541,0.23534
3337.00515,0.23580
3335.97489,0.23598
3334.94464,0.23587
3333.91438,0.23632
3332.88412,0.23726
3331.85386,0.23757
3330.82361,0.23720
3329.79335,0.23706
3328.76309,0.23714
3327.73283,0.23737
3326.70257,0.23758
3325.67232,0.23735
3324.64206,0.23704
3323.61180,0.23739
3322.58154,0.23803
3321.55128,0.23821
3320.52103,0.23817
3319.49077,0.23827
3318.46051,0.23847
3317.43025,0.23862
3316.40000,0.23867
3315.36974,0.23849
3314.33948,0.23847
3313.30922,0.23871
3312.27896,0.23888
3311.24871,0.23904
3310.21845,0.23896
3309.18819,0.23865
3308.15793,0.23876
3307.12767,0.23928
3306.09742,0.23989
3305.06716,0.24054
3304.03690,0.24070
3303.00664,0.24030
3301.97639,0.24022
3300.94613,0.24037
3299.91587,0.24018
3298.88561,0.24016
3297.85535,0.24046
3296.82510,0.24042
3295.79484,0.24020
3294.76458,0.24069
3293.73432,0.24179
3292.70406,0.24220
3291.67381,0.24182
3290.64355,0.24172
3289.61329,0.24187
3288.58303,0.24207
3287.55278,0.24246
3286.52252,0.24274
3285.49226,0.24304
3284.46200,0.24359
3283.43174,0.24389
3282.40149,0.24365
3281.37123,0.24314
3280.34097,0.24309
3279.31071,0.24368
3278.28046,0.24427
3277.25020,0.24438
3276.21994,0.24423
3275.18968,0.24412
3274.15942,0.24421
3273.12917,0.24444
3272.09891,0.24442
3271.06865,0.24398
3270.03839,0.24386
3269.00813,0.24446
3267.97788,0.24531
3266.94762,0.24606
3265.91736,0.24614
3264.88710,0.24550
3263.85685,0.24501
3262.82659,0.24514
3261.79633,0.24530
3260.76607,0.24504
3259.73581,0.24509
3258.70556,0.24557
3257.67530,0.24604
3256.64504,0.24623
3255.61478,0.24588
3254.58452,0.24553
3253.55427,0.24586
3252.52401,0.24668
3251.49375,0.24717
3250.46349,0.24700
3249.43324,0.24653
3248.40298,0.24591
3247.37272,0.24537
3246.34246,0.24572
3245.31220,0.24657
3244.28195,0.24661
3243.25169,0.24600
3242.22143,0.24563
3241.19117,0.24531
3240.16092,0.24488
3239.13066,0.24483
3238.10040,0.24514
3237.07014,0.24525
3236.03988,0.24516
3235.00963,0.24511
3233.97937,0.24475
3232.94911,0.24426
3231.91885,0.24439
3230.88859,0.24494
3229.85834,0.24516
3228.82808,0.24501
3227.79782,0.24513
3226.76756,0.24539
3225.73731,0.24536
3224.70705,0.24519
3223.67679,0.24457
3222.64653,0.24360
3221.61627,0.24330
3220.58602,0.24348
3219.55576,0.24326
3218.52550,0.24253
3217.49524,0.24232
3216.46498,0.24285
3215.43473,0.24296
3214.40447,0.24265
3213.37421,0.24246
3212.34395,0.24213
3211.31370,0.24140
3210.28344,0.24079
3209.25318,0.24086
3208.22292,0.24101
3207.19266,0.24042
3206.16241,0.23955
3205.13215,0.23924
3204.10189,0.23949
3203.07163,0.23970
3202.04137,0.23939
3201.01112,0.23863
3199.98086,0.23773
3198.95060,0.23715
3197.92034,0.23691
3196.89009,0.23653
3195.85983,0.23639
3194.82957,0.23669
3193.79931,0.23663
3192.76905,0.23608
3191.73880,0.23548
3190.70854,0.23497
3189.67828,0.23470
3188.64802,0.23457
3187.61777,0.23434
3186.58751,0.23419
3185.55725,0.23384
3184.52699,0.23294
3183.49673,0.23210
3182.46648,0.23197
3181.43622,0.23226
3180.40596,0.23212
3179.37570,0.23139
3178.34544,0.23064
3177.31519,0.23027
3176.28493,0.22970
3175.25467,0.22865
3174.22441,0.22785
3173.19416,0.22763
3172.16390,0.22789
3171.13364,0.22804
3170.10338,0.22767
3169.07312,0.22702
3168.04287,0.22640
3167.01261,0.22580
3165.98235,0.22520
3164.95209,0.22487
3163.92183,0.22457
3162.89158,0.22410
3161.86132,0.22381
3160.83106,0.22334
3159.80080,0.22218
3158.77055,0.22109
3157.74029,0.22092
3156.71003,0.22101
3155.67977,0.22024
3154.64951,0.21927
3153.61926,0.21881
3152.58900,0.21815
3151.55874,0.21723
3150.52848,0.21645
3149.49822,0.21592
3148.46797,0.21574
3147.43771,0.21598
3146.40745,0.21604
3145.37719,0.21521
3144.34694,0.21413
3143.31668,0.21367
3142.28642,0.21372
3141.25616,0.21382
3140.22590,0.21357
3139.19565,0.21276
3138.16539,0.21185
3137.13513,0.21122
3136.10487,0.21061
3135.07462,0.21015
3134.04436,0.21009
3133.01410,0.21026
3131.98384,0.21018
3130.95358,0.20964
3129.92333,0.20899
3128.89307,0.20866
3127.86281,0.20827
3126.83255,0.20725
3125.80229,0.20572
3124.77204,0.20431
3123.74178,0.20380
3122.71152,0.20393
3121.68126,0.20376
3120.65101,0.20308
3119.62075,0.20225
3118.59049,0.20170
3117.56023,0.20134
3116.52997,0.20079
3115.49972,0.20016
3114.46946,0.19958
3113.43920,0.19936
3112.40894,0.19960
3111.37868,0.19980
3110.34843,0.19950
3109.31817,0.19845
3108.28791,0.19704
3107.25765,0.19613
3106.22740,0.19586
3105.19714,0.19569
3104.16688,0.19539
3103.13662,0.19498
3102.10636,0.19414
3101.07611,0.19310
3100.04585,0.19266
3099.01559,0.19259
3097.98533,0.19214
3096.95507,0.19163
3095.92482,0.19114
3094.89456,0.19042
3093.86430,0.18968
3092.83404,0.18924
3091.80379,0.18909
3090.77353,0.18884
3089.74327,0.18837
3088.71301,0.18785
3087.68275,0.18725
3086.65250,0.18639
3085.62224,0.18534
3084.59198,0.18439
3083.56172,0.18387
3082.53147,0.18361
3081.50121,0.18342
3080.47095,0.18314
3079.44069,0.18240
3078.41043,0.18167
3077.38018,0.18127
3076.34992,0.18067
3075.31966,0.18007
3074.28940,0.17973
3073.25914,0.17915
3072.22889,0.17842
3071.19863,0.17796
3070.16837,0.17760
3069.13811,0.17706
3068.10786,0.17638
3067.07760,0.17579
3066.04734,0.17516
3065.01708,0.17438
3063.98682,0.17385
3062.95657,0.17358
3061.92631,0.17334
3060.89605,0.17306
3059.86579,0.17256
3058.83553,0.17182
3057.80528,0.17109
3056.77502,0.17056
3055.74476,0.17020
3054.71450,0.16987
3053.68425,0.16952
3052.65399,0.16910
3051.62373,0.16889
3050.59347,0.16875
3049.56321,0.16808
3048.53296,0.16743
3047.50270,0.16750
3046.47244,0.16748
3045.44218,0.16696
3044.41192,0.16661
3043.38167,0.16641
3042.35141,0.16592
3041.32115,0.16546
3040.29089,0.16512
3039.26064,0.16451
3038.23038,0.16390
3037.20012,0.16376
3036.16986,0.16380
3035.13960,0.16356
3034.10935,0.16306
3033.07909,0.16270
3032.04883,0.16239
3031.01857,0.16187
3029.98832,0.16149
3028.95806,0.16127
3027.92780,0.16091
3026.89754,0.16048
3025.86728,0.15997
3024.83703,0.15935
3023.80677,0.15867
3022.77651,0.15789
3021.74625,0.15708
3020.71599,0.15610
3019.68574,0.15490
3018.65548,0.15375
3017.62522,0.15300
3016.59496,0.15248
3015.56471,0.15171
3014.53445,0.15084
3013.50419,0.15019
3012.47393,0.14970
3011.44367,0.14920
3010.41342,0.14856
3009.38316,0.14771
3008.35290,0.14683
3007.32264,0.14581
3006.29238,0.14480
3005.26213,0.14411
3004.23187,0.14346
3003.20161,0.14298
3002.17135,0.14277
3001.14110,0.14241
3000.11084,0.14177
2999.08058,0.14120
2998.05032,0.14075
2997.02006,0.14013
2995.98981,0.13928
2994.95955,0.13835
2993.92929,0.13746
2992.89903,0.13672
2991.86877,0.13612
2990.83852,0.13581
2989.80826,0.13596
2988.77800,0.13591
2987.74774,0.13524
2986.71749,0.13432
2985.68723,0.13359
2984.65697,0.13328
2983.62671,0.13306
2982.59645,0.13251
2981.56620,0.13212
2980.53594,0.13207
2979.50568,0.13177
2978.47542,0.13143
2977.44517,0.13150
2976.41491,0.13165
2975.38465,0.13173
2974.35439,0.13168
2973.32413,0.13150
2972.29388,0.13137
2971.26362,0.13131
2970.23336,0.13138
2969.20310,0.13178
2968.17284,0.13235
2967.14259,0.13284
2966.11233,0.13319
2965.08207,0.13344
2964.05181,0.13372
2963.02156,0.13412
2961.99130,0.13424
2960.96104,0.13382
2959.93078,0.13334
2958.90052,0.13303
2957.87027,0.13249
2956.84001,0.13187
2955.80975,0.13145
2954.77949,0.13082
2953.74923,0.12999
2952.71898,0.12926
2951.68872,0.12844
2950.65846,0.12768
2949.62820,0.12725
2948.59795,0.12678
2947.56769,0.12600
2946.53743,0.12534
2945.50717,0.12483
2944.47691,0.12403
2943.44666,0.12316
2942.41640,0.12261
2941.38614,0.12238
2940.35588,0.12221
2939.32562,0.12174
2938.29537,0.12122
2937.26511,0.12087
2936.23485,0.12002
2935.20459,0.11875
2934.17434,0.11810
2933.14408,0.11809
2932.11382,0.11815
2931.08356,0.11809
2930.05330,0.11757
2929.02305,0.11673
2927.99279,0.11602
2926.96253,0.11553
2925.93227,0.11531
2924.90202,0.11535
2923.87176,0.11535
2922.84150,0.11498
2921.81124,0.11426
2920.78098,0.11353
2919.75073,0.11337
2918.72047,0.11359
2917.69021,0.11337
2916.65995,0.11290
2915.62969,0.11277
2914.59944,0.11272
2913.56918,0.11212
2912.53892,0.11107
2911.50866,0.11020
2910.47841,0.10971
2909.44815,0.10950
2908.41789,0.10928
2907.38763,0.10854
2906.35737,0.10772
2905.32712,0.10749
2904.29686,0.10730
2903.26660,0.10673
2902.23634,0.10635
2901.20608,0.10599
2900.17583,0.10537
2899.14557,0.10466
2898.11531,0.10411
2897.08505,0.10400
2896.05480,0.10403
2895.02454,0.10371
2893.99428,0.10318
2892.96402,0.10269
2891.93376,0.10220
2890.90351,0.10169
2889.87325,0.10140
2888.84299,0.10138
2887.81273,0.10120
2886.78247,0.10073
2885.75222,0.10024
2884.72196,0.09994
2883.69170,0.09974
2882.66144,0.09951
2881.63119,0.09937
2880.60093,0.09920
2879.57067,0.09881
2878.54041,0.09834
2877.51015,0.09792
2876.47990,0.09772
2875.44964,0.09746
2874.41938,0.09688
2873.38912,0.09624
2872.35887,0.09557
2871.32861,0.09496
2870.29835,0.09460
2869.26809,0.09417
2868.23783,0.09361
2867.20758,0.09306
2866.17732,0.09225
2865.14706,0.09123
2864.11680,0.09047
2863.08654,0.08995
2862.05629,0.08923
2861.02603,0.08836
2859.99577,0.08768
2858.96551,0.08685
2857.93526,0.08554
2856.90500,0.08433
2855.87474,0.08374
2854.84448,0.08339
2853.81422,0.08278
2852.78397,0.08175
2851.75371,0.08055
2850.72345,0.07961
2849.69319,0.07908
2848.66293,0.07860
2847.63268,0.07778
2846.60242,0.07685
2845.57216,0.07614
2844.54190,0.07564
2843.51165,0.07516
2842.48139,0.07449
2841.45113,0.07358
2840.42087,0.07277
2839.39061,0.07221
2838.36036,0.07176
2837.33010,0.07143
2836.29984,0.07125
2835.26958,0.07089
2834.23933,0.07015
2833.20907,0.06934
2832.17881,0.06860
2831.14855,0.06780
2830.11829,0.06713
2829.08804,0.06683
2828.05778,0.06680
2827.02752,0.06675
2825.99726,0.06634
2824.96700,0.06572
2823.93675,0.06528
2822.90649,0.06487
2821.87623,0.06440
2820.84597,0.06391
2819.81572,0.06341
2818.78546,0.06301
2817.75520,0.06270
2816.72494,0.06225
2815.69468,0.06152
2814.66443,0.06075
2813.63417,0.06020
2812.60391,0.05996
2811.57365,0.05992
2810.54339,0.05966
2809.51314,0.05900
2808.48288,0.05836
2807.45262,0.05810
2806.42236,0.05791
2805.39211,0.05734
2804.36185,0.05662
2803.33159,0.05611
2802.30133,0.05566
2801.27107,0.05519
2800.24082,0.05497
2799.21056,0.05501
2798.18030,0.05492
2797.15004,0.05449
2796.11978,0.05390
2795.08953,0.05348
2794.05927,0.05343
2793.02901,0.05341
2791.99875,0.05312
2790.96850,0.05258
2789.93824,0.05201
2788.90798,0.05171
2787.87772,0.05135
2786.84746,0.05069
2785.81721,0.05023
2784.78695,0.05014
2783.75669,0.05008
2782.72643,0.04990
2781.69618,0.04936
2780.66592,0.04861
2779.63566,0.04811
2778.60540,0.04792
2777.57514,0.04784
2776.54489,0.04774
2775.51463,0.04757
2774.48437,0.04729
2773.45411,0.04677
2772.42385,0.04629
2771.39360,0.04621
2770.36334,0.04621
2769.33308,0.04592
2768.30282,0.04537
2767.27257,0.04483
2766.24231,0.04437
2765.21205,0.04397
2764.18179,0.04381
2763.15153,0.04388
2762.12128,0.04385
2761.09102,0.04347
2760.06076,0.04298
2759.03050,0.04264
2758.00024,0.04241
2756.96999,0.04203
2755.93973,0.04158
2754.90947,0.04149
2753.87921,0.04156
2752.84896,0.04135
2751.81870,0.04094
2750.78844,0.04070
2749.75818,0.04068
2748.72792,0.04052
2747.69767,0.04015
2746.66741,0.03998
2745.63715,0.04008
2744.60689,0.04000
2743.57663,0.03948
2742.54638,0.03895
2741.51612,0.03880
2740.48586,0.03866
2739.45560,0.03838
2738.42535,0.03819
2737.39509,0.03802
2736.36483,0.03773
2735.33457,0.03746
2734.30431,0.03727
2733.27406,0.03694
2732.24380,0.03663
2731.21354,0.03653
2730.18328,0.03650
2729.15303,0.03644
2728.12277,0.03646
2727.09251,0.03653
2726.06225,0.03623
2725.03199,0.03540
2724.00174,0.03475
2722.97148,0.03480
2721.94122,0.03503
2720.91096,0.03494
2719.88070,0.03473
2718.85045,0.03444
2717.82019,0.03411
2716.78993,0.03380
2715.75967,0.03340
2714.72942,0.03307
2713.69916,0.03283
2712.66890,0.03265
2711.63864,0.03266
2710.60838,0.03269
2709.57813,0.03249
2708.54787,0.03218
2707.51761,0.03185
2706.48735,0.03163
2705.45709,0.03157
2704.42684,0.03135
2703.39658,0.03092
2702.36632,0.03073
2701.33606,0.03078
2700.30581,0.03062
2699.27555,0.03038
2698.24529,0.03027
2697.21503,0.03010
2696.18477,0.02993
2695.15452,0.02994
2694.12426,0.02989
2693.09400,0.02955
2692.06374,0.02930
2691.03348,0.02924
2690.00323,0.02907
2688.97297,0.02884
2687.94271,0.02858
2686.91245,0.02834
2685.88220,0.02824
2684.85194,0.02813
2683.82168,0.02786
2682.79142,0.02745
2681.76116,0.02712
2680.73091,0.02721
2679.70065,0.02747
2678.67039,0.02736
2677.64013,0.02697
2676.60988,0.02665
2675.57962,0.02626
2674.54936,0.02571
2673.51910,0.02551
2672.48884,0.02587
2671.45859,0.02616
2670.42833,0.02587
2669.39807,0.02545
2668.36781,0.02528
2667.33755,0.02514
2666.30730,0.02497
2665.27704,0.02487
2664.24678,0.02484
2663.21652,0.02471
2662.18627,0.02434
2661.15601,0.02395
2660.12575,0.02396
2659.09549,0.02415
2658.06523,0.02409
2657.03498,0.02391
2656.00472,0.02359
2654.97446,0.02327
2653.94420,0.02321
2652.91394,0.02320
2651.88369,0.02318
2650.85343,0.02329
2649.82317,0.02327
2648.79291,0.02289
2647.76266,0.02247
2646.73240,0.02236
2645.70214,0.02245
2644.67188,0.02242
2643.64162,0.02218
2642.61137,0.02189
2641.58111,0.02181
2640.55085,0.02192
2639.52059,0.02193
2638.49033,0.02164
2637.46008,0.02120
2636.42982,0.02109
2635.39956,0.02122
2634.36930,0.02116
2633.33905,0.02090
2632.30879,0.02057
2631.27853,0.02049
2630.24827,0.02061
2629.21801,0.02041
2628.18776,0.02030
2627.15750,0.02052
2626.12724,0.02043
2625.09698,0.02033
2624.06673,0.02040
2623.03647,0.02044
2622.00621,0.02050
2620.97595,0.02030
2619.94569,0.02005
2618.91544,0.02011
2617.88518,0.02026
2616.85492,0.02012
2615.82466,0.01942
2614.79440,0.01868
2613.76415,0.01865
2612.73389,0.01887
2611.70363,0.01880
2610.67337,0.01887
2609.64312,0.01899
2608.61286,0.01865
2607.58260,0.01829
2606.55234,0.01833
2605.52208,0.01856
2604.49183,0.01906
2603.46157,0.01955
2602.43131,0.01929
2601.40105,0.01858
2600.37079,0.01796
2599.34054,0.01743
2598.31028,0.01715
2597.28002,0.01737
2596.24976,0.01794
2595.21951,0.01850
2594.18925,0.01856
2593.15899,0.01824
2592.12873,0.01815
2591.09847,0.01816
2590.06822,0.01808
2589.03796,0.01812
2588.00770,0.01810
2586.97744,0.01777
2585.94718,0.01736
2584.91693,0.01729
2583.88667,0.01730
2582.85641,0.01717
2581.82615,0.01737
2580.79590,0.01744
2579.76564,0.01716
2578.73538,0.01736
2577.70512,0.01777
2576.67486,0.01781
2575.64461,0.01783
2574.61435,0.01781
2573.58409,0.01767
2572.55383,0.01749
2571.52358,0.01707
2570.49332,0.01681
2569.46306,0.01700
2568.43280,0.01735
2567.40254,0.01758
2566.37229,0.01775
2565.34203,0.01792
2564.31177,0.01763
2563.28151,0.01697
2562.25125,0.01679
2561.22100,0.01711
2560.19074,0.01732
2559.16048,0.01749
2558.13022,0.01753
2557.09997,0.01713
2556.06971,0.01672
2555.03945,0.01655
2554.00919,0.01613
2552.97893,0.01590
2551.94868,0.01632
2550.91842,0.01643
2549.88816,0.01602
2548.85790,0.01569
2547.82764,0.01565
2546.79739,0.01613
2545.76713,0.01663
2544.73687,0.01631
2543.70661,0.01585
2542.67636,0.01605
2541.64610,0.01650
2540.61584,0.01683
2539.58558,0.01690
2538.55532,0.01667
2537.52507,0.01647
2536.49481,0.01623
2535.46455,0.01579
2534.43429,0.01558
2533.40403,0.01570
2532.37378,0.01607
2531.34352,0.01654
2530.31326,0.01659
2529.28300,0.01643
2528.25275,0.01655
2527.22249,0.01652
2526.19223,0.01642
2525.16197,0.01657
2524.13171,0.01649
2523.10146,0.01591
2522.07120,0.01576
2521.04094,0.01644
2520.01068,0.01673
2518.98043,0.01649
2517.95017,0.01641
2516.91991,0.01631
2515.88965,0.01614
2514.85939,0.01625
2513.82914,0.01687
2512.79888,0.01733
2511.76862,0.01709
2510.73836,0.01660
2509.70810,0.01629
2508.67785,0.01614
2507.64759,0.01603
2506.61733,0.01598
2505.58707,0.01585
2504.55682,0.01541
2503.52656,0.01497
2502.49630,0.01523
2501.46604,0.01585
2500.43578,0.01602
2499.40553,0.01592
2498.37527,0.01588
2497.34501,0.01579
2496.31475,0.01545
2495.28449,0.01520
2494.25424,0.01553
2493.22398,0.01579
2492.19372,0.01562
2491.16346,0.01559
2490.13321,0.01565
2489.10295,0.01564
2488.07269,0.01574
2487.04243,0.01574
2486.01217,0.01529
2484.98192,0.01480
2483.95166,0.01500
2482.92140,0.01552
2481.89114,0.01557
2480.86088,0.01580
2479.83063,0.01636
2478.80037,0.01603
2477.77011,0.01504
2476.73985,0.01476
2475.70960,0.01519
2474.67934,0.01545
2473.64908,0.01528
2472.61882,0.01528
2471.58856,0.01556
2470.55831,0.01563
2469.52805,0.01572
2468.49779,0.01618
2467.46753,0.01640
2466.43728,0.01608
2465.40702,0.01603
2464.37676,0.01644
2463.34650,0.01663
2462.31624,0.01639
2461.28599,0.01573
2460.25573,0.01519
2459.22547,0.01512
2458.19521,0.01538
2457.16495,0.01587
2456.13470,0.01643
2455.10444,0.01680
2454.07418,0.01672
2453.04392,0.01654
2452.01367,0.01659
2450.98341,0.01637
2449.95315,0.01605
2448.92289,0.01634
2447.89263,0.01665
2446.86238,0.01625
2445.83212,0.01576
2444.80186,0.01564
2443.77160,0.01575
2442.74134,0.01593
2441.71109,0.01595
2440.68083,0.01614
2439.65057,0.01672
2438.62031,0.01689
2437.59006,0.01659
2436.55980,0.01640
2435.52954,0.01640
2434.49928,0.01651
2433.46902,0.01643
2432.43877,0.01611
2431.40851,0.01619
2430.37825,0.01679
2429.34799,0.01694
2428.31774,0.01656
2427.28748,0.01675
2426.25722,0.01747
2425.22696,0.01772
2424.19670,0.01747
2423.16645,0.01736
2422.13619,0.01722
2421.10593,0.01665
2420.07567,0.01654
2419.04541,0.01742
2418.01516,0.01834
2416.98490,0.01854
2415.95464,0.01817
2414.92438,0.01768
2413.89413,0.01741
2412.86387,0.01754
2411.83361,0.01780
2410.80335,0.01776
2409.77309,0.01746
2408.74284,0.01713
2407.71258,0.01711
2406.68232,0.01771
2405.65206,0.01825
2404.62180,0.01831
2403.59155,0.01815
2402.56129,0.01801
2401.53103,0.01800
2400.50077,0.01793
2399.47052,0.01766
2398.44026,0.01752
2397.41000,0.01774
2396.37974,0.01815
2395.34948,0.01854
2394.31923,0.01879
2393.28897,0.01893
2392.25871,0.01918
2391.22845,0.01938
2390.19819,0.01900
2389.16794,0.01836
2388.13768,0.01816
2387.10742,0.01819
2386.07716,0.01815
2385.04691,0.01835
2384.01665,0.01897
2382.98639,0.01949
2381.95613,0.01945
2380.92587,0.01930
2379.89562,0.01950
2378.86536,0.01984
2377.83510,0.02003
2376.80484,0.02030
2375.77459,0.02078
2374.74433,0.02121
2373.71407,0.02176
2372.68381,0.02216
2371.65355,0.02181
2370.62330,0.02147
2369.59304,0.02213
2368.56278,0.02313
2367.53252,0.02304
2366.50226,0.02235
2365.47201,0.02253
2364.44175,0.02317
2363.41149,0.02377
2362.38123,0.02470
2361.35098,0.02531
2360.32072,0.02517
2359.29046,0.02472
2358.26020,0.02428
2357.22994,0.02419
2356.19969,0.02459
2355.16943,0.02485
2354.13917,0.02444
2353.10891,0.02391
2352.07865,0.02354
2351.04840,0.02310
2350.01814,0.02275
2348.98788,0.02268
2347.95762,0.02319
2346.92737,0.02437
2345.89711,0.02513
2344.86685,0.02470
2343.83659,0.02441
2342.80633,0.02490
2341.77608,0.02542
2340.74582,0.02558
2339.71556,0.02568
2338.68530,0.02555
2337.65504,0.02481
2336.62479,0.02440
2335.59453,0.02463
2334.56427,0.02433
2333.53401,0.02353
2332.50376,0.02343
2331.47350,0.02418
2330.44324,0.02491
2329.41298,0.02520
2328.38272,0.02502
2327.35247,0.02467
2326.32221,0.02453
2325.29195,0.02454
2324.26169,0.02451
2323.23144,0.02456
2322.20118,0.02452
2321.17092,0.02424
2320.14066,0.02408
2319.11040,0.02419
2318.08015,0.02448
2317.04989,0.02486
2316.01963,0.02527
2314.98937,0.02532
2313.95911,0.02462
2312.92886,0.02367
2311.89860,0.02323
2310.86834,0.02294
2309.83808,0.02249
2308.80783,0.02258
2307.77757,0.02285
2306.74731,0.02260
2305.71705,0.02245
2304.68679,0.02280
2303.65654,0.02320
2302.62628,0.02326
2301.59602,0.02293
2300.56576,0.02242
2299.53550,0.02221
2298.50525,0.02252
2297.47499,0.02302
2296.44473,0.02310
2295.41447,0.02300
2294.38422,0.02331
2293.35396,0.02330
2292.32370,0.02297
2291.29344,0.02326
2290.26318,0.02372
2289.23293,0.02391
2288.20267,0.02422
2287.17241,0.02447
2286.14215,0.02460
2285.11189,0.02470
2284.08164,0.02453
2283.05138,0.02438
2282.02112,0.02432
2280.99086,0.02379
2279.96061,0.02341
2278.93035,0.02346
2277.90009,0.02299
2276.86983,0.02248
2275.83957,0.02304
2274.80932,0.02398
2273.77906,0.02419
2272.74880,0.02378
2271.71854,0.02348
2270.68829,0.02354
2269.65803,0.02359
2268.62777,0.02397
2267.59751,0.02468
2266.56725,0.02466
2265.53700,0.02422
2264.50674,0.02429
2263.47648,0.02467
2262.44622,0.02494
2261.41596,0.02511
2260.38571,0.02555
2259.35545,0.02582
2258.32519,0.02580
2257.29493,0.02611
2256.26468,0.02642
2255.23442,0.02632
2254.20416,0.02581
2253.17390,0.02502
2252.14364,0.02437
2251.11339,0.02417
2250.08313,0.02455
2249.05287,0.02532
2248.02261,0.02594
2246.99235,0.02572
2245.96210,0.02464
2244.93184,0.02415
2243.90158,0.02457
2242.87132,0.02462
2241.84107,0.02510
2240.81081,0.02620
2239.78055,0.02632
2238.75029,0.02576
2237.72003,0.02592
2236.68978,0.02648
2235.65952,0.02628
2234.62926,0.02537
2233.59900,0.02442
2232.56874,0.02447
2231.53849,0.02578
2230.50823,0.02660
2229.47797,0.02590
2228.44771,0.02475
2227.41746,0.02407
2226.38720,0.02419
2225.35694,0.02524
2224.32668,0.02628
2223.29642,0.02581
2222.26617,0.02442
2221.23591,0.02487
2220.20565,0.02650
2219.17539,0.02635
2218.14514,0.02569
2217.11488,0.02591
2216.08462,0.02589
2215.05436,0.02590
2214.02410,0.02586
2212.99385,0.02491
2211.96359,0.02406
2210.93333,0.02457
2209.90307,0.02536
2208.87281,0.02606
2207.84256,0.02736
2206.81230,0.02797
2205.78204,0.02691
2204.75178,0.02528
2203.72153,0.02499
2202.69127,0.02581
2201.66101,0.02588
2200.63075,0.02556
2199.60049,0.02552
2198.57024,0.02562
2197.53998,0.02626
2196.50972,0.02689
2195.47946,0.02676
2194.44920,0.02666
2193.41895,0.02699
2192.38869,0.02706
2191.35843,0.02639
2190.32817,0.02564
2189.29792,0.02593
2188.26766,0.02681
2187.23740,0.02675
2186.20714,0.02576
2185.17688,0.02578
2184.14663,0.02652
2183.11637,0.02585
2182.08611,0.02459
2181.05585,0.02469
2180.02559,0.02601
2178.99534,0.02794
2177.96508,0.02924
2176.93482,0.02789
2175.90456,0.02518
2174.87431,0.02353
2173.84405,0.02294
2172.81379,0.02320
2171.78353,0.02364
2170.75327,0.02418
2169.72302,0.02523
2168.69276,0.02613
2167.66250,0.02624
2166.63224,0.02496
2165.60199,0.02308
2164.57173,0.02305
2163.54147,0.02408
2162.51121,0.02388
2161.48095,0.02430
2160.45070,0.02704
2159.42044,0.02873
2158.39018,0.02649
2157.35992,0.02395
2156.32966,0.02492
2155.29941,0.02652
2154.26915,0.02482
2153.23889,0.02174
2152.20863,0.02018
2151.17838,0.02036
2150.14812,0.02119
2149.11786,0.02108
2148.08760,0.02119
2147.05734,0.02290
2146.02709,0.02468
2144.99683,0.02505
2143.96657,0.02438
2142.93631,0.02381
2141.90605,0.02332
2140.87580,0.02304
2139.84554,0.02410
2138.81528,0.02525
2137.78502,0.02452
2136.75477,0.02316
2135.72451,0.02288
2134.69425,0.02314
2133.66399,0.02352
2132.63373,0.02416
2131.60348,0.02461
2130.57322,0.02485
2129.54296,0.02489
2128.51270,0.02423
2127.48244,0.02339
2126.45219,0.02308
2125.42193,0.02312
2124.39167,0.02317
2123.36141,0.02311
2122.33116,0.02287
2121.30090,0.02272
2120.27064,0.02322
2119.24038,0.02354
2118.21012,0.02329
2117.17987,0.02337
2116.14961,0.02326
2115.11935,0.02263
2114.08909,0.02222
2113.05884,0.02224
2112.02858,0.02230
2110.99832,0.02249
2109.96806,0.02260
2108.93780,0.02219
2107.90755,0.02203
2106.87729,0.02243
2105.84703,0.02236
2104.81677,0.02162
2103.78651,0.02145
2102.75626,0.02217
2101.72600,0.02265
2100.69574,0.02224
2099.66548,0.02124
2098.63523,0.02042
2097.60497,0.02040
2096.57471,0.02098
2095.54445,0.02159
2094.51419,0.02222
2093.48394,0.02257
2092.45368,0.02199
2091.42342,0.02077
2090.39316,0.01978
2089.36290,0.01960
2088.33265,0.02024
2087.30239,0.02023
2086.27213,0.01902
2085.24187,0.01848
2084.21162,0.01895
2083.18136,0.01962
2082.15110,0.02086
2081.12084,0.02177
2080.09058,0.02086
2079.06033,0.01921
2078.03007,0.01834
2076.99981,0.01815
2075.96955,0.01825
2074.93930,0.01805
2073.90904,0.01733
2072.87878,0.01703
2071.84852,0.01737
2070.81826,0.01745
2069.78801,0.01729
2068.75775,0.01761
2067.72749,0.01809
2066.69723,0.01791
2065.66697,0.01742
2064.63672,0.01744
2063.60646,0.01744
2062.57620,0.01669
2061.54594,0.01654
2060.51569,0.01768
2059.48543,0.01841
2058.45517,0.01815
2057.42491,0.01746
2056.39465,0.01710
2055.36440,0.01770
2054.33414,0.01864
2053.30388,0.01833
2052.27362,0.01686
2051.24336,0.01586
2050.21311,0.01573
2049.18285,0.01643
2048.15259,0.01717
2047.12233,0.01680
2046.09208,0.01660
2045.06182,0.01798
2044.03156,0.02004
2043.00130,0.01991
2041.97104,0.01730
2040.94079,0.01601
2039.91053,0.01613
2038.88027,0.01539
2037.85001,0.01440
2036.81975,0.01376
2035.78950,0.01425
2034.75924,0.01550
2033.72898,0.01585
2032.69872,0.01591
2031.66847,0.01607
2030.63821,0.01593
2029.60795,0.01550
2028.57769,0.01461
2027.54743,0.01490
2026.51718,0.01623
2025.48692,0.01616
2024.45666,0.01459
2023.42640,0.01328
2022.39615,0.01366
2021.36589,0.01431
2020.33563,0.01379
2019.30537,0.01351
2018.27511,0.01437
2017.24486,0.01528
2016.21460,0.01482
2015.18434,0.01343
2014.15408,0.01315
2013.12382,0.01484
2012.09357,0.01613
2011.06331,0.01590
2010.03305,0.01640
2009.00279,0.01834
2007.97254,0.01937
2006.94228,0.01713
2005.91202,0.01359
2004.88176,0.01283
2003.85150,0.01421
2002.82125,0.01405
2001.79099,0.01335
2000.76073,0.01459
1999.73047,0.01493
1998.70021,0.01357
1997.66996,0.01364
1996.63970,0.01482
1995.60944,0.01540
1994.57918,0.01570
1993.54893,0.01584
1992.51867,0.01579
1991.48841,0.01581
1990.45815,0.01516
1989.42789,0.01398
1988.39764,0.01388
1987.36738,0.01480
1986.33712,0.01551
1985.30686,0.01529
1984.27660,0.01445
1983.24635,0.01464
1982.21609,0.01553
1981.18583,0.01538
1980.15557,0.01463
1979.12532,0.01482
1978.09506,0.01522
1977.06480,0.01459
1976.03454,0.01373
1975.00428,0.01252
1973.97403,0.01127
1972.94377,0.01151
1971.91351,0.01192
1970.88325,0.01146
1969.85300,0.01160
1968.82274,0.01215
1967.79248,0.01245
1966.76222,0.01260
1965.73196,0.01282
1964.70171,0.01367
1963.67145,0.01375
1962.64119,0.01273
1961.61093,0.01272
1960.58067,0.01331
1959.55042,0.01330
1958.52016,0.01372
1957.48990,0.01444
1956.45964,0.01437
1955.42939,0.01362
1954.39913,0.01272
1953.36887,0.01206
1952.33861,0.01193
1951.30835,0.01238
1950.27810,0.01267
1949.24784,0.01252
1948.21758,0.01309
1947.18732,0.01456
1946.15706,0.01536
1945.12681,0.01448
1944.09655,0.01293
1943.06629,0.01245
1942.03603,0.01290
1941.00578,0.01338
1939.97552,0.01383
1938.94526,0.01398
1937.91500,0.01435
1936.88474,0.01441
1935.85449,0.01349
1934.82423,0.01306
1933.79397,0.01336
1932.76371,0.01356
1931.73345,0.01404
1930.70320,0.01485
1929.67294,0.01490
1928.64268,0.01427
1927.61242,0.01423
1926.58217,0.01466
1925.55191,0.01482
1924.52165,0.01468
1923.49139,0.01410
1922.46113,0.01356
1921.43088,0.01378
1920.40062,0.01403
1919.37036,0.01370
1918.34010,0.01334
1917.30985,0.01335
1916.27959,0.01334
1915.24933,0.01362
1914.21907,0.01409
1913.18881,0.01408
1912.15856,0.01396
1911.12830,0.01423
1910.09804,0.01485
1909.06778,0.01509
1908.03752,0.01442
1907.00727,0.01374
1905.97701,0.01412
1904.94675,0.01492
1903.91649,0.01506
1902.88624,0.01478
1901.85598,0.01456
1900.82572,0.01459
1899.79546,0.01487
1898.76520,0.01517
1897.73495,0.01547
1896.70469,0.01558
1895.67443,0.01551
1894.64417,0.01557
1893.61391,0.01569
1892.58366,0.01551
1891.55340,0.01529
1890.52314,0.01594
1889.49288,0.01692
1888.46263,0.01679
1887.43237,0.01632
1886.40211,0.01614
1885.37185,0.01570
1884.34159,0.01547
1883.31134,0.01599
1882.28108,0.01643
1881.25082,0.01583
1880.22056,0.01469
1879.19030,0.01444
1878.16005,0.01530
1877.12979,0.01629
1876.09953,0.01647
1875.06927,0.01598
1874.03902,0.01574
1873.00876,0.01601
1871.97850,0.01632
1870.94824,0.01640
1869.91798,0.01617
1868.88773,0.01539
1867.85747,0.01464
1866.82721,0.01498
1865.79695,0.01605
1864.76670,0.01653
1863.73644,0.01586
1862.70618,0.01507
1861.67592,0.01488
1860.64566,0.01477
1859.61541,0.01477
1858.58515,0.01500
1857.55489,0.01523
1856.52463,0.01552
1855.49437,0.01579
1854.46412,0.01568
1853.43386,0.01526
1852.40360,0.01504
1851.37334,0.01511
1850.34309,0.01543
1849.31283,0.01578
1848.28257,0.01567
1847.25231,0.01514
1846.22205,0.01498
1845.19180,0.01528
1844.16154,0.01525
1843.13128,0.01494
1842.10102,0.01497
1841.07076,0.01509
1840.04051,0.01524
1839.01025,0.01553
1837.97999,0.01563
1836.94973,0.01570
1835.91948,0.01570
1834.88922,0.01528
1833.85896,0.01502
1832.82870,0.01536
1831.79844,0.01592
1830.76819,0.01606
1829.73793,0.01581
1828.70767,0.01566
1827.67741,0.01587
1826.64715,0.01653
1825.61690,0.01692
1824.58664,0.01637
1823.55638,0.01596
1822.52612,0.01613
1821.49587,0.01634
1820.46561,0.01648
1819.43535,0.01677
1818.40509,0.01695
1817.37483,0.01690
1816.34458,0.01715
1815.31432,0.01762
1814.28406,0.01760
1813.25380,0.01720
1812.22355,0.01718
1811.19329,0.01763
1810.16303,0.01806
1809.13277,0.01804
1808.10251,0.01780
1807.07226,0.01770
1806.04200,0.01775
1805.01174,0.01792
1803.98148,0.01814
1802.95122,0.01829
1801.92097,0.01825
1800.89071,0.01805
1799.86045,0.01806
1798.83019,0.01822
1797.79994,0.01826
1796.76968,0.01853
1795.73942,0.01896
1794.70916,0.01898
1793.67890,0.01863
1792.64865,0.01849
1791.61839,0.01895
1790.58813,0.01954
1789.55787,0.01974
1788.52761,0.01961
1787.49736,0.01961
1786.46710,0.01999
1785.43684,0.02025
1784.40658,0.02009
1783.37633,0.01992
1782.34607,0.02000
1781.31581,0.02027
1780.28555,0.02071
1779.25529,0.02131
1778.22504,0.02189
1777.19478,0.02226
1776.16452,0.02243
1775.13426,0.02260
1774.10400,0.02272
1773.07375,0.02266
1772.04349,0.02263
1771.01323,0.02267
1769.98297,0.02264
1768.95272,0.02275
1767.92246,0.02304
1766.89220,0.02347
1765.86194,0.02385
1764.83168,0.02396
1763.80143,0.02407
1762.77117,0.02430
1761.74091,0.02428
1760.71065,0.02437
1759.68040,0.02500
1758.65014,0.02561
1757.61988,0.02567
1756.58962,0.02563
1755.55936,0.02619
1754.52911,0.02678
1753.49885,0.02688
1752.46859,0.02690
1751.43833,0.02731
1750.40807,0.02813
1749.37782,0.02891
1748.34756,0.02925
1747.31730,0.02901
1746.28704,0.02873
1745.25679,0.02913
1744.22653,0.02997
1743.19627,0.03057
1742.16601,0.03094
1741.13575,0.03122
1740.10550,0.03136
1739.07524,0.03166
1738.04498,0.03226
1737.01472,0.03301
1735.98446,0.03370
1734.95421,0.03412
1733.92395,0.03434
1732.89369,0.03477
1731.86343,0.03552
1730.83318,0.03628
1729.80292,0.03672
1728.77266,0.03709
1727.74240,0.03777
1726.71214,0.03862
1725.68189,0.03939
1724.65163,0.04016
1723.62137,0.04102
1722.59111,0.04183
1721.56085,0.04265
1720.53060,0.04355
1719.50034,0.04439
1718.47008,0.04508
1717.43982,0.04586
1716.40957,0.04684
1715.37931,0.04793
1714.34905,0.04903
1713.31879,0.04994
1712.28853,0.05083
1711.25828,0.05191
1710.22802,0.05300
1709.19776,0.05397
1708.16750,0.05504
1707.13725,0.05644
1706.10699,0.05792
1705.07673,0.05904
1704.04647,0.06019
1703.01621,0.06145
1701.98596,0.06261
1700.95570,0.06377
1699.92544,0.06514
1698.89518,0.06644
1697.86492,0.06767
1696.83467,0.06907
1695.80441,0.07053
1694.77415,0.07177
1693.74389,0.07293
1692.71364,0.07419
1691.68338,0.07574
1690.65312,0.07761
1689.62286,0.07926
1688.59260,0.08031
1687.56235,0.08134
1686.53209,0.08264
1685.50183,0.08410
1684.47157,0.08628
1683.44131,0.08847
1682.41106,0.08944
1681.38080,0.09022
1680.35054,0.09138
1679.32028,0.09294
1678.29003,0.09450
1677.25977,0.09570
1676.22951,0.09645
1675.19925,0.09701
1674.16899,0.09792
1673.13874,0.09908
1672.10848,0.10047
1671.07822,0.10212
1670.04796,0.10337
1669.01771,0.10387
1667.98745,0.10442
1666.95719,0.10533
1665.92693,0.10602
1664.89667,0.10651
1663.86642,0.10738
1662.83616,0.10865
1661.80590,0.10944
1660.77564,0.10974
1659.74538,0.11007
1658.71513,0.11049
1657.68487,0.11095
1656.65461,0.11140
1655.62435,0.11208
1654.59410,0.11304
1653.56384,0.11343
1652.53358,0.11228
1651.50332,0.11199
1650.47306,0.11234
1649.44281,0.11263
1648.41255,0.11262
1647.38229,0.11221
1646.35203,0.11142
1645.32177,0.11036
1644.29152,0.10963
1643.26126,0.10913
1642.23100,0.10872
1641.20074,0.10829
1640.17049,0.10767
1639.14023,0.10710
1638.10997,0.10645
1637.07971,0.10552
1636.04945,0.10434
1635.01920,0.10271
1633.98894,0.10138
1632.95868,0.10045
1631.92842,0.09955
1630.89816,0.09863
1629.86791,0.09774
1628.83765,0.09694
1627.80739,0.09549
1626.77713,0.09348
1625.74688,0.09205
1624.71662,0.09106
1623.68636,0.08967
1622.65610,0.08787
1621.62584,0.08657
1620.59559,0.08538
1619.56533,0.08398
1618.53507,0.08284
1617.50481,0.08208
1616.47456,0.08078
1615.44430,0.07944
1614.41404,0.07846
1613.38378,0.07731
1612.35352,0.07610
1611.32327,0.07504
1610.29301,0.07408
1609.26275,0.07316
1608.23249,0.07245
1607.20223,0.07159
1606.17198,0.07041
1605.14172,0.06946
1604.11146,0.06890
1603.08120,0.06830
1602.05095,0.06766
1601.02069,0.06723
1599.99043,0.06678
1598.96017,0.06615
1597.92991,0.06547
1596.89966,0.06474
1595.86940,0.06408
1594.83914,0.06354
1593.80888,0.06297
1592.77862,0.06243
1591.74837,0.06186
1590.71811,0.06130
1589.68785,0.06095
1588.65759,0.06073
1587.62734,0.06039
1586.59708,0.05977
1585.56682,0.05895
1584.53656,0.05844
1583.50630,0.05825
1582.47605,0.05797
1581.44579,0.05764
1580.41553,0.05713
1579.38527,0.05651
1578.35501,0.05630
1577.32476,0.05638
1576.29450,0.05581
1575.26424,0.05482
1574.23398,0.05449
1573.20373,0.05438
1572.17347,0.05425
1571.14321,0.05403
1570.11295,0.05374
1569.08269,0.05348
1568.05244,0.05323
1567.02218,0.05293
1565.99192,0.05263
1564.96166,0.05222
1563.93141,0.05195
1562.90115,0.05196
1561.87089,0.05188
1560.84063,0.05153
1559.81037,0.05071
1558.78012,0.04956
1557.74986,0.04904
1556.71960,0.04916
1555.68934,0.04932
1554.65908,0.04927
1553.62883,0.04919
1552.59857,0.04917
1551.56831,0.04893
1550.53805,0.04845
1549.50780,0.04819
1548.47754,0.04845
1547.44728,0.04888
1546.41702,0.04901
1545.38676,0.04853
1544.35651,0.04790
1543.32625,0.04785
1542.29599,0.04787
1541.26573,0.04755
1540.23547,0.04725
1539.20522,0.04704
1538.17496,0.04689
1537.14470,0.04676
1536.11444,0.04664
1535.08419,0.04655
1534.05393,0.04620
1533.02367,0.04563
1531.99341,0.04553
1530.96315,0.04568
1529.93290,0.04588
1528.90264,0.04595
1527.87238,0.04568
1526.84212,0.04545
1525.81186,0.04560
1524.78161,0.04589
1523.75135,0.04605
1522.72109,0.04617
1521.69083,0.04605
1520.66058,0.04535
1519.63032,0.04494
1518.60006,0.04506
1517.56980,0.04530
1516.53954,0.04543
1515.50929,0.04538
1514.47903,0.04534
1513.44877,0.04537
1512.41851,0.04542
1511.38826,0.04546
1510.35800,0.04549
1509.32774,0.04570
1508.29748,0.04598
1507.26722,0.04575
1506.23697,0.04513
1505.20671,0.04538
1504.17645,0.04578
1503.14619,0.04595
1502.11593,0.04622
1501.08568,0.04662
1500.05542,0.04686
1499.02516,0.04689
1497.99490,0.04714
1496.96465,0.04781
1495.93439,0.04884
1494.90413,0.04968
1493.87387,0.05048
1492.84361,0.05168
1491.81336,0.05312
1490.78310,0.05516
1489.75284,0.05862
1488.72258,0.06258
1487.69232,0.06734
1486.66207,0.07465
1485.63181,0.08422
1484.60155,0.09571
1483.57129,0.10857
1482.54104,0.12031
1481.51078,0.12762
1480.48052,0.12772
1479.45026,0.12136
1478.42000,0.11240
1477.38975,0.10412
1476.35949,0.09748
1475.32923,0.09415
1474.29897,0.09433
1473.26871,0.09652
1472.23846,0.10056
1471.20820,0.10584
1470.17794,0.11116
1469.14768,0.11690
1468.11743,0.12277
1467.08717,0.12768
1466.05691,0.13103
1465.02665,0.13217
1463.99639,0.13070
1462.96614,0.12809
1461.93588,0.12493
1460.90562,0.12130
1459.87536,0.11755
1458.84511,0.11347
1457.81485,0.10926
1456.78459,0.10476
1455.75433,0.10168
1454.72407,0.10007
1453.69382,0.09845
1452.66356,0.09653
1451.63330,0.09459
1450.60304,0.09313
1449.57278,0.09209
1448.54253,0.09088
1447.51227,0.08900
1446.48201,0.08696
1445.45175,0.08517
1444.42150,0.08350
1443.39124,0.08204
1442.36098,0.08082
1441.33072,0.07934
1440.30046,0.07734
1439.27021,0.07543
1438.23995,0.07416
1437.20969,0.07275
1436.17943,0.07002
1435.14917,0.06788
1434.11892,0.06653
1433.08866,0.06504
1432.05840,0.06358
1431.02814,0.06238
1429.99789,0.06107
1428.96763,0.05958
1427.93737,0.05828
1426.90711,0.05719
1425.87685,0.05632
1424.84660,0.05552
1423.81634,0.05457
1422.78608,0.05367
1421.75582,0.05317
1420.72556,0.05298
1419.69531,0.05280
1418.66505,0.05237
1417.63479,0.05194
1416.60453,0.05164
1415.57428,0.05145
1414.54402,0.05142
1413.51376,0.05159
1412.48350,0.05194
1411.45324,0.05250
1410.42299,0.05337
1409.39273,0.05451
1408.36247,0.05606
1407.33221,0.05810
1406.30196,0.06052
1405.27170,0.06346
1404.24144,0.06642
1403.21118,0.06853
1402.18092,0.06974
1401.15067,0.06982
1400.12041,0.06884
1399.09015,0.06679
1398.05989,0.06380
1397.02963,0.06093
1395.99938,0.05851
1394.96912,0.05611
1393.93886,0.05369
1392.90860,0.05204
1391.87835,0.05109
1390.84809,0.05024
1389.81783,0.04945
1388.78757,0.04894
1387.75731,0.04844
1386.72706,0.04768
1385.69680,0.04717
1384.66654,0.04708
1383.63628,0.04710
1382.60602,0.04686
1381.57577,0.04652
1380.54551,0.04647
1379.51525,0.04652
1378.48499,0.04636
1377.45474,0.04614
1376.42448,0.04602
1375.39422,0.04602
1374.36396,0.04594
1373.33370,0.04568
1372.30345,0.04567
1371.27319,0.04598
1370.24293,0.04616
1369.21267,0.04613
1368.18241,0.04607
1367.15216,0.04615
1366.12190,0.04645
1365.09164,0.04679
1364.06138,0.04704
1363.03113,0.04726
1362.00087,0.04766
1360.97061,0.04814
1359.94035,0.04851
1358.91009,0.04895
1357.87984,0.04952
1356.84958,0.05006
1355.81932,0.05052
1354.78906,0.05097
1353.75881,0.05148
1352.72855,0.05205
1351.69829,0.05251
1350.66803,0.05280
1349.63777,0.05294
1348.60752,0.05278
1347.57726,0.05216
1346.54700,0.05126
1345.51674,0.05017
1344.48648,0.04879
1343.45623,0.04741
1342.42597,0.04646
1341.39571,0.04598
1340.36545,0.04567
1339.33520,0.04531
1338.30494,0.04510
1337.27468,0.04514
1336.24442,0.04527
1335.21416,0.04532
1334.18391,0.04520
1333.15365,0.04505
1332.12339,0.04495
1331.09313,0.04490
1330.06287,0.04508
1329.03262,0.04531
1328.00236,0.04509
1326.97210,0.04450
1325.94184,0.04424
1324.91159,0.04437
1323.88133,0.04431
1322.85107,0.04410
1321.82081,0.04406
1320.79055,0.04411
1319.76030,0.04403
1318.73004,0.04386
1317.69978,0.04381
1316.66952,0.04396
1315.63927,0.04415
1314.60901,0.04429
1313.57875,0.04444
1312.54849,0.04463
1311.51823,0.04493
1310.48798,0.04522
1309.45772,0.04538
1308.42746,0.04561
1307.39720,0.04597
1306.36694,0.04623
1305.33669,0.04633
1304.30643,0.04648
1303.27617,0.04668
1302.24591,0.04687
1301.21566,0.04704
1300.18540,0.04699
1299.15514,0.04682
1298.12488,0.04686
1297.09462,0.04698
1296.06437,0.04684
1295.03411,0.04662
1294.00385,0.04657
1292.97359,0.04655
1291.94333,0.04651
1290.91308,0.04646
1289.88282,0.04647
1288.85256,0.04653
1287.82230,0.04649
1286.79205,0.04645
1285.76179,0.04635
1284.73153,0.04609
1283.70127,0.04588
1282.67101,0.04573
1281.64076,0.04550
1280.61050,0.04526
1279.58024,0.04495
1278.54998,0.04475
1277.51972,0.04490
1276.48947,0.04512
1275.45921,0.04511
1274.42895,0.04493
1273.39869,0.04473
1272.36844,0.04463
1271.33818,0.04464
1270.30792,0.04477
1269.27766,0.04498
1268.24740,0.04519
1267.21715,0.04542
1266.18689,0.04576
1265.15663,0.04614
1264.12637,0.04650
1263.09612,0.04672
1262.06586,0.04685
1261.03560,0.04719
1260.00534,0.04778
1258.97508,0.04852
1257.94483,0.04933
1256.91457,0.05011
1255.88431,0.05087
1254.85405,0.05172
1253.82379,0.05268
1252.79354,0.05366
1251.76328,0.05482
1250.73302,0.05647
1249.70276,0.05856
1248.67251,0.06095
1247.64225,0.06360
1246.61199,0.06671
1245.58173,0.07068
1244.55147,0.07540
1243.52122,0.08048
1242.49096,0.08575
1241.46070,0.09090
1240.43044,0.09554
1239.40018,0.09933
1238.36993,0.10175
1237.33967,0.10208
1236.30941,0.10019
1235.27915,0.09685
1234.24890,0.09259
1233.21864,0.08750
1232.18838,0.08207
1231.15812,0.07699
1230.12786,0.07233
1229.09761,0.06793
1228.06735,0.06420
1227.03709,0.06121
1226.00683,0.05866
1224.97657,0.05653
1223.94632,0.05475
1222.91606,0.05324
1221.88580,0.05201
1220.85554,0.05089
1219.82529,0.04985
1218.79503,0.04900
1217.76477,0.04839
1216.73451,0.04786
1215.70425,0.04726
1214.67400,0.04685
1213.64374,0.04656
1212.61348,0.04623
1211.58322,0.04591
1210.55297,0.04552
1209.52271,0.04513
1208.49245,0.04484
1207.46219,0.04467
1206.43193,0.04447
1205.40168,0.04419
1204.37142,0.04417
1203.34116,0.04424
1202.31090,0.04411
1201.28064,0.04387
1200.25039,0.04373
1199.22013,0.04381
1198.18987,0.04383
1197.15961,0.04366
1196.12936,0.04368
1195.09910,0.04379
1194.06884,0.04372
1193.03858,0.04347
1192.00832,0.04313
1190.97807,0.04289
1189.94781,0.04283
1188.91755,0.04288
1187.88729,0.04286
1186.85703,0.04268
1185.82678,0.04274
1184.79652,0.04310
1183.76626,0.04344
1182.73600,0.04374
1181.70575,0.04385
1180.67549,0.04364
1179.64523,0.04344
1178.61497,0.04338
1177.58471,0.04328
1176.55446,0.04331
1175.52420,0.04360
1174.49394,0.04392
1173.46368,0.04416
1172.43342,0.04435
1171.40317,0.04442
1170.37291,0.04445
1169.34265,0.04470
1168.31239,0.04502
1167.28214,0.04522
1166.25188,0.04546
1165.22162,0.04587
1164.19136,0.04629
1163.16110,0.04673
1162.13085,0.04726
1161.10059,0.04778
1160.07033,0.04837
1159.04007,0.04924
1158.00982,0.05014
1156.97956,0.05102
1155.94930,0.05214
1154.91904,0.05347
1153.88878,0.05486
1152.85853,0.05638
1151.82827,0.05775
1150.79801,0.05872
1149.76775,0.05949
1148.73749,0.06035
1147.70724,0.06143
1146.67698,0.06257
1145.64672,0.06366
1144.61646,0.06475
1143.58621,0.06560
1142.55595,0.06615
1141.52569,0.06689
1140.49543,0.06802
1139.46517,0.06912
1138.43492,0.06978
1137.40466,0.07014
1136.37440,0.07050
1135.34414,0.07098
1134.31388,0.07169
1133.28363,0.07223
1132.25337,0.07235
1131.22311,0.07257
1130.19285,0.07312
1129.16260,0.07397
1128.13234,0.07516
1127.10208,0.07640
1126.07182,0.07776
1125.04156,0.07946
1124.01131,0.08112
1122.98105,0.08241
1121.95079,0.08332
1120.92053,0.08407
1119.89027,0.08466
1118.86002,0.08486
1117.82976,0.08463
1116.79950,0.08401
1115.76924,0.08352
1114.73899,0.08366
1113.70873,0.08410
1112.67847,0.08454
1111.64821,0.08493
1110.61795,0.08500
1109.58770,0.08503
1108.55744,0.08543
1107.52718,0.08591
1106.49692,0.08616
1105.46667,0.08639
1104.43641,0.08679
1103.40615,0.08723
1102.37589,0.08767
1101.34563,0.08794
1100.31538,0.08800
1099.28512,0.08825
1098.25486,0.08860
1097.22460,0.08865
1096.19434,0.08848
1095.16409,0.08831
1094.13383,0.08812
1093.10357,0.08767
1092.07331,0.08694
1091.04306,0.08632
1090.01280,0.08588
1088.98254,0.08551
1087.95228,0.08536
1086.92202,0.08514
1085.89177,0.08465
1084.86151,0.08401
1083.83125,0.08319
1082.80099,0.08242
1081.77073,0.08197
1080.74048,0.08171
1079.71022,0.08149
1078.67996,0.08114
1077.64970,0.08073
1076.61945,0.08035
1075.58919,0.07978
1074.55893,0.07924
1073.52867,0.07898
1072.49841,0.07870
1071.46816,0.07816
1070.43790,0.07732
1069.40764,0.07615
1068.37738,0.07516
1067.34712,0.07458
1066.31687,0.07389
1065.28661,0.07306
1064.25635,0.07246
1063.22609,0.07188
1062.19584,0.07083
1061.16558,0.06952
1060.13532,0.06834
1059.10506,0.06727
1058.07480,0.06619
1057.04455,0.06521
1056.01429,0.06431
1054.98403,0.06327
1053.95377,0.06204
1052.92352,0.06103
1051.89326,0.06034
1050.86300,0.05948
1049.83274,0.05861
1048.80248,0.05828
1047.77223,0.05828
1046.74197,0.05832
1045.71171,0.05847
1044.68145,0.05845
1043.65119,0.05797
1042.62094,0.05751
1041.59068,0.05750
1040.56042,0.05762
1039.53016,0.05755
1038.49991,0.05744
1037.46965,0.05742
1036.43939,0.05747
1035.40913,0.05765
1034.37887,0.05782
1033.34862,0.05770
1032.31836,0.05732
1031.28810,0.05687
1030.25784,0.05657
1029.22758,0.05655
1028.19733,0.05669
1027.16707,0.05662
1026.13681,0.05600
1025.10655,0.05529
1024.07630,0.05483
1023.04604,0.05440
1022.01578,0.05413
1020.98552,0.05399
1019.95526,0.05368
1018.92501,0.05340
1017.89475,0.05342
1016.86449,0.05365
1015.83423,0.05375
1014.80397,0.05374
1013.77372,0.05370
1012.74346,0.05356
1011.71320,0.05321
1010.68294,0.05280
1009.65269,0.05280
1008.62243,0.05319
1007.59217,0.05357
1006.56191,0.05361
1005.53165,0.05347
1004.50140,0.05367
1003.47114,0.05415
1002.44088,0.05440
1001.41062,0.05420
1000.38037,0.05413
999.35011,0.05461
998.31985,0.05530
997.28959,0.05580
996.25933,0.05620
995.22908,0.05649
994.19882,0.05651
993.16856,0.05639
992.13830,0.05651
991.10804,0.05693
990.07779,0.05743
989.04753,0.05788
988.01727,0.05811
986.98701,0.05832
985.95676,0.05862
984.92650,0.05872
983.89624,0.05889
982.86598,0.05938
981.83572,0.05991
980.80547,0.06041
979.77521,0.06113
978.74495,0.06196
977.71469,0.06249
976.68443,0.06284
975.65418,0.06324
974.62392,0.06367
973.59366,0.06427
972.56340,0.06497
971.53315,0.06568
970.50289,0.06670
969.47263,0.06809
968.44237,0.06966
967.41211,0.07141
966.38186,0.07327
965.35160,0.07527
964.32134,0.07782
963.29108,0.08120
962.26082,0.08531
961.23057,0.09001
960.20031,0.09544
959.17005,0.10211
958.13979,0.11015
957.10954,0.11929
956.07928,0.12950
955.04902,0.14099
954.01876,0.15330
952.98850,0.16604
951.95825,0.17903
950.92799,0.19146
949.89773,0.20271
948.86747,0.21234
947.83722,0.21939
946.80696,0.22284
945.77670,0.22227
944.74644,0.21744
943.71618,0.20821
942.68593,0.19590
941.65567,0.18266
940.62541,0.16962
939.59515,0.15716
938.56489,0.14628
937.53464,0.13777
936.50438,0.13119
935.47412,0.12568
934.44386,0.12109
933.41361,0.11764
932.38335,0.11476
931.35309,0.11199
930.32283,0.10954
929.29257,0.10745
928.26232,0.10571
927.23206,0.10409
926.20180,0.10256
925.17154,0.10150
924.14128,0.10102
923.11103,0.10067
922.08077,0.09995
921.05051,0.09939
920.02025,0.09948
918.99000,0.09979
917.95974,0.10012
916.92948,0.10046
915.89922,0.10084
914.86896,0.10119
913.83871,0.10160
912.80845,0.10229
911.77819,0.10303
910.74793,0.10347
909.71768,0.10373
908.68742,0.10423
907.65716,0.10497
906.62690,0.10572
905.59664,0.10612
904.56639,0.10626
903.53613,0.10680
902.50587,0.10771
901.47561,0.10854
900.44535,0.10916
899.41510,0.10980
898.38484,0.11069
897.35458,0.11176
896.32432,0.11297
895.29407,0.11442
894.26381,0.11585
893.23355,0.11694
892.20329,0.11767
891.17303,0.11828
890.14278,0.11906
889.11252,0.12012
888.08226,0.12139
887.05200,0.12268
886.02174,0.12383
884.99149,0.12490
883.96123,0.12576
882.93097,0.12627
881.90071,0.12686
880.87046,0.12797
879.84020,0.12921
878.80994,0.13029
877.77968,0.13129
876.74942,0.13240
875.71917,0.13363
874.68891,0.13447
873.65865,0.13537
872.62839,0.13676
871.59813,0.13802
870.56788,0.13903
869.53762,0.14004
868.50736,0.14114
867.47710,0.14236
866.44685,0.14366
865.41659,0.14508
864.38633,0.14628
863.35607,0.14719
862.32581,0.14830
861.29556,0.14960
860.26530,0.15104
859.23504,0.15255
858.20478,0.15405
857.17453,0.15541
856.14427,0.15621
855.11401,0.15688
854.08375,0.15819
853.05349,0.16014
852.02324,0.16191
850.99298,0.16306
849.96272,0.16440
848.93246,0.16598
847.90220,0.16694
846.87195,0.16754
845.84169,0.16866
844.81143,0.16996
843.78117,0.17122
842.75092,0.17267
841.72066,0.17405
840.69040,0.17537
839.66014,0.17679
838.62988,0.17815
837.59963,0.17933
836.56937,0.18041
835.53911,0.18164
834.50885,0.18305
833.47859,0.18421
832.44834,0.18515
831.41808,0.18656
830.38782,0.18855
829.35756,0.19037
828.32731,0.19154
827.29705,0.19214
826.26679,0.19236
825.23653,0.19263
824.20627,0.19371
823.17602,0.19559
822.14576,0.19762
821.11550,0.19942
820.08524,0.20067
819.05498,0.20166
818.02473,0.20247
816.99447,0.20305
815.96421,0.20396
814.93395,0.20532
813.90370,0.20665
812.87344,0.20787
811.84318,0.20948
810.81292,0.21128
809.78266,0.21261
808.75241,0.21371
807.72215,0.21463
806.69189,0.21513
805.66163,0.21614
804.63138,0.21818
803.60112,0.22013
802.57086,0.22169
801.54060,0.22360
800.51034,0.22526
799.48009,0.22585
798.44983,0.22639
797.41957,0.22769
796.38931,0.22868
795.35905,0.22910
794.32880,0.23003
793.29854,0.23189
792.26828,0.23392
791.23802,0.23508
790.20777,0.23621
789.17751,0.23854
788.14725,0.24084
787.11699,0.24171
786.08673,0.24206
785.05648,0.24289
784.02622,0.24410
782.99596,0.24601
781.96570,0.24791
780.93544,0.24915
779.90519,0.25033
778.87493,0.25174
777.84467,0.25394
776.81441,0.25652
775.78416,0.25871
774.75390,0.26064
773.72364,0.26217
772.69338,0.26384
771.66312,0.26612
770.63287,0.26864
769.60261,0.27153
768.57235,0.27557
767.54209,0.28055
766.51183,0.28493
765.48158,0.28863
764.45132,0.29300
763.42106,0.29879
762.39080,0.30561
761.36055,0.31211
760.33029,0.31746
759.30003,0.32294
758.26977,0.32902
757.23951,0.33337
756.20926,0.33490
755.17900,0.33432
754.14874,0.33209
753.11848,0.32928
752.08823,0.32615
751.05797,0.32278
750.02771,0.32043
748.99745,0.31858
747.96719,0.31574
746.93694,0.31324
745.90668,0.31283
744.87642,0.31349
743.84616,0.31394
742.81590,0.31421
741.78565,0.31440
740.75539,0.31463
739.72513,0.31516
738.69487,0.31587
737.66462,0.31667
736.63436,0.31736
735.60410,0.31765
734.57384,0.31787
733.54358,0.31864
732.51333,0.31965
731.48307,0.32048
730.45281,0.32164
729.42255,0.32279
728.39229,0.32333
727.36204,0.32438
726.33178,0.32636
725.30152,0.32840
724.27126,0.32975
723.24101,0.32948
722.21075,0.32891
721.18049,0.33020
720.15023,0.33232
719.11997,0.33381
718.08972,0.33474
717.05946,0.33586
716.02920,0.33781
714.99894,0.33934
713.96868,0.33943
712.93843,0.33964
711.90817,0.34082
710.87791,0.34199
709.84765,0.34308
708.81740,0.34440
707.78714,0.34550
706.75688,0.34594
705.72662,0.34614
704.69636,0.34701
703.66611,0.34854
702.63585,0.35040
701.60559,0.35236
700.57533,0.35396
699.54508,0.35444
698.51482,0.35379
697.48456,0.35322
696.45430,0.35339
695.42404,0.35467
694.39379,0.35620
693.36353,0.35658
692.33327,0.35747
691.30301,0.36010
690.27275,0.36298
689.24250,0.36523
688.21224,0.36601
687.18198,0.36498
686.15172,0.36456
685.12147,0.36590
684.09121,0.36775
683.06095,0.36899
682.03069,0.36949
681.00043,0.37031
679.97018,0.37159
678.93992,0.37211
677.90966,0.37163
676.87940,0.37143
675.84914,0.37212
674.81889,0.37290
673.78863,0.37344
672.75837,0.37397
671.72811,0.37481
670.69786,0.37684
669.66760,0.37963
668.63734,0.38080
667.60708,0.38008
666.57682,0.38129
665.54657,0.38234
664.51631,0.38245
663.48605,0.38270
662.45579,0.38355
661.42553,0.38411
660.39528,0.38328
659.36502,0.38230
658.33476,0.38292
657.30450,0.38388
656.27425,0.38524
655.24399,0.38738
654.21373,0.38812
653.18347,0.38745
652.15321,0.38805
651.12296,0.38946
650.09270,0.38930
649.06244,0.38901
648.03218,0.39043
647.00193,0.39238
645.97167,0.39345
644.94141,0.39374
643.91115,0.39390
642.88089,0.39382
641.85064,0.39381
640.82038,0.39457
639.79012,0.39467
638.75986,0.39377
637.72960,0.39464
636.69935,0.39624
635.66909,0.39538
634.63883,0.39407
633.60857,0.39473
632.57832,0.39569
631.54806,0.39593
630.51780,0.39607
629.48754,0.39706
628.45728,0.39917
627.42703,0.40048
626.39677,0.40041
625.36651,0.40006
624.33625,0.40022
623.30599,0.40068
622.27574,0.40005
621.24548,0.39823
620.21522,0.39662
619.18496,0.39638
618.15471,0.39754
617.12445,0.39981
616.09419,0.40193
615.06393,0.40217
614.03367,0.40052
613.00342,0.39818
611.97316,0.39705
610.94290,0.39869
609.91264,0.40147
608.88238,0.40269
607.85213,0.40234
606.82187,0.40147
605.79161,0.40097
604.76135,0.40072
603.73110,0.40029
602.70084,0.40060
601.67058,0.40160
600.64032,0.40248
599.61006,0.40304
598.57981,0.40371
597.54955,0.40504
596.51929,0.40586
595.48903,0.40464
594.45878,0.40264
593.42852,0.40231
592.39826,0.40424
591.36800,0.40658
590.33774,0.40732
589.30749,0.40657
588.27723,0.40628
587.24697,0.40712
586.21671,0.40698
585.18645,0.40564
584.15620,0.40460
583.12594,0.40384
582.09568,0.40344
581.06542,0.40414
580.03517,0.40499
579.00491,0.40447
577.97465,0.40363
576.94439,0.40309
575.91413,0.40329
574.88388,0.40576
573.85362,0.40872
572.82336,0.40878
571.79310,0.40645
570.76284,0.40455
569.73259,0.40286
568.70233,0.40112
567.67207,0.40172
566.64181,0.40326
565.61156,0.40324
564.58130,0.40338
563.55104,0.40445
562.52078,0.40425
561.49052,0.40313
560.46027,0.40288
559.43001,0.40227
558.39975,0.40142
557.36949,0.40212
556.33924,0.40427
555.30898,0.40519
554.27872,0.40402
553.24846,0.40349
552.21820,0.40334
551.18795,0.40304
550.15769,0.40292
549.12743,0.40213
548.09717,0.40225
547.06691,0.40384
546.03666,0.40478
545.00640,0.40478
543.97614,0.40526
542.94588,0.40659
541.91563,0.40705
540.88537,0.40496
539.85511,0.40229
538.82485,0.40126
537.79459,0.40036
536.76434,0.39853
535.73408,0.39866
534.70382,0.40005
533.67356,0.39960
532.64330,0.39882
531.61305,0.39897
530.58279,0.40137
529.55253,0.40604
528.52227,0.40900
527.49202,0.40924
526.46176,0.40835
525.43150,0.40820
524.40124,0.41026
523.37098,0.41348
522.34073,0.41760
521.31047,0.42217
520.28021,0.42591
519.24995,0.42748
518.21969,0.42737
517.18944,0.42922
516.15918,0.43493
515.12892,0.44227
514.09866,0.44682
513.06841,0.44911
512.03815,0.45498
511.00789,0.46397
509.97763,0.47158
508.94737,0.47622
507.91712,0.47917
506.88686,0.48586
505.85660,0.49526
504.82634,0.49941
503.79609,0.49992
502.76583,0.50270
501.73557,0.50954
500.70531,0.51812
499.67505,0.52313
498.64480,0.52109
497.61454,0.51678
496.58428,0.51505
495.55402,0.51511
494.52376,0.51510
493.49351,0.51265
492.46325,0.50803
491.43299,0.50328
490.40273,0.49751
489.37248,0.48813
488.34222,0.47893
487.31196,0.47451
486.28170,0.47157
485.25144,0.46623
484.22119,0.45597
483.19093,0.44473
482.16067,0.43971
481.13041,0.43677
480.10015,0.43170
479.06990,0.42653
478.03964,0.42244
477.00938,0.42089
475.97912,0.42321
474.94887,0.42559
473.91861,0.42344
472.88835,0.42107
471.85809,0.42572
470.82783,0.43647
469.79758,0.45198
468.76732,0.46922
467.73706,0.48695
466.70680,0.51223
465.67654,0.54079
464.64629,0.56411
463.61603,0.58403
462.58577,0.59431
461.55551,0.59135
460.52526,0.58445
459.49500,0.57544
458.46474,0.56121
457.43448,0.54023
456.40422,0.52366
455.37397,0.51484
454.34371,0.50394
453.31345,0.48897
452.28319,0.47546
451.25294,0.46777
450.22268,0.46622
449.19242,0.46561
448.16216,0.46110
447.13190,0.45460
446.10165,0.44808
445.07139,0.43981
444.04113,0.43012
443.01087,0.42414
441.98061,0.42373
440.95036,0.42115
439.92010,0.41346
438.88984,0.40992
437.85958,0.41423
436.82933,0.41698
435.79907,0.41302
434.76881,0.40368
433.73855,0.39660
432.70829,0.39911
431.67804,0.40452
430.64778,0.40667
429.61752,0.40502
428.58726,0.39641
427.55700,0.38312
426.52675,0.37541
425.49649,0.37586
424.46623,0.37664
423.43597,0.37530
422.40572,0.37356
421.37546,0.37129
420.34520,0.36919
419.31494,0.36571
418.28468,0.35935
417.25443,0.35321
416.22417,0.34719
415.19391,0.34504
414.16365,0.34474
413.13339,0.33917
412.10314,0.33519
411.07288,0.33914
410.04262,0.34453
409.01236,0.34545
407.98211,0.34368
406.95185,0.34413
405.92159,0.34240
404.89133,0.33768
403.86107,0.33738
402.83082,0.33842
401.80056,0.33741
400.77030,0.34047
399.74004,0.34928
