4998.81105,0.00366
4997.78079,0.00273
4996.75054,0.00171
4995.72028,0.00163
4994.69002,0.00250
4993.65976,0.00320
4992.62951,0.00327
4991.59925,0.00288
4990.56899,0.00174
4989.53873,0.00039
4988.50847,-0.00036
4987.47822,-0.00049
4986.44796,0.00001
4985.41770,0.00147
4984.38744,0.00277
4983.35718,0.00232
4982.32693,0.00174
4981.29667,0.00263
4980.26641,0.00311
4979.23615,0.00212
4978.20590,0.00092
4977.17564,0.00018
4976.14538,0.00011
4975.11512,0.00125
4974.08486,0.00233
4973.05461,0.00171
4972.02435,0.00086
4970.99409,0.00120
4969.96383,0.00156
4968.93357,0.00168
4967.90332,0.00264
4966.87306,0.00360
4965.84280,0.00318
4964.81254,0.00218
4963.78229,0.00154
4962.75203,0.00107
4961.72177,0.00090
4960.69151,0.00155
4959.66125,0.00243
4958.63100,0.00242
4957.60074,0.00177
4956.57048,0.00165
4955.54022,0.00193
4954.50997,0.00161
4953.47971,0.00090
4952.44945,0.00082
4951.41919,0.00113
4950.38893,0.00115
4949.35868,0.00153
4948.32842,0.00214
4947.29816,0.00186
4946.26790,0.00102
4945.23764,0.00059
4944.20739,0.00061
4943.17713,0.00116
4942.14687,0.00220
4941.11661,0.00260
4940.08636,0.00236
4939.05610,0.00262
4938.02584,0.00320
4936.99558,0.00301
4935.96532,0.00180
4934.93507,0.00049
4933.90481,-0.00022
4932.87455,-0.00047
4931.84429,0.00014
4930.81403,0.00141
4929.78378,0.00198
4928.75352,0.00177
4927.72326,0.00174
4926.69300,0.00194
4925.66275,0.00174
4924.63249,0.00132
4923.60223,0.00141
4922.57197,0.00187
4921.54171,0.00208
4920.51146,0.00206
4919.48120,0.00206
4918.45094,0.00168
4917.42068,0.00125
4916.39042,0.00171
4915.36017,0.00233
4914.32991,0.00195
4913.29965,0.00143
4912.26939,0.00161
4911.23914,0.00220
4910.20888,0.00268
4909.17862,0.00225
4908.14836,0.00106
4907.11810,0.00054
4906.08785,0.00113
4905.05759,0.00185
4904.02733,0.00210
4902.99707,0.00222
4901.96682,0.00201
4900.93656,0.00064
4899.90630,-0.00060
4898.87604,0.00011
4897.84578,0.00150
4896.81553,0.00111
4895.78527,-0.00039
4894.75501,-0.00030
4893.72475,0.00131
4892.69449,0.00235
4891.66424,0.00211
4890.63398,0.00145
4889.60372,0.00150
4888.57346,0.00229
4887.54321,0.00248
4886.51295,0.00185
4885.48269,0.00160
4884.45243,0.00157
4883.42217,0.00135
4882.39192,0.00103
4881.36166,0.00042
4880.33140,0.00035
4879.30114,0.00106
4878.27088,0.00162
4877.24063,0.00182
4876.21037,0.00176
4875.18011,0.00145
4874.14985,0.00134
4873.11960,0.00118
4872.08934,0.00051
4871.05908,-0.00010
4870.02882,0.00002
4868.99856,0.00068
4867.96831,0.00098
4866.93805,0.00062
4865.90779,0.00059
4864.87753,0.00161
4863.84727,0.00282
4862.81702,0.00277
4861.78676,0.00171
4860.75650,0.00102
4859.72624,0.00118
4858.69599,0.00147
4857.66573,0.00087
4856.63547,0.00021
4855.60521,0.00068
4854.57495,0.00108
4853.54470,0.00067
4852.51444,0.00069
4851.48418,0.00165
4850.45392,0.00280
4849.42367,0.00286
4848.39341,0.00183
4847.36315,0.00135
4846.33289,0.00154
4845.30263,0.00161
4844.27238,0.00143
4843.24212,0.00084
4842.21186,0.00039
4841.18160,0.00068
4840.15134,0.00110
4839.12109,0.00146
4838.09083,0.00181
4837.06057,0.00161
4836.03031,0.00160
4835.00006,0.00200
4833.96980,0.00168
4832.93954,0.00079
4831.90928,0.00046
4830.87902,0.00109
4829.84877,0.00181
4828.81851,0.00187
4827.78825,0.00164
4826.75799,0.00131
4825.72773,0.00076
4824.69748,0.00072
4823.66722,0.00147
4822.63696,0.00219
4821.60670,0.00277
4820.57645,0.00287
4819.54619,0.00212
4818.51593,0.00157
4817.48567,0.00114
4816.45541,0.00014
4815.42516,-0.00040
4814.39490,0.00027
4813.36464,0.00117
4812.33438,0.00161
4811.30412,0.00162
4810.27387,0.00125
4809.24361,0.00122
4808.21335,0.00170
4807.18309,0.00140
4806.15284,0.00017
4805.12258,-0.00014
4804.09232,0.00075
4803.06206,0.00139
4802.03180,0.00084
4801.00155,-0.00038
4799.97129,-0.00041
4798.94103,0.00073
4797.91077,0.00137
4796.88052,0.00132
4795.85026,0.00071
4794.82000,0.00005
4793.78974,0.00049
4792.75948,0.00168
4791.72923,0.00256
4790.69897,0.00240
4789.66871,0.00137
4788.63845,0.00062
4787.60819,0.00087
4786.57794,0.00135
4785.54768,0.00098
4784.51742,0.00004
4783.48716,-0.00055
4782.45691,-0.00071
4781.42665,-0.00072
4780.39639,-0.00035
4779.36613,0.00057
4778.33587,0.00156
4777.30562,0.00187
4776.27536,0.00165
4775.24510,0.00157
4774.21484,0.00177
4773.18458,0.00193
4772.15433,0.00173
4771.12407,0.00170
4770.09381,0.00193
4769.06355,0.00176
4768.03330,0.00139
4767.00304,0.00111
4765.97278,0.00082
4764.94252,0.00062
4763.91226,0.00068
4762.88201,0.00091
4761.85175,0.00070
4760.82149,-0.00003
4759.79123,-0.00013
4758.76098,0.00045
4757.73072,0.00086
4756.70046,0.00094
4755.67020,0.00069
4754.63994,0.00040
4753.60969,0.00035
4752.57943,0.00037
4751.54917,0.00057
4750.51891,0.00101
4749.48865,0.00157
4748.45840,0.00204
4747.42814,0.00194
4746.39788,0.00145
4745.36762,0.00116
4744.33737,0.00114
4743.30711,0.00112
4742.27685,0.00115
4741.24659,0.00129
4740.21633,0.00145
4739.18608,0.00156
4738.15582,0.00090
4737.12556,-0.00018
4736.09530,-0.00032
4735.06504,0.00021
4734.03479,0.00036
4733.00453,-0.00004
4731.97427,0.00004
4730.94401,0.00102
4729.91376,0.00123
4728.88350,0.00009
4727.85324,-0.00077
4726.82298,-0.00020
4725.79272,0.00111
4724.76247,0.00173
4723.73221,0.00157
4722.70195,0.00113
4721.67169,0.00079
4720.64143,0.00077
4719.61118,0.00079
4718.58092,0.00109
4717.55066,0.00177
4716.52040,0.00265
4715.49015,0.00355
4714.45989,0.00341
4713.42963,0.00224
4712.39937,0.00140
4711.36911,0.00091
4710.33886,0.00073
4709.30860,0.00099
4708.27834,0.00122
4707.24808,0.00130
4706.21783,0.00132
4705.18757,0.00128
4704.15731,0.00076
4703.12705,-0.00018
4702.09679,-0.00067
4701.06654,-0.00002
4700.03628,0.00115
4699.00602,0.00163
4697.97576,0.00118
4696.94550,0.00040
4695.91525,0.00008
4694.88499,0.00041
4693.85473,0.00048
4692.82447,0.00005
4691.79422,-0.00014
4690.76396,0.00029
4689.73370,0.00093
4688.70344,0.00115
4687.67318,0.00134
4686.64293,0.00127
4685.61267,0.00079
4684.58241,0.00109
4683.55215,0.00161
4682.52189,0.00147
4681.49164,0.00137
4680.46138,0.00148
4679.43112,0.00106
4678.40086,0.00064
4677.37061,0.00126
4676.34035,0.00195
4675.31009,0.00155
4674.27983,0.00083
4673.24957,0.00064
4672.21932,0.00085
4671.18906,0.00127
4670.15880,0.00159
4669.12854,0.00117
4668.09828,0.00064
4667.06803,0.00074
4666.03777,0.00060
4665.00751,0.00031
4663.97725,0.00067
4662.94700,0.00115
4661.91674,0.00113
4660.88648,0.00090
4659.85622,0.00099
4658.82596,0.00153
4657.79571,0.00184
4656.76545,0.00158
4655.73519,0.00141
4654.70493,0.00145
4653.67468,0.00138
4652.64442,0.00151
4651.61416,0.00151
4650.58390,0.00090
4649.55364,0.00049
4648.52339,0.00043
4647.49313,0.00056
4646.46287,0.00082
4645.43261,0.00071
4644.40235,0.00054
4643.37210,0.00089
4642.34184,0.00171
4641.31158,0.00180
4640.28132,0.00120
4639.25107,0.00135
4638.22081,0.00198
4637.19055,0.00223
4636.16029,0.00203
4635.13003,0.00174
4634.09978,0.00185
4633.06952,0.00216
4632.03926,0.00215
4631.00900,0.00221
4629.97874,0.00257
4628.94849,0.00259
4627.91823,0.00229
4626.88797,0.00180
4625.85771,0.00116
4624.82746,0.00083
4623.79720,0.00078
4622.76694,0.00109
4621.73668,0.00191
4620.70642,0.00217
4619.67617,0.00146
4618.64591,0.00071
4617.61565,0.00037
4616.58539,0.00032
4615.55513,0.00038
4614.52488,0.00056
4613.49462,0.00080
4612.46436,0.00094
4611.43410,0.00111
4610.40385,0.00092
4609.37359,0.00031
4608.34333,0.00015
4607.31307,0.00054
4606.28281,0.00121
4605.25256,0.00146
4604.22230,0.00031
4603.19204,-0.00076
4602.16178,-0.00023
4601.13153,0.00099
4600.10127,0.00166
4599.07101,0.00151
4598.04075,0.00133
4597.01049,0.00125
4595.98024,0.00081
4594.94998,0.00050
4593.91972,0.00053
4592.88946,0.00080
4591.85920,0.00134
4590.82895,0.00157
4589.79869,0.00131
4588.76843,0.00122
4587.73817,0.00132
4586.70792,0.00105
4585.67766,0.00034
4584.64740,0.00009
4583.61714,0.00089
4582.58688,0.00187
4581.55663,0.00203
4580.52637,0.00140
4579.49611,0.00065
4578.46585,0.00052
4577.43559,0.00090
4576.40534,0.00147
4575.37508,0.00186
4574.34482,0.00174
4573.31456,0.00148
4572.28431,0.00146
4571.25405,0.00147
4570.22379,0.00110
4569.19353,0.00052
4568.16327,0.00007
4567.13302,-0.00010
4566.10276,0.00018
4565.07250,0.00087
4564.04224,0.00140
4563.01198,0.00101
4561.98173,0.00045
4560.95147,0.00054
4559.92121,0.00080
4558.89095,0.00112
4557.86070,0.00162
4556.83044,0.00192
4555.80018,0.00154
4554.76992,0.00102
4553.73966,0.00100
4552.70941,0.00136
4551.67915,0.00132
4550.64889,0.00039
4549.61863,-0.00018
4548.58838,0.00046
4547.55812,0.00137
4546.52786,0.00195
4545.49760,0.00194
4544.46734,0.00111
4543.43709,0.00003
4542.40683,-0.00073
4541.37657,-0.00093
4540.34631,-0.00049
4539.31605,0.00033
4538.28580,0.00096
4537.25554,0.00102
4536.22528,0.00073
4535.19502,0.00033
4534.16477,0.00063
4533.13451,0.00151
4532.10425,0.00169
4531.07399,0.00145
4530.04373,0.00127
4529.01348,0.00113
4527.98322,0.00118
4526.95296,0.00128
4525.92270,0.00146
4524.89244,0.00204
4523.86219,0.00259
4522.83193,0.00232
4521.80167,0.00192
4520.77141,0.00223
4519.74116,0.00227
4518.71090,0.00147
4517.68064,0.00064
4516.65038,0.00063
4515.62012,0.00140
4514.58987,0.00189
4513.55961,0.00143
4512.52935,0.00044
4511.49909,0.00003
4510.46883,0.00035
4509.43858,0.00038
4508.40832,0.00036
4507.37806,0.00098
4506.34780,0.00140
4505.31755,0.00135
4504.28729,0.00140
4503.25703,0.00112
4502.22677,0.00054
4501.19651,0.00031
4500.16626,0.00022
4499.13600,0.00008
4498.10574,0.00031
4497.07548,0.00095
4496.04523,0.00149
4495.01497,0.00173
4493.98471,0.00169
4492.95445,0.00160
4491.92419,0.00157
4490.89394,0.00130
4489.86368,0.00087
4488.83342,0.00058
4487.80316,0.00058
4486.77290,0.00061
4485.74265,0.00064
4484.71239,0.00090
4483.68213,0.00135
4482.65187,0.00203
4481.62162,0.00241
4480.59136,0.00197
4479.56110,0.00134
4478.53084,0.00108
4477.50058,0.00130
4476.47033,0.00169
4475.44007,0.00174
4474.40981,0.00183
4473.37955,0.00208
4472.34929,0.00196
4471.31904,0.00174
4470.28878,0.00200
4469.25852,0.00246
4468.22826,0.00258
4467.19801,0.00251
4466.16775,0.00260
4465.13749,0.00285
4464.10723,0.00294
4463.07697,0.00246
4462.04672,0.00168
4461.01646,0.00129
4459.98620,0.00108
4458.95594,0.00090
4457.92568,0.00120
4456.89543,0.00148
4455.86517,0.00154
4454.83491,0.00241
4453.80465,0.00365
4452.77440,0.00389
4451.74414,0.00322
4450.71388,0.00216
4449.68362,0.00143
4448.65336,0.00171
4447.62311,0.00229
4446.59285,0.00247
4445.56259,0.00227
4444.53233,0.00194
4443.50208,0.00206
4442.47182,0.00223
4441.44156,0.00200
4440.41130,0.00205
4439.38104,0.00245
4438.35079,0.00263
4437.32053,0.00242
4436.29027,0.00190
4435.26001,0.00142
4434.22975,0.00121
4433.19950,0.00118
4432.16924,0.00111
4431.13898,0.00108
4430.10872,0.00123
4429.07847,0.00153
4428.04821,0.00211
4427.01795,0.00257
4425.98769,0.00244
4424.95743,0.00206
4423.92718,0.00182
4422.89692,0.00174
4421.86666,0.00163
4420.83640,0.00154
4419.80614,0.00193
4418.77589,0.00261
4417.74563,0.00282
4416.71537,0.00272
4415.68511,0.00259
4414.65486,0.00211
4413.62460,0.00165
4412.59434,0.00168
4411.56408,0.00194
4410.53382,0.00183
4409.50357,0.00134
4408.47331,0.00116
4407.44305,0.00107
4406.41279,0.00085
4405.38253,0.00093
4404.35228,0.00097
4403.32202,0.00074
4402.29176,0.00086
4401.26150,0.00111
4400.23125,0.00098
4399.20099,0.00099
4398.17073,0.00146
4397.14047,0.00175
4396.11021,0.00186
4395.07996,0.00218
4394.04970,0.00189
4393.01944,0.00088
4391.98918,0.00032
4390.95893,0.00047
4389.92867,0.00089
4388.89841,0.00147
4387.86815,0.00192
4386.83789,0.00194
4385.80764,0.00181
4384.77738,0.00151
4383.74712,0.00133
4382.71686,0.00138
4381.68660,0.00120
4380.65635,0.00103
4379.62609,0.00111
4378.59583,0.00121
4377.56557,0.00105
4376.53532,0.00061
4375.50506,0.00035
4374.47480,0.00051
4373.44454,0.00061
4372.41428,0.00057
4371.38403,0.00081
4370.35377,0.00118
4369.32351,0.00122
4368.29325,0.00100
4367.26299,0.00079
4366.23274,0.00068
4365.20248,0.00061
4364.17222,0.00065
4363.14196,0.00073
4362.11171,0.00070
4361.08145,0.00080
4360.05119,0.00121
4359.02093,0.00153
4357.99067,0.00129
4356.96042,0.00079
4355.93016,0.00033
4354.89990,0.00010
4353.86964,0.00034
4352.83939,0.00112
4351.80913,0.00179
4350.77887,0.00162
4349.74861,0.00123
4348.71835,0.00099
4347.68810,0.00057
4346.65784,0.00030
4345.62758,0.00051
4344.59732,0.00104
4343.56706,0.00143
4342.53681,0.00150
4341.50655,0.00128
4340.47629,0.00104
4339.44603,0.00096
4338.41578,0.00098
4337.38552,0.00090
4336.35526,0.00074
4335.32500,0.00090
4334.29474,0.00109
4333.26449,0.00071
4332.23423,0.00020
4331.20397,0.00017
4330.17371,0.00063
4329.14345,0.00131
4328.11320,0.00159
4327.08294,0.00119
4326.05268,0.00095
4325.02242,0.00130
4323.99217,0.00159
4322.96191,0.00175
4321.93165,0.00181
4320.90139,0.00151
4319.87113,0.00124
4318.84088,0.00130
4317.81062,0.00133
4316.78036,0.00128
4315.75010,0.00116
4314.71984,0.00083
4313.68959,0.00071
4312.65933,0.00084
4311.62907,0.00075
4310.59881,0.00075
4309.56856,0.00083
4308.53830,0.00077
4307.50804,0.00093
4306.47778,0.00093
4305.44752,0.00057
4304.41727,0.00054
4303.38701,0.00107
4302.35675,0.00178
4301.32649,0.00234
4300.29624,0.00272
4299.26598,0.00274
4298.23572,0.00226
4297.20546,0.00146
4296.17520,0.00090
4295.14495,0.00130
4294.11469,0.00190
4293.08443,0.00186
4292.05417,0.00157
4291.02391,0.00142
4289.99366,0.00157
4288.96340,0.00155
4287.93314,0.00121
4286.90288,0.00123
4285.87263,0.00170
4284.84237,0.00197
4283.81211,0.00181
4282.78185,0.00169
4281.75159,0.00186
4280.72134,0.00204
4279.69108,0.00177
4278.66082,0.00122
4277.63056,0.00116
4276.60030,0.00155
4275.57005,0.00178
4274.53979,0.00167
4273.50953,0.00134
4272.47927,0.00132
4271.44902,0.00186
4270.41876,0.00211
4269.38850,0.00176
4268.35824,0.00167
4267.32798,0.00200
4266.29773,0.00192
4265.26747,0.00129
4264.23721,0.00082
4263.20695,0.00087
4262.17669,0.00140
4261.14644,0.00197
4260.11618,0.00218
4259.08592,0.00200
4258.05566,0.00115
4257.02541,0.00030
4255.99515,0.00082
4254.96489,0.00203
4253.93463,0.00232
4252.90437,0.00206
4251.87412,0.00189
4250.84386,0.00163
4249.81360,0.00141
4248.78334,0.00134
4247.75309,0.00149
4246.72283,0.00168
4245.69257,0.00166
4244.66231,0.00187
4243.63205,0.00203
4242.60180,0.00181
4241.57154,0.00196
4240.54128,0.00234
4239.51102,0.00254
4238.48076,0.00261
4237.45051,0.00224
4236.42025,0.00175
4235.38999,0.00209
4234.35973,0.00300
4233.32948,0.00324
4232.29922,0.00249
4231.26896,0.00175
4230.23870,0.00191
4229.20844,0.00217
4228.17819,0.00166
4227.14793,0.00113
4226.11767,0.00123
4225.08741,0.00161
4224.05715,0.00192
4223.02690,0.00204
4221.99664,0.00215
4220.96638,0.00231
4219.93612,0.00235
4218.90587,0.00242
4217.87561,0.00237
4216.84535,0.00203
4215.81509,0.00171
4214.78483,0.00142
4213.75458,0.00124
4212.72432,0.00130
4211.69406,0.00137
4210.66380,0.00117
4209.63354,0.00095
4208.60329,0.00075
4207.57303,0.00056
4206.54277,0.00083
4205.51251,0.00121
4204.48226,0.00128
4203.45200,0.00148
4202.42174,0.00182
4201.39148,0.00198
4200.36122,0.00181
4199.33097,0.00121
4198.30071,0.00072
4197.27045,0.00099
4196.24019,0.00164
4195.20994,0.00198
4194.17968,0.00185
4193.14942,0.00150
4192.11916,0.00145
4191.08890,0.00178
4190.05865,0.00199
4189.02839,0.00177
4187.99813,0.00151
4186.96787,0.00172
4185.93761,0.00227
4184.90736,0.00248
4183.87710,0.00236
4182.84684,0.00220
4181.81658,0.00164
4180.78633,0.00093
4179.75607,0.00066
4178.72581,0.00087
4177.69555,0.00124
4176.66529,0.00142
4175.63504,0.00152
4174.60478,0.00161
4173.57452,0.00158
4172.54426,0.00148
4171.51400,0.00136
4170.48375,0.00131
4169.45349,0.00107
4168.42323,0.00086
4167.39297,0.00129
4166.36272,0.00176
4165.33246,0.00166
4164.30220,0.00143
4163.27194,0.00162
4162.24168,0.00205
4161.21143,0.00230
4160.18117,0.00255
4159.15091,0.00265
4158.12065,0.00232
4157.09039,0.00200
4156.06014,0.00189
4155.02988,0.00175
4153.99962,0.00179
4152.96936,0.00216
4151.93911,0.00250
4150.90885,0.00245
4149.87859,0.00215
4148.84833,0.00215
4147.81807,0.00258
4146.78782,0.00293
4145.75756,0.00268
4144.72730,0.00219
4143.69704,0.00216
4142.66679,0.00243
4141.63653,0.00265
4140.60627,0.00277
4139.57601,0.00240
4138.54575,0.00188
4137.51550,0.00218
4136.48524,0.00252
4135.45498,0.00204
4134.42472,0.00189
4133.39446,0.00233
4132.36421,0.00247
4131.33395,0.00223
4130.30369,0.00200
4129.27343,0.00197
4128.24318,0.00200
4127.21292,0.00192
4126.18266,0.00175
4125.15240,0.00176
4124.12214,0.00201
4123.09189,0.00202
4122.06163,0.00186
4121.03137,0.00184
4120.00111,0.00170
4118.97085,0.00145
4117.94060,0.00138
4116.91034,0.00145
4115.88008,0.00151
4114.84982,0.00153
4113.81957,0.00158
4112.78931,0.00164
4111.75905,0.00165
4110.72879,0.00150
4109.69853,0.00131
4108.66828,0.00153
4107.63802,0.00205
4106.60776,0.00234
4105.57750,0.00218
4104.54724,0.00200
4103.51699,0.00233
4102.48673,0.00283
4101.45647,0.00262
4100.42621,0.00204
4099.39596,0.00206
4098.36570,0.00246
4097.33544,0.00260
4096.30518,0.00231
4095.27492,0.00189
4094.24467,0.00165
4093.21441,0.00150
4092.18415,0.00132
4091.15389,0.00128
4090.12364,0.00153
4089.09338,0.00193
4088.06312,0.00215
4087.03286,0.00192
4086.00260,0.00171
4084.97235,0.00202
4083.94209,0.00228
4082.91183,0.00217
4081.88157,0.00193
4080.85131,0.00176
4079.82106,0.00172
4078.79080,0.00171
4077.76054,0.00159
4076.73028,0.00119
4075.70003,0.00113
4074.66977,0.00173
4073.63951,0.00206
4072.60925,0.00182
4071.57899,0.00167
4070.54874,0.00207
4069.51848,0.00248
4068.48822,0.00238
4067.45796,0.00232
4066.42770,0.00221
4065.39745,0.00176
4064.36719,0.00160
4063.33693,0.00166
4062.30667,0.00176
4061.27642,0.00202
4060.24616,0.00175
4059.21590,0.00126
4058.18564,0.00120
4057.15538,0.00103
4056.12513,0.00091
4055.09487,0.00139
4054.06461,0.00208
4053.03435,0.00236
4052.00409,0.00222
4050.97384,0.00223
4049.94358,0.00258
4048.91332,0.00265
4047.88306,0.00239
4046.85281,0.00235
4045.82255,0.00224
4044.79229,0.00196
4043.76203,0.00178
4042.73177,0.00166
4041.70152,0.00188
4040.67126,0.00216
4039.64100,0.00200
4038.61074,0.00179
4037.58049,0.00174
4036.55023,0.00164
4035.51997,0.00145
4034.48971,0.00118
4033.45945,0.00103
4032.42920,0.00136
4031.39894,0.00195
4030.36868,0.00229
4029.33842,0.00225
4028.30816,0.00220
4027.27791,0.00239
4026.24765,0.00248
4025.21739,0.00225
4024.18713,0.00197
4023.15688,0.00182
4022.12662,0.00177
4021.09636,0.00194
4020.06610,0.00237
4019.03584,0.00238
4018.00559,0.00156
4016.97533,0.00085
4015.94507,0.00099
4014.91481,0.00153
4013.88455,0.00204
4012.85430,0.00239
4011.82404,0.00245
4010.79378,0.00243
4009.76352,0.00260
4008.73327,0.00282
4007.70301,0.00245
4006.67275,0.00151
4005.64249,0.00115
4004.61223,0.00176
4003.58198,0.00242
4002.55172,0.00244
4001.52146,0.00213
4000.49120,0.00203
3999.46095,0.00198
3998.43069,0.00192
3997.40043,0.00187
3996.37017,0.00166
3995.33991,0.00159
3994.30966,0.00173
3993.27940,0.00154
3992.24914,0.00111
3991.21888,0.00103
3990.18862,0.00132
3989.15837,0.00166
3988.12811,0.00184
3987.09785,0.00192
3986.06759,0.00211
3985.03734,0.00233
3984.00708,0.00245
3982.97682,0.00239
3981.94656,0.00228
3980.91630,0.00254
3979.88605,0.00293
3978.85579,0.00299
3977.82553,0.00287
3976.79527,0.00283
3975.76501,0.00284
3974.73476,0.00264
3973.70450,0.00229
3972.67424,0.00216
3971.64398,0.00235
3970.61373,0.00259
3969.58347,0.00270
3968.55321,0.00230
3967.52295,0.00162
3966.49269,0.00133
3965.46244,0.00135
3964.43218,0.00151
3963.40192,0.00175
3962.37166,0.00194
3961.34140,0.00202
3960.31115,0.00217
3959.28089,0.00223
3958.25063,0.00184
3957.22037,0.00162
3956.19012,0.00215
3955.15986,0.00253
3954.12960,0.00207
3953.09934,0.00133
3952.06908,0.00109
3951.03883,0.00130
3950.00857,0.00151
3948.97831,0.00160
3947.94805,0.00181
3946.91780,0.00224
3945.88754,0.00252
3944.85728,0.00234
3943.82702,0.00196
3942.79676,0.00188
3941.76651,0.00210
3940.73625,0.00219
3939.70599,0.00236
3938.67573,0.00253
3937.64547,0.00206
3936.61522,0.00143
3935.58496,0.00139
3934.55470,0.00135
3933.52444,0.00114
3932.49419,0.00117
3931.46393,0.00158
3930.43367,0.00228
3929.40341,0.00245
3928.37315,0.00178
3927.34290,0.00124
3926.31264,0.00122
3925.28238,0.00123
3924.25212,0.00128
3923.22186,0.00153
3922.19161,0.00159
3921.16135,0.00135
3920.13109,0.00096
3919.10083,0.00070
3918.07058,0.00094
3917.04032,0.00141
3916.01006,0.00148
3914.97980,0.00136
3913.94954,0.00164
3912.91929,0.00209
3911.88903,0.00228
3910.85877,0.00217
3909.82851,0.00176
3908.79825,0.00119
3907.76800,0.00083
3906.73774,0.00111
3905.70748,0.00188
3904.67722,0.00225
3903.64697,0.00188
3902.61671,0.00163
3901.58645,0.00187
3900.55619,0.00206
3899.52593,0.00194
3898.49568,0.00168
3897.46542,0.00143
3896.43516,0.00139
3895.40490,0.00169
3894.37465,0.00206
3893.34439,0.00235
3892.31413,0.00249
3891.28387,0.00223
3890.25361,0.00198
3889.22336,0.00190
3888.19310,0.00160
3887.16284,0.00115
3886.13258,0.00059
3885.10232,0.00042
3884.07207,0.00099
3883.04181,0.00142
3882.01155,0.00153
3880.98129,0.00191
3879.95104,0.00255
3878.92078,0.00264
3877.89052,0.00208
3876.86026,0.00169
3875.83000,0.00152
3874.79975,0.00114
3873.76949,0.00115
3872.73923,0.00187
3871.70897,0.00279
3870.67871,0.00345
3869.64846,0.00327
3868.61820,0.00265
3867.58794,0.00216
3866.55768,0.00176
3865.52743,0.00141
3864.49717,0.00121
3863.46691,0.00137
3862.43665,0.00148
3861.40639,0.00146
3860.37614,0.00148
3859.34588,0.00154
3858.31562,0.00194
3857.28536,0.00244
3856.25510,0.00247
3855.22485,0.00247
3854.19459,0.00250
3853.16433,0.00189
3852.13407,0.00133
3851.10382,0.00111
3850.07356,0.00117
3849.04330,0.00130
3848.01304,0.00136
3846.98278,0.00148
3845.95253,0.00182
3844.92227,0.00215
3843.89201,0.00195
3842.86175,0.00145
3841.83150,0.00131
3840.80124,0.00157
3839.77098,0.00180
3838.74072,0.00201
3837.71046,0.00242
3836.68021,0.00266
3835.64995,0.00261
3834.61969,0.00229
3833.58943,0.00213
3832.55917,0.00240
3831.52892,0.00256
3830.49866,0.00228
3829.46840,0.00200
3828.43814,0.00199
3827.40789,0.00207
3826.37763,0.00204
3825.34737,0.00219
3824.31711,0.00247
3823.28685,0.00225
3822.25660,0.00172
3821.22634,0.00153
3820.19608,0.00168
3819.16582,0.00172
3818.13556,0.00166
3817.10531,0.00158
3816.07505,0.00115
3815.04479,0.00063
3814.01453,0.00095
3812.98428,0.00195
3811.95402,0.00289
3810.92376,0.00324
3809.89350,0.00292
3808.86324,0.00210
3807.83299,0.00133
3806.80273,0.00111
3805.77247,0.00150
3804.74221,0.00221
3803.71195,0.00277
3802.68170,0.00260
3801.65144,0.00197
3800.62118,0.00188
3799.59092,0.00213
3798.56067,0.00227
3797.53041,0.00232
3796.50015,0.00228
3795.46989,0.00253
3794.43963,0.00271
3793.40938,0.00244
3792.37912,0.00244
3791.34886,0.00285
3790.31860,0.00295
3789.28835,0.00272
3788.25809,0.00236
3787.22783,0.00190
3786.19757,0.00179
3785.16731,0.00201
3784.13706,0.00221
3783.10680,0.00227
3782.07654,0.00225
3781.04628,0.00248
3780.01602,0.00287
3778.98577,0.00297
3777.95551,0.00287
3776.92525,0.00289
3775.89499,0.00277
3774.86474,0.00233
3773.83448,0.00186
3772.80422,0.00173
3771.77396,0.00202
3770.74370,0.00251
3769.71345,0.00282
3768.68319,0.00280
3767.65293,0.00275
3766.62267,0.00274
3765.59241,0.00244
3764.56216,0.00207
3763.53190,0.00213
3762.50164,0.00233
3761.47138,0.00223
3760.44113,0.00181
3759.41087,0.00173
3758.38061,0.00253
3757.35035,0.00313
3756.32009,0.00299
3755.28984,0.00284
3754.25958,0.00297
3753.22932,0.00341
3752.19906,0.00401
3751.16880,0.00366
3750.13855,0.00296
3749.10829,0.00312
3748.07803,0.00366
3747.04777,0.00384
3746.01752,0.00407
3744.98726,0.00389
3743.95700,0.00236
3742.92674,0.00229
3741.89648,0.00321
3740.86623,0.00362
3739.83597,0.00325
3738.80571,0.00268
3737.77545,0.00278
3736.74520,0.00332
3735.71494,0.00340
3734.68468,0.00360
3733.65442,0.00422
3732.62416,0.00426
3731.59391,0.00385
3730.56365,0.00408
3729.53339,0.00448
3728.50313,0.00439
3727.47287,0.00396
3726.44262,0.00374
3725.41236,0.00398
3724.38210,0.00438
3723.35184,0.00457
3722.32159,0.00434
3721.29133,0.00402
3720.26107,0.00406
3719.23081,0.00427
3718.20055,0.00438
3717.17030,0.00448
3716.14004,0.00462
3715.10978,0.00450
3714.07952,0.00430
3713.04926,0.00440
3712.01901,0.00466
3710.98875,0.00473
3709.95849,0.00450
3708.92823,0.00461
3707.89798,0.00508
3706.86772,0.00519
3705.83746,0.00523
3704.80720,0.00555
3703.77694,0.00571
3702.74669,0.00581
3701.71643,0.00621
3700.68617,0.00621
3699.65591,0.00578
3698.62565,0.00604
3697.59540,0.00691
3696.56514,0.00721
3695.53488,0.00656
3694.50462,0.00577
3693.47437,0.00562
3692.44411,0.00623
3691.41385,0.00701
3690.38359,0.00766
3689.35333,0.00826
3688.32308,0.00838
3687.29282,0.00817
3686.26256,0.00783
3685.23230,0.00753
3684.20205,0.00790
3683.17179,0.00868
3682.14153,0.00922
3681.11127,0.00943
3680.08101,0.00949
3679.05076,0.00967
3678.02050,0.01012
3676.99024,0.01064
3675.95998,0.01097
3674.92972,0.01131
3673.89947,0.01181
3672.86921,0.01211
3671.83895,0.01247
3670.80869,0.01277
3669.77844,0.01252
3668.74818,0.01250
3667.71792,0.01279
3666.68766,0.01279
3665.65740,0.01317
3664.62715,0.01458
3663.59689,0.01594
3662.56663,0.01650
3661.53637,0.01685
3660.50611,0.01714
3659.47586,0.01733
3658.44560,0.01766
3657.41534,0.01799
3656.38508,0.01829
3655.35483,0.01881
3654.32457,0.01973
3653.29431,0.02106
3652.26405,0.02184
3651.23379,0.02174
3650.20354,0.02211
3649.17328,0.02285
3648.14302,0.02272
3647.11276,0.02242
3646.08250,0.02322
3645.05225,0.02456
3644.02199,0.02528
3642.99173,0.02581
3641.96147,0.02672
3640.93122,0.02730
3639.90096,0.02749
3638.87070,0.02769
3637.84044,0.02826
3636.81018,0.02937
3635.77993,0.03043
3634.74967,0.03102
3633.71941,0.03115
3632.68915,0.03135
3631.65890,0.03206
3630.62864,0.03277
3629.59838,0.03311
3628.56812,0.03316
3627.53786,0.03329
3626.50761,0.03395
3625.47735,0.03495
3624.44709,0.03591
3623.41683,0.03661
3622.38657,0.03723
3621.35632,0.03791
3620.32606,0.03834
3619.29580,0.03874
3618.26554,0.03959
3617.23529,0.04018
3616.20503,0.04031
3615.17477,0.04058
3614.14451,0.04101
3613.11425,0.04128
3612.08400,0.04154
3611.05374,0.04245
3610.02348,0.04423
3608.99322,0.04587
3607.96296,0.04640
3606.93271,0.04660
3605.90245,0.04692
3604.87219,0.04737
3603.84193,0.04811
3602.81168,0.04865
3601.78142,0.04882
3600.75116,0.04923
3599.72090,0.04992
3598.69064,0.05033
3597.66039,0.05065
3596.63013,0.05147
3595.59987,0.05262
3594.56961,0.05352
3593.53936,0.05425
3592.50910,0.05538
3591.47884,0.05647
3590.44858,0.05696
3589.41832,0.05723
3588.38807,0.05757
3587.35781,0.05798
3586.32755,0.05864
3585.29729,0.05945
3584.26703,0.06023
3583.23678,0.06112
3582.20652,0.06207
3581.17626,0.06271
3580.14600,0.06333
3579.11575,0.06427
3578.08549,0.06499
3577.05523,0.06544
3576.02497,0.06620
3574.99471,0.06716
3573.96446,0.06782
3572.93420,0.06833
3571.90394,0.06917
3570.87368,0.07063
3569.84342,0.07209
3568.81317,0.07280
3567.78291,0.07313
3566.75265,0.07378
3565.72239,0.07504
3564.69214,0.07665
3563.66188,0.07807
3562.63162,0.07903
3561.60136,0.07935
3560.57110,0.07958
3559.54085,0.08037
3558.51059,0.08147
3557.48033,0.08252
3556.45007,0.08338
3555.41981,0.08394
3554.38956,0.08419
3553.35930,0.08476
3552.32904,0.08581
3551.29878,0.08679
3550.26853,0.08766
3549.23827,0.08889
3548.20801,0.09072
3547.17775,0.09242
3546.14749,0.09335
3545.11724,0.09401
3544.08698,0.09472
3543.05672,0.09533
3542.02646,0.09613
3540.99621,0.09739
3539.96595,0.09883
3538.93569,0.09985
3537.90543,0.10046
3536.87517,0.10142
3535.84492,0.10263
3534.81466,0.10325
3533.78440,0.10374
3532.75414,0.10480
3531.72388,0.10586
3530.69363,0.10672
3529.66337,0.10777
3528.63311,0.10899
3527.60285,0.11033
3526.57260,0.11177
3525.54234,0.11299
3524.51208,0.11376
3523.48182,0.11448
3522.45156,0.11553
3521.42131,0.11684
3520.39105,0.11799
3519.36079,0.11860
3518.33053,0.11908
3517.30027,0.12004
3516.27002,0.12132
3515.23976,0.12274
3514.20950,0.12401
3513.17924,0.12501
3512.14899,0.12604
3511.11873,0.12722
3510.08847,0.12870
3509.05821,0.13007
3508.02795,0.13072
3506.99770,0.13128
3505.96744,0.13220
3504.93718,0.13332
3503.90692,0.13460
3502.87666,0.13566
3501.84641,0.13647
3500.81615,0.13757
3499.78589,0.13862
3498.75563,0.13921
3497.72538,0.13997
3496.69512,0.14149
3495.66486,0.14309
3494.63460,0.14418
3493.60434,0.14508
3492.57409,0.14616
3491.54383,0.14732
3490.51357,0.14826
3489.48331,0.14934
3488.45306,0.15029
3487.42280,0.15052
3486.39254,0.15101
3485.36228,0.15258
3484.33202,0.15441
3483.30177,0.15531
3482.27151,0.15542
3481.24125,0.15603
3480.21099,0.15741
3479.18073,0.15876
3478.15048,0.15974
3477.12022,0.16077
3476.08996,0.16189
3475.05970,0.16287
3474.02945,0.16384
3472.99919,0.16492
3471.96893,0.16595
3470.93867,0.16678
3469.90841,0.16753
3468.87816,0.16840
3467.84790,0.16938
3466.81764,0.17053
3465.78738,0.17180
3464.75712,0.17284
3463.72687,0.17372
3462.69661,0.17467
3461.66635,0.17569
3460.63609,0.17679
3459.60584,0.17765
3458.57558,0.17860
3457.54532,0.18025
3456.51506,0.18139
3455.48480,0.18157
3454.45455,0.18244
3453.42429,0.18428
3452.39403,0.18611
3451.36377,0.18727
3450.33351,0.18752
3449.30326,0.18783
3448.27300,0.18891
3447.24274,0.18995
3446.21248,0.19047
3445.18223,0.19115
3444.15197,0.19233
3443.12171,0.19350
3442.09145,0.19428
3441.06119,0.19486
3440.03094,0.19561
3439.00068,0.19680
3437.97042,0.19802
3436.94016,0.19917
3435.90991,0.20034
3434.87965,0.20074
3433.84939,0.20065
3432.81913,0.20150
3431.78887,0.20332
3430.75862,0.20488
3429.72836,0.20601
3428.69810,0.20709
3427.66784,0.20820
3426.63758,0.20969
3425.60733,0.21142
3424.57707,0.21277
3423.54681,0.21347
3422.51655,0.21389
3421.48630,0.21448
3420.45604,0.21524
3419.42578,0.21583
3418.39552,0.21657
3417.36526,0.21772
3416.33501,0.21885
3415.30475,0.21989
3414.27449,0.22097
3413.24423,0.22179
3412.21397,0.22239
3411.18372,0.22312
3410.15346,0.22387
3409.12320,0.22433
3408.09294,0.22490
3407.06269,0.22602
3406.03243,0.22724
3405.00217,0.22819
3403.97191,0.22903
3402.94165,0.22945
3401.91140,0.22925
3400.88114,0.22925
3399.85088,0.23004
3398.82062,0.23131
3397.79036,0.23275
3396.76011,0.23372
3395.72985,0.23405
3394.69959,0.23442
3393.66933,0.23504
3392.63908,0.23564
3391.60882,0.23631
3390.57856,0.23725
3389.54830,0.23845
3388.51804,0.23970
3387.48779,0.24056
3386.45753,0.24103
3385.42727,0.24146
3384.39701,0.24216
3383.36676,0.24288
3382.33650,0.24311
3381.30624,0.24320
3380.27598,0.24400
3379.24572,0.24529
3378.21547,0.24564
3377.18521,0.24525
3376.15495,0.24564
3375.12469,0.24693
3374.09443,0.24809
3373.06418,0.24838
3372.03392,0.24829
3371.00366,0.24847
3369.97340,0.24873
3368.94315,0.24891
3367.91289,0.24914
3366.88263,0.24962
3365.85237,0.25056
3364.82211,0.25146
3363.79186,0.25187
3362.76160,0.25234
3361.73134,0.25270
3360.70108,0.25267
3359.67082,0.25299
3358.64057,0.25380
3357.61031,0.25458
3356.58005,0.25481
3355.54979,0.25452
3354.51954,0.25420
3353.48928,0.25420
3352.45902,0.25468
3351.42876,0.25526
3350.39850,0.25602
3349.36825,0.25705
3348.33799,0.25772
3347.30773,0.25771
3346.27747,0.25736
3345.24721,0.25716
3344.21696,0.25731
3343.18670,0.25792
3342.15644,0.25865
3341.12618,0.25910
3340.09593,0.25954
3339.06567,0.25987
3338.03541,0.25971
3337.00515,0.25935
3335.97489,0.25925
3334.94464,0.25929
3333.91438,0.25930
3332.88412,0.25950
3331.85386,0.25985
3330.82361,0.26012
3329.79335,0.26038
3328.76309,0.26071
3327.73283,0.26086
3326.70257,0.26084
3325.67232,0.26100
3324.64206,0.26131
3323.61180,0.26166
3322.58154,0.26177
3321.55128,0.26157
3320.52103,0.26149
3319.49077,0.26152
3318.46051,0.26159
3317.43025,0.26184
3316.40000,0.26233
3315.36974,0.26280
3314.33948,0.26313
3313.30922,0.26371
3312.27896,0.26406
3311.24871,0.26369
3310.21845,0.26344
3309.18819,0.26382
3308.15793,0.26440
3307.12767,0.26454
3306.09742,0.26423
3305.06716,0.26406
3304.03690,0.26427
3303.00664,0.26473
3301.97639,0.26490
3300.94613,0.26482
3299.91587,0.26514
3298.88561,0.26564
3297.85535,0.26602
3296.82510,0.26658
3295.79484,0.26746
3294.76458,0.26799
3293.73432,0.26739
3292.70406,0.26656
3291.67381,0.26670
3290.64355,0.26723
3289.61329,0.26756
3288.58303,0.26804
3287.55278,0.26874
3286.52252,0.26934
3285.49226,0.26953
3284.46200,0.26938
3283.43174,0.26941
3282.40149,0.26998
3281.37123,0.27069
3280.34097,0.27110
3279.31071,0.27129
3278.28046,0.27126
3277.25020,0.27094
3276.21994,0.27089
3275.18968,0.27136
3274.15942,0.27157
3273.12917,0.27124
3272.09891,0.27100
3271.06865,0.27112
3270.03839,0.27148
3269.00813,0.27173
3267.97788,0.27171
3266.94762,0.27184
3265.91736,0.27234
3264.88710,0.27282
3263.85685,0.27282
3262.82659,0.27295
3261.79633,0.27333
3260.76607,0.27345
3259.73581,0.27390
3258.70556,0.27478
3257.67530,0.27519
3256.64504,0.27477
3255.61478,0.27428
3254.58452,0.27456
3253.55427,0.27501
3252.52401,0.27485
3251.49375,0.27461
3250.46349,0.27467
3249.43324,0.27455
3248.40298,0.27401
3247.37272,0.27349
3246.34246,0.27379
3245.31220,0.27451
3244.28195,0.27443
3243.25169,0.27406
3242.22143,0.27445
3241.19117,0.27495
3240.16092,0.27495
3239.13066,0.27514
3238.10040,0.27553
3237.07014,0.27532
3236.03988,0.27447
3235.00963,0.27347
3233.97937,0.27306
3232.94911,0.27314
3231.91885,0.27289
3230.88859,0.27281
3229.85834,0.27349
3228.82808,0.27414
3227.79782,0.27429
3226.76756,0.27445
3225.73731,0.27458
3224.70705,0.27414
3223.67679,0.27332
3222.64653,0.27332
3221.61627,0.27408
3220.58602,0.27417
3219.55576,0.27368
3218.52550,0.27287
3217.49524,0.27183
3216.46498,0.27145
3215.43473,0.27159
3214.40447,0.27127
3213.37421,0.27080
3212.34395,0.27086
3211.31370,0.27095
3210.28344,0.27027
3209.25318,0.26943
3208.22292,0.26952
3207.19266,0.26980
3206.16241,0.26958
3205.13215,0.26957
3204.10189,0.26980
3203.07163,0.26934
3202.04137,0.26854
3201.01112,0.26845
3199.98086,0.26858
3198.95060,0.26804
3197.92034,0.26685
3196.89009,0.26561
3195.85983,0.26509
3194.82957,0.26513
3193.79931,0.26482
3192.76905,0.26452
3191.73880,0.26448
3190.70854,0.26390
3189.67828,0.26321
3188.64802,0.26280
3187.61777,0.26206
3186.58751,0.26156
3185.55725,0.26203
3184.52699,0.26247
3183.49673,0.26201
3182.46648,0.26105
3181.43622,0.26066
3180.40596,0.26069
3179.37570,0.26021
3178.34544,0.25953
3177.31519,0.25888
3176.28493,0.25812
3175.25467,0.25761
3174.22441,0.25749
3173.19416,0.25760
3172.16390,0.25719
3171.13364,0.25589
3170.10338,0.25462
3169.07312,0.25396
3168.04287,0.25369
3167.01261,0.25361
3165.98235,0.25335
3164.95209,0.25295
3163.92183,0.25290
3162.89158,0.25265
3161.86132,0.25203
3160.83106,0.25181
3159.80080,0.25177
3158.77055,0.25102
3157.74029,0.24969
3156.71003,0.24868
3155.67977,0.24820
3154.64951,0.24773
3153.61926,0.24714
3152.58900,0.24705
3151.55874,0.24721
3150.52848,0.24680
3149.49822,0.24608
3148.46797,0.24536
3147.43771,0.24446
3146.40745,0.24388
3145.37719,0.24359
3144.34694,0.24296
3143.31668,0.24241
3142.28642,0.24213
3141.25616,0.24174
3140.22590,0.24142
3139.19565,0.24125
3138.16539,0.24080
3137.13513,0.24011
3136.10487,0.23981
3135.07462,0.23971
3134.04436,0.23916
3133.01410,0.23831
3131.98384,0.23749
3130.95358,0.23663
3129.92333,0.23582
3128.89307,0.23514
3127.86281,0.23472
3126.83255,0.23464
3125.80229,0.23430
3124.77204,0.23334
3123.74178,0.23232
3122.71152,0.23160
3121.68126,0.23093
3120.65101,0.23030
3119.62075,0.22966
3118.59049,0.22879
3117.56023,0.22789
3116.52997,0.22737
3115.49972,0.22716
3114.46946,0.22689
3113.43920,0.22650
3112.40894,0.22602
3111.37868,0.22534
3110.34843,0.22466
3109.31817,0.22435
3108.28791,0.22412
3107.25765,0.22347
3106.22740,0.22258
3105.19714,0.22181
3104.16688,0.22110
3103.13662,0.22036
3102.10636,0.21980
3101.07611,0.21954
3100.04585,0.21939
3099.01559,0.21894
3097.98533,0.21808
3096.95507,0.21731
3095.92482,0.21699
3094.89456,0.21701
3093.86430,0.21667
3092.83404,0.21558
3091.80379,0.21447
3090.77353,0.21339
3089.74327,0.21220
3088.71301,0.21156
3087.68275,0.21128
3086.65250,0.21069
3085.62224,0.20993
3084.59198,0.20924
3083.56172,0.20851
3082.53147,0.20781
3081.50121,0.20733
3080.47095,0.20713
3079.44069,0.20662
3078.41043,0.20579
3077.38018,0.20543
3076.34992,0.20531
3075.31966,0.20517
3074.28940,0.20483
3073.25914,0.20385
3072.22889,0.20274
3071.19863,0.20203
3070.16837,0.20180
3069.13811,0.20157
3068.10786,0.20069
3067.07760,0.19960
3066.04734,0.19905
3065.01708,0.19893
3063.98682,0.19864
3062.95657,0.19798
3061.92631,0.19708
3060.89605,0.19623
3059.86579,0.19566
3058.83553,0.19500
3057.80528,0.19417
3056.77502,0.19387
3055.74476,0.19398
3054.71450,0.19351
3053.68425,0.19241
3052.65399,0.19158
3051.62373,0.19117
3050.59347,0.19060
3049.56321,0.18995
3048.53296,0.18950
3047.50270,0.18944
3046.47244,0.18966
3045.44218,0.18978
3044.41192,0.18957
3043.38167,0.18902
3042.35141,0.18830
3041.32115,0.18754
3040.29089,0.18707
3039.26064,0.18692
3038.23038,0.18670
3037.20012,0.18635
3036.16986,0.18583
3035.13960,0.18531
3034.10935,0.18540
3033.07909,0.18566
3032.04883,0.18519
3031.01857,0.18444
3029.98832,0.18391
3028.95806,0.18348
3027.92780,0.18313
3026.89754,0.18260
3025.86728,0.18179
3024.83703,0.18076
3023.80677,0.17973
3022.77651,0.17893
3021.74625,0.17806
3020.71599,0.17692
3019.68574,0.17583
3018.65548,0.17514
3017.62522,0.17466
3016.59496,0.17398
3015.56471,0.17316
3014.53445,0.17228
3013.50419,0.17112
3012.47393,0.16989
3011.44367,0.16907
3010.41342,0.16848
3009.38316,0.16799
3008.35290,0.16745
3007.32264,0.16653
3006.29238,0.16572
3005.26213,0.16534
3004.23187,0.16490
3003.20161,0.16413
3002.17135,0.16311
3001.14110,0.16223
3000.11084,0.16175
2999.08058,0.16142
2998.05032,0.16066
2997.02006,0.15927
2995.98981,0.15786
2994.95955,0.15685
2993.92929,0.15622
2992.89903,0.15589
2991.86877,0.15532
2990.83852,0.15454
2989.80826,0.15407
2988.77800,0.15365
2987.74774,0.15295
2986.71749,0.15236
2985.68723,0.15200
2984.65697,0.15158
2983.62671,0.15104
2982.59645,0.15008
2981.56620,0.14876
2980.53594,0.14790
2979.50568,0.14764
2978.47542,0.14754
2977.44517,0.14750
2976.41491,0.14740
2975.38465,0.14729
2974.35439,0.14718
2973.32413,0.14687
2972.29388,0.14671
2971.26362,0.14678
2970.23336,0.14659
2969.20310,0.14638
2968.17284,0.14659
2967.14259,0.14676
2966.11233,0.14649
2965.08207,0.14631
2964.05181,0.14657
2963.02156,0.14661
2961.99130,0.14601
2960.96104,0.14513
2959.93078,0.14426
2958.90052,0.14364
2957.87027,0.14321
2956.84001,0.14242
2955.80975,0.14107
2954.77949,0.13956
2953.74923,0.13834
2952.71898,0.13748
2951.68872,0.13673
2950.65846,0.13581
2949.62820,0.13475
2948.59795,0.13368
2947.56769,0.13255
2946.53743,0.13125
2945.50717,0.13022
2944.47691,0.12978
2943.44666,0.12930
2942.41640,0.12841
2941.38614,0.12731
2940.35588,0.12616
2939.32562,0.12525
2938.29537,0.12462
2937.26511,0.12381
2936.23485,0.12294
2935.20459,0.12231
2934.17434,0.12160
2933.14408,0.12079
2932.11382,0.12018
2931.08356,0.11993
2930.05330,0.11971
2929.02305,0.11918
2927.99279,0.11845
2926.96253,0.11756
2925.93227,0.11671
2924.90202,0.11624
2923.87176,0.11588
2922.84150,0.11531
2921.81124,0.11471
2920.78098,0.11419
2919.75073,0.11357
2918.72047,0.11269
2917.69021,0.11164
2916.65995,0.11088
2915.62969,0.11076
2914.59944,0.11073
2913.56918,0.11014
2912.53892,0.10921
2911.50866,0.10818
2910.47841,0.10738
2909.44815,0.10695
2908.41789,0.10646
2907.38763,0.10579
2906.35737,0.10523
2905.32712,0.10485
2904.29686,0.10441
2903.26660,0.10383
2902.23634,0.10328
2901.20608,0.10258
2900.17583,0.10144
2899.14557,0.10034
2898.11531,0.09991
2897.08505,0.10005
2896.05480,0.10009
2895.02454,0.09957
2893.99428,0.09869
2892.96402,0.09802
2891.93376,0.09744
2890.90351,0.09694
2889.87325,0.09669
2888.84299,0.09604
2887.81273,0.09484
2886.78247,0.09396
2885.75222,0.09370
2884.72196,0.09349
2883.69170,0.09320
2882.66144,0.09281
2881.63119,0.09224
2880.60093,0.09166
2879.57067,0.09095
2878.54041,0.09022
2877.51015,0.08958
2876.47990,0.08899
2875.44964,0.08867
2874.41938,0.08843
2873.38912,0.08794
2872.35887,0.08751
2871.32861,0.08726
2870.29835,0.08681
2869.26809,0.08611
2868.23783,0.08550
2867.20758,0.08523
2866.17732,0.08501
2865.14706,0.08432
2864.11680,0.08348
2863.08654,0.08282
2862.05629,0.08223
2861.02603,0.08183
2859.99577,0.08171
2858.96551,0.08169
2857.93526,0.08129
2856.90500,0.08050
2855.87474,0.07986
2854.84448,0.07945
2853.81422,0.07904
2852.78397,0.07828
2851.75371,0.07722
2850.72345,0.07637
2849.69319,0.07601
2848.66293,0.07606
2847.63268,0.07606
2846.60242,0.07545
2845.57216,0.07470
2844.54190,0.07437
2843.51165,0.07411
2842.48139,0.07350
2841.45113,0.07273
2840.42087,0.07215
2839.39061,0.07181
2838.36036,0.07149
2837.33010,0.07093
2836.29984,0.07030
2835.26958,0.06985
2834.23933,0.06938
2833.20907,0.06904
2832.17881,0.06907
2831.14855,0.06911
2830.11829,0.06888
2829.08804,0.06835
2828.05778,0.06761
2827.02752,0.06685
2825.99726,0.06649
2824.96700,0.06644
2823.93675,0.06587
2822.90649,0.06502
2821.87623,0.06468
2820.84597,0.06448
2819.81572,0.06406
2818.78546,0.06357
2817.75520,0.06312
2816.72494,0.06268
2815.69468,0.06219
2814.66443,0.06176
2813.63417,0.06144
2812.60391,0.06116
2811.57365,0.06077
2810.54339,0.06029
2809.51314,0.05988
2808.48288,0.05954
2807.45262,0.05933
2806.42236,0.05917
2805.39211,0.05896
2804.36185,0.05882
2803.33159,0.05871
2802.30133,0.05833
2801.27107,0.05776
2800.24082,0.05727
2799.21056,0.05680
2798.18030,0.05641
2797.15004,0.05601
2796.11978,0.05572
2795.08953,0.05587
2794.05927,0.05591
2793.02901,0.05541
2791.99875,0.05487
2790.96850,0.05448
2789.93824,0.05417
2788.90798,0.05401
2787.87772,0.05373
2786.84746,0.05326
2785.81721,0.05287
2784.78695,0.05240
2783.75669,0.05172
2782.72643,0.05124
2781.69618,0.05106
2780.66592,0.05086
2779.63566,0.05050
2778.60540,0.05032
2777.57514,0.05040
2776.54489,0.05015
2775.51463,0.04938
2774.48437,0.04856
2773.45411,0.04812
2772.42385,0.04802
2771.39360,0.04777
2770.36334,0.04731
2769.33308,0.04713
2768.30282,0.04711
2767.27257,0.04695
2766.24231,0.04673
2765.21205,0.04647
2764.18179,0.04611
2763.15153,0.04569
2762.12128,0.04539
2761.09102,0.04507
2760.06076,0.04455
2759.03050,0.04408
2758.00024,0.04380
2756.96999,0.04357
2755.93973,0.04335
2754.90947,0.04316
2753.87921,0.04305
2752.84896,0.04299
2751.81870,0.04269
2750.78844,0.04223
2749.75818,0.04197
2748.72792,0.04184
2747.69767,0.04161
2746.66741,0.04140
2745.63715,0.04118
2744.60689,0.04083
2743.57663,0.04059
2742.54638,0.04043
2741.51612,0.04016
2740.48586,0.04002
2739.45560,0.03990
2738.42535,0.03944
2737.39509,0.03885
2736.36483,0.03850
2735.33457,0.03843
2734.30431,0.03845
2733.27406,0.03844
2732.24380,0.03829
2731.21354,0.03778
2730.18328,0.03719
2729.15303,0.03709
2728.12277,0.03734
2727.09251,0.03738
2726.06225,0.03712
2725.03199,0.03681
2724.00174,0.03658
2722.97148,0.03643
2721.94122,0.03619
2720.91096,0.03594
2719.88070,0.03574
2718.85045,0.03541
2717.82019,0.03522
2716.78993,0.03526
2715.75967,0.03491
2714.72942,0.03440
2713.69916,0.03419
2712.66890,0.03398
2711.63864,0.03387
2710.60838,0.03405
2709.57813,0.03415
2708.54787,0.03405
2707.51761,0.03384
2706.48735,0.03345
2705.45709,0.03313
2704.42684,0.03299
2703.39658,0.03276
2702.36632,0.03259
2701.33606,0.03259
2700.30581,0.03263
2699.27555,0.03260
2698.24529,0.03225
2697.21503,0.03156
2696.18477,0.03086
2695.15452,0.03054
2694.12426,0.03066
2693.09400,0.03081
2692.06374,0.03070
2691.03348,0.03041
2690.00323,0.03016
2688.97297,0.03003
2687.94271,0.02989
2686.91245,0.02959
2685.88220,0.02935
2684.85194,0.02932
2683.82168,0.02923
2682.79142,0.02897
2681.76116,0.02882
2680.73091,0.02880
2679.70065,0.02869
2678.67039,0.02840
2677.64013,0.02791
2676.60988,0.02747
2675.57962,0.02736
2674.54936,0.02749
2673.51910,0.02760
2672.48884,0.02760
2671.45859,0.02739
2670.42833,0.02718
2669.39807,0.02717
2668.36781,0.02704
2667.33755,0.02672
2666.30730,0.02638
2665.27704,0.02603
2664.24678,0.02574
2663.21652,0.02565
2662.18627,0.02584
2661.15601,0.02602
2660.12575,0.02606
2659.09549,0.02588
2658.06523,0.02541
2657.03498,0.02504
2656.00472,0.02490
2654.97446,0.02464
2653.94420,0.02431
2652.91394,0.02403
2651.88369,0.02386
2650.85343,0.02394
2649.82317,0.02412
2648.79291,0.02411
2647.76266,0.02389
2646.73240,0.02358
2645.70214,0.02322
2644.67188,0.02301
2643.64162,0.02317
2642.61137,0.02332
2641.58111,0.02304
2640.55085,0.02271
2639.52059,0.02273
2638.49033,0.02283
2637.46008,0.02291
2636.42982,0.02276
2635.39956,0.02218
2634.36930,0.02181
2633.33905,0.02199
2632.30879,0.02218
2631.27853,0.02224
2630.24827,0.02222
2629.21801,0.02204
2628.18776,0.02204
2627.15750,0.02212
2626.12724,0.02202
2625.09698,0.02188
2624.06673,0.02157
2623.03647,0.02124
2622.00621,0.02121
2620.97595,0.02100
2619.94569,0.02061
2618.91544,0.02082
2617.88518,0.02122
2616.85492,0.02113
2615.82466,0.02061
2614.79440,0.02008
2613.76415,0.02007
2612.73389,0.02030
2611.70363,0.02029
2610.67337,0.02027
2609.64312,0.02029
2608.61286,0.02013
2607.58260,0.01981
2606.55234,0.01958
2605.52208,0.01964
2604.49183,0.01975
2603.46157,0.01999
2602.43131,0.02028
2601.40105,0.01991
2600.37079,0.01917
2599.34054,0.01891
2598.31028,0.01892
2597.28002,0.01888
2596.24976,0.01879
2595.21951,0.01856
2594.18925,0.01842
2593.15899,0.01849
2592.12873,0.01850
2591.09847,0.01861
2590.06822,0.01912
2589.03796,0.01922
2588.00770,0.01865
2586.97744,0.01846
2585.94718,0.01876
2584.91693,0.01898
2583.88667,0.01890
2582.85641,0.01862
2581.82615,0.01851
2580.79590,0.01848
2579.76564,0.01815
2578.73538,0.01786
2577.70512,0.01787
2576.67486,0.01784
2575.64461,0.01773
2574.61435,0.01765
2573.58409,0.01769
2572.55383,0.01785
2571.52358,0.01799
2570.49332,0.01806
2569.46306,0.01828
2568.43280,0.01847
2567.40254,0.01806
2566.37229,0.01760
2565.34203,0.01784
2564.31177,0.01797
2563.28151,0.01752
2562.25125,0.01729
2561.22100,0.01769
2560.19074,0.01809
2559.16048,0.01813
2558.13022,0.01811
2557.09997,0.01783
2556.06971,0.01711
2555.03945,0.01656
2554.00919,0.01679
2552.97893,0.01738
2551.94868,0.01744
2550.91842,0.01699
2549.88816,0.01685
2548.85790,0.01720
2547.82764,0.01732
2546.79739,0.01686
2545.76713,0.01662
2544.73687,0.01697
2543.70661,0.01719
2542.67636,0.01700
2541.64610,0.01695
2540.61584,0.01736
2539.58558,0.01784
2538.55532,0.01809
2537.52507,0.01798
2536.49481,0.01748
2535.46455,0.01707
2534.43429,0.01701
2533.40403,0.01700
2532.37378,0.01669
2531.34352,0.01661
2530.31326,0.01720
2529.28300,0.01764
2528.25275,0.01773
2527.22249,0.01789
2526.19223,0.01789
2525.16197,0.01793
2524.13171,0.01831
2523.10146,0.01854
2522.07120,0.01847
2521.04094,0.01839
2520.01068,0.01826
2518.98043,0.01772
2517.95017,0.01730
2516.91991,0.01755
2515.88965,0.01796
2514.85939,0.01789
2513.82914,0.01719
2512.79888,0.01647
2511.76862,0.01635
2510.73836,0.01665
2509.70810,0.01706
2508.67785,0.01746
2507.64759,0.01739
2506.61733,0.01701
2505.58707,0.01697
2504.55682,0.01719
2503.52656,0.01703
2502.49630,0.01647
2501.46604,0.01631
2500.43578,0.01679
2499.40553,0.01747
2498.37527,0.01792
2497.34501,0.01789
2496.31475,0.01757
2495.28449,0.01728
2494.25424,0.01727
2493.22398,0.01735
2492.19372,0.01732
2491.16346,0.01708
2490.13321,0.01659
2489.10295,0.01601
2488.07269,0.01595
2487.04243,0.01646
2486.01217,0.01652
2484.98192,0.01597
2483.95166,0.01565
2482.92140,0.01567
2481.89114,0.01576
2480.86088,0.01599
2479.83063,0.01612
2478.80037,0.01588
2477.77011,0.01587
2476.73985,0.01660
2475.70960,0.01741
2474.67934,0.01763
2473.64908,0.01740
2472.61882,0.01714
2471.58856,0.01709
2470.55831,0.01716
2469.52805,0.01706
2468.49779,0.01667
2467.46753,0.01631
2466.43728,0.01660
2465.40702,0.01711
2464.37676,0.01707
2463.34650,0.01705
2462.31624,0.01746
2461.28599,0.01770
2460.25573,0.01748
2459.22547,0.01720
2458.19521,0.01716
2457.16495,0.01739
2456.13470,0.01744
2455.10444,0.01710
2454.07418,0.01681
2453.04392,0.01679
2452.01367,0.01716
2450.98341,0.01770
2449.95315,0.01784
2448.92289,0.01743
2447.89263,0.01696
2446.86238,0.01691
2445.83212,0.01716
2444.80186,0.01722
2443.77160,0.01675
2442.74134,0.01635
2441.71109,0.01647
2440.68083,0.01667
2439.65057,0.01683
2438.62031,0.01728
2437.59006,0.01808
2436.55980,0.01884
2435.52954,0.01903
2434.49928,0.01860
2433.46902,0.01801
2432.43877,0.01787
2431.40851,0.01831
2430.37825,0.01877
2429.34799,0.01900
2428.31774,0.01898
2427.28748,0.01877
2426.25722,0.01890
2425.22696,0.01920
2424.19670,0.01918
2423.16645,0.01903
2422.13619,0.01874
2421.10593,0.01839
2420.07567,0.01843
2419.04541,0.01876
2418.01516,0.01896
2416.98490,0.01880
2415.95464,0.01843
2414.92438,0.01808
2413.89413,0.01804
2412.86387,0.01852
2411.83361,0.01892
2410.80335,0.01882
2409.77309,0.01885
2408.74284,0.01918
2407.71258,0.01936
2406.68232,0.01938
2405.65206,0.01924
2404.62180,0.01912
2403.59155,0.01931
2402.56129,0.01962
2401.53103,0.01994
2400.50077,0.02003
2399.47052,0.01969
2398.44026,0.01942
2397.41000,0.01954
2396.37974,0.02000
2395.34948,0.02062
2394.31923,0.02084
2393.28897,0.02038
2392.25871,0.01990
2391.22845,0.01996
2390.19819,0.02032
2389.16794,0.02057
2388.13768,0.02062
2387.10742,0.02055
2386.07716,0.02036
2385.04691,0.02027
2384.01665,0.02043
2382.98639,0.02063
2381.95613,0.02083
2380.92587,0.02094
2379.89562,0.02088
2378.86536,0.02081
2377.83510,0.02107
2376.80484,0.02166
2375.77459,0.02215
2374.74433,0.02231
2373.71407,0.02219
2372.68381,0.02256
2371.65355,0.02353
2370.62330,0.02408
2369.59304,0.02385
2368.56278,0.02333
2367.53252,0.02332
2366.50226,0.02398
2365.47201,0.02482
2364.44175,0.02564
2363.41149,0.02632
2362.38123,0.02629
2361.35098,0.02575
2360.32072,0.02524
2359.29046,0.02420
2358.26020,0.02270
2357.22994,0.02190
2356.19969,0.02221
2355.16943,0.02298
2354.13917,0.02377
2353.10891,0.02422
2352.07865,0.02414
2351.04840,0.02439
2350.01814,0.02471
2348.98788,0.02444
2347.95762,0.02408
2346.92737,0.02392
2345.89711,0.02386
2344.86685,0.02360
2343.83659,0.02336
2342.80633,0.02389
2341.77608,0.02500
2340.74582,0.02554
2339.71556,0.02493
2338.68530,0.02428
2337.65504,0.02467
2336.62479,0.02495
2335.59453,0.02410
2334.56427,0.02358
2333.53401,0.02421
2332.50376,0.02489
2331.47350,0.02492
2330.44324,0.02503
2329.41298,0.02545
2328.38272,0.02549
2327.35247,0.02495
2326.32221,0.02420
2325.29195,0.02393
2324.26169,0.02429
2323.23144,0.02488
2322.20118,0.02528
2321.17092,0.02526
2320.14066,0.02515
2319.11040,0.02487
2318.08015,0.02437
2317.04989,0.02433
2316.01963,0.02443
2314.98937,0.02426
2313.95911,0.02442
2312.92886,0.02465
2311.89860,0.02434
2310.86834,0.02395
2309.83808,0.02413
2308.80783,0.02430
2307.77757,0.02393
2306.74731,0.02389
2305.71705,0.02437
2304.68679,0.02493
2303.65654,0.02527
2302.62628,0.02505
2301.59602,0.02459
2300.56576,0.02443
2299.53550,0.02455
2298.50525,0.02481
2297.47499,0.02479
2296.44473,0.02459
2295.41447,0.02501
2294.38422,0.02564
2293.35396,0.02553
2292.32370,0.02491
2291.29344,0.02464
2290.26318,0.02498
2289.23293,0.02515
2288.20267,0.02486
2287.17241,0.02481
2286.14215,0.02510
2285.11189,0.02521
2284.08164,0.02500
2283.05138,0.02508
2282.02112,0.02560
2280.99086,0.02539
2279.96061,0.02458
2278.93035,0.02474
2277.90009,0.02549
2276.86983,0.02538
2275.83957,0.02485
2274.80932,0.02529
2273.77906,0.02648
2272.74880,0.02665
2271.71854,0.02571
2270.68829,0.02518
2269.65803,0.02509
2268.62777,0.02473
2267.59751,0.02431
2266.56725,0.02445
2265.53700,0.02514
2264.50674,0.02540
2263.47648,0.02476
2262.44622,0.02448
2261.41596,0.02522
2260.38571,0.02616
2259.35545,0.02685
2258.32519,0.02733
2257.29493,0.02782
2256.26468,0.02774
2255.23442,0.02612
2254.20416,0.02436
2253.17390,0.02456
2252.14364,0.02575
2251.11339,0.02632
2250.08313,0.02679
2249.05287,0.02712
2248.02261,0.02667
2246.99235,0.02662
2245.96210,0.02789
2244.93184,0.02901
2243.90158,0.02860
2242.87132,0.02755
2241.84107,0.02700
2240.81081,0.02684
2239.78055,0.02699
2238.75029,0.02738
2237.72003,0.02739
2236.68978,0.02679
2235.65952,0.02625
2234.62926,0.02670
2233.59900,0.02805
2232.56874,0.02898
2231.53849,0.02864
2230.50823,0.02772
2229.47797,0.02758
2228.44771,0.02882
2227.41746,0.02992
2226.38720,0.02964
2225.35694,0.02946
2224.32668,0.02953
2223.29642,0.02850
2222.26617,0.02753
2221.23591,0.02732
2220.20565,0.02718
2219.17539,0.02812
2218.14514,0.02965
2217.11488,0.02945
2216.08462,0.02866
2215.05436,0.02887
2214.02410,0.02905
2212.99385,0.02863
2211.96359,0.02778
2210.93333,0.02723
2209.90307,0.02763
2208.87281,0.02804
2207.84256,0.02791
2206.81230,0.02749
2205.78204,0.02777
2204.75178,0.02901
2203.72153,0.02894
2202.69127,0.02735
2201.66101,0.02631
2200.63075,0.02606
2199.60049,0.02634
2198.57024,0.02689
2197.53998,0.02682
2196.50972,0.02647
2195.47946,0.02683
2194.44920,0.02812
2193.41895,0.02938
2192.38869,0.02866
2191.35843,0.02647
2190.32817,0.02675
2189.29792,0.02987
2188.26766,0.03163
2187.23740,0.03095
2186.20714,0.02960
2185.17688,0.02905
2184.14663,0.02983
2183.11637,0.03104
2182.08611,0.03129
2181.05585,0.03066
2180.02559,0.03091
2178.99534,0.03191
2177.96508,0.03206
2176.93482,0.03153
2175.90456,0.03156
2174.87431,0.03162
2173.84405,0.03036
2172.81379,0.02855
2171.78353,0.02812
2170.75327,0.03023
2169.72302,0.03189
2168.69276,0.03100
2167.66250,0.03006
2166.63224,0.02878
2165.60199,0.02682
2164.57173,0.02676
2163.54147,0.02658
2162.51121,0.02430
2161.48095,0.02397
2160.45070,0.02602
2159.42044,0.02723
2158.39018,0.02724
2157.35992,0.02634
2156.32966,0.02500
2155.29941,0.02415
2154.26915,0.02439
2153.23889,0.02545
2152.20863,0.02668
2151.17838,0.02811
2150.14812,0.02931
2149.11786,0.02925
2148.08760,0.02830
2147.05734,0.02738
2146.02709,0.02718
2144.99683,0.02680
2143.96657,0.02586
2142.93631,0.02590
2141.90605,0.02650
2140.87580,0.02594
2139.84554,0.02492
2138.81528,0.02569
2137.78502,0.02654
2136.75477,0.02554
2135.72451,0.02440
2134.69425,0.02402
2133.66399,0.02461
2132.63373,0.02550
2131.60348,0.02556
2130.57322,0.02575
2129.54296,0.02632
2128.51270,0.02563
2127.48244,0.02438
2126.45219,0.02420
2125.42193,0.02482
2124.39167,0.02564
2123.36141,0.02605
2122.33116,0.02601
2121.30090,0.02571
2120.27064,0.02504
2119.24038,0.02471
2118.21012,0.02538
2117.17987,0.02564
2116.14961,0.02439
2115.11935,0.02322
2114.08909,0.02339
2113.05884,0.02402
2112.02858,0.02443
2110.99832,0.02472
2109.96806,0.02429
2108.93780,0.02359
2107.90755,0.02359
2106.87729,0.02317
2105.84703,0.02238
2104.81677,0.02263
2103.78651,0.02334
2102.75626,0.02327
2101.72600,0.02217
2100.69574,0.02132
2099.66548,0.02145
2098.63523,0.02150
2097.60497,0.02140
2096.57471,0.02151
2095.54445,0.02135
2094.51419,0.02144
2093.48394,0.02200
2092.45368,0.02229
2091.42342,0.02202
2090.39316,0.02113
2089.36290,0.02020
2088.33265,0.02009
2087.30239,0.02048
2086.27213,0.02059
2085.24187,0.02083
2084.21162,0.02137
2083.18136,0.02142
2082.15110,0.02138
2081.12084,0.02210
2080.09058,0.02303
2079.06033,0.02275
2078.03007,0.02153
2076.99981,0.02091
2075.96955,0.02084
2074.93930,0.02073
2073.90904,0.02072
2072.87878,0.02103
2071.84852,0.02089
2070.81826,0.02010
2069.78801,0.01948
2068.75775,0.01894
2067.72749,0.01871
2066.69723,0.01902
2065.66697,0.01963
2064.63672,0.02034
2063.60646,0.02078
2062.57620,0.02071
2061.54594,0.01998
2060.51569,0.01913
2059.48543,0.01903
2058.45517,0.01991
2057.42491,0.02128
2056.39465,0.02194
2055.36440,0.02162
2054.33414,0.02105
2053.30388,0.02010
2052.27362,0.01898
2051.24336,0.01889
2050.21311,0.01959
2049.18285,0.01923
2048.15259,0.01863
2047.12233,0.01960
2046.09208,0.02039
2045.06182,0.02029
2044.03156,0.02047
2043.00130,0.02074
2041.97104,0.02072
2040.94079,0.01994
2039.91053,0.01845
2038.88027,0.01749
2037.85001,0.01605
2036.81975,0.01310
2035.78950,0.01151
2034.75924,0.01280
2033.72898,0.01483
2032.69872,0.01580
2031.66847,0.01672
2030.63821,0.01925
2029.60795,0.02191
2028.57769,0.02178
2027.54743,0.01943
2026.51718,0.01779
2025.48692,0.01696
2024.45666,0.01518
2023.42640,0.01436
2022.39615,0.01565
2021.36589,0.01492
2020.33563,0.01183
2019.30537,0.01039
2018.27511,0.01105
2017.24486,0.01140
2016.21460,0.01145
2015.18434,0.01262
2014.15408,0.01429
2013.12382,0.01586
2012.09357,0.01640
2011.06331,0.01553
2010.03305,0.01525
2009.00279,0.01579
2007.97254,0.01585
2006.94228,0.01583
2005.91202,0.01585
2004.88176,0.01595
2003.85150,0.01695
2002.82125,0.01767
2001.79099,0.01654
2000.76073,0.01471
1999.73047,0.01399
1998.70021,0.01437
1997.66996,0.01428
1996.63970,0.01351
1995.60944,0.01334
1994.57918,0.01382
1993.54893,0.01393
1992.51867,0.01354
1991.48841,0.01406
1990.45815,0.01520
1989.42789,0.01560
1988.39764,0.01574
1987.36738,0.01534
1986.33712,0.01468
1985.30686,0.01555
1984.27660,0.01643
1983.24635,0.01546
1982.21609,0.01455
1981.18583,0.01433
1980.15557,0.01322
1979.12532,0.01112
1978.09506,0.01010
1977.06480,0.01160
1976.03454,0.01278
1975.00428,0.01199
1973.97403,0.01238
1972.94377,0.01408
1971.91351,0.01449
1970.88325,0.01463
1969.85300,0.01538
1968.82274,0.01560
1967.79248,0.01497
1966.76222,0.01376
1965.73196,0.01269
1964.70171,0.01316
1963.67145,0.01466
1962.64119,0.01596
1961.61093,0.01679
1960.58067,0.01568
1959.55042,0.01337
1958.52016,0.01222
1957.48990,0.01217
1956.45964,0.01268
1955.42939,0.01363
1954.39913,0.01451
1953.36887,0.01405
1952.33861,0.01271
1951.30835,0.01260
1950.27810,0.01339
1949.24784,0.01298
1948.21758,0.01158
1947.18732,0.01163
1946.15706,0.01307
1945.12681,0.01405
1944.09655,0.01461
1943.06629,0.01419
1942.03603,0.01308
1941.00578,0.01332
1939.97552,0.01441
1938.94526,0.01471
1937.91500,0.01409
1936.88474,0.01379
1935.85449,0.01411
1934.82423,0.01436
1933.79397,0.01427
1932.76371,0.01394
1931.73345,0.01354
1930.70320,0.01348
1929.67294,0.01394
1928.64268,0.01389
1927.61242,0.01325
1926.58217,0.01339
1925.55191,0.01411
1924.52165,0.01423
1923.49139,0.01421
1922.46113,0.01486
1921.43088,0.01530
1920.40062,0.01491
1919.37036,0.01391
1918.34010,0.01287
1917.30985,0.01315
1916.27959,0.01449
1915.24933,0.01510
1914.21907,0.01477
1913.18881,0.01444
1912.15856,0.01434
1911.12830,0.01437
1910.09804,0.01460
1909.06778,0.01508
1908.03752,0.01576
1907.00727,0.01633
1905.97701,0.01652
1904.94675,0.01628
1903.91649,0.01562
1902.88624,0.01450
1901.85598,0.01356
1900.82572,0.01354
1899.79546,0.01414
1898.76520,0.01479
1897.73495,0.01509
1896.70469,0.01511
1895.67443,0.01546
1894.64417,0.01623
1893.61391,0.01675
1892.58366,0.01667
1891.55340,0.01656
1890.52314,0.01658
1889.49288,0.01621
1888.46263,0.01578
1887.43237,0.01591
1886.40211,0.01634
1885.37185,0.01645
1884.34159,0.01632
1883.31134,0.01630
1882.28108,0.01617
1881.25082,0.01584
1880.22056,0.01611
1879.19030,0.01700
1878.16005,0.01729
1877.12979,0.01682
1876.09953,0.01642
1875.06927,0.01659
1874.03902,0.01691
1873.00876,0.01646
1871.97850,0.01564
1870.94824,0.01562
1869.91798,0.01602
1868.88773,0.01583
1867.85747,0.01550
1866.82721,0.01577
1865.79695,0.01643
1864.76670,0.01700
1863.73644,0.01725
1862.70618,0.01707
1861.67592,0.01657
1860.64566,0.01610
1859.61541,0.01598
1858.58515,0.01598
1857.55489,0.01585
1856.52463,0.01575
1855.49437,0.01577
1854.46412,0.01587
1853.43386,0.01600
1852.40360,0.01642
1851.37334,0.01675
1850.34309,0.01635
1849.31283,0.01589
1848.28257,0.01594
1847.25231,0.01597
1846.22205,0.01584
1845.19180,0.01579
1844.16154,0.01605
1843.13128,0.01652
1842.10102,0.01646
1841.07076,0.01611
1840.04051,0.01612
1839.01025,0.01647
1837.97999,0.01676
1836.94973,0.01672
1835.91948,0.01636
1834.88922,0.01616
1833.85896,0.01632
1832.82870,0.01661
1831.79844,0.01686
1830.76819,0.01680
1829.73793,0.01639
1828.70767,0.01623
1827.67741,0.01655
1826.64715,0.01686
1825.61690,0.01667
1824.58664,0.01637
1823.55638,0.01670
1822.52612,0.01715
1821.49587,0.01726
1820.46561,0.01710
1819.43535,0.01703
1818.40509,0.01733
1817.37483,0.01771
1816.34458,0.01763
1815.31432,0.01710
1814.28406,0.01683
1813.25380,0.01709
1812.22355,0.01737
1811.19329,0.01764
1810.16303,0.01805
1809.13277,0.01826
1808.10251,0.01830
1807.07226,0.01832
1806.04200,0.01822
1805.01174,0.01848
1803.98148,0.01908
1802.95122,0.01921
1801.92097,0.01892
1800.89071,0.01885
1799.86045,0.01916
1798.83019,0.01969
1797.79994,0.01994
1796.76968,0.01984
1795.73942,0.01982
1794.70916,0.01992
1793.67890,0.01985
1792.64865,0.01995
1791.61839,0.02047
1790.58813,0.02071
1789.55787,0.02048
1788.52761,0.02043
1787.49736,0.02102
1786.46710,0.02159
1785.43684,0.02147
1784.40658,0.02122
1783.37633,0.02145
1782.34607,0.02176
1781.31581,0.02200
1780.28555,0.02239
1779.25529,0.02267
1778.22504,0.02278
1777.19478,0.02281
1776.16452,0.02273
1775.13426,0.02273
1774.10400,0.02295
1773.07375,0.02323
1772.04349,0.02342
1771.01323,0.02357
1769.98297,0.02374
1768.95272,0.02371
1767.92246,0.02364
1766.89220,0.02409
1765.86194,0.02463
1764.83168,0.02489
1763.80143,0.02502
1762.77117,0.02513
1761.74091,0.02563
1760.71065,0.02654
1759.68040,0.02727
1758.65014,0.02760
1757.61988,0.02757
1756.58962,0.02747
1755.55936,0.02772
1754.52911,0.02824
1753.49885,0.02869
1752.46859,0.02893
1751.43833,0.02908
1750.40807,0.02928
1749.37782,0.02958
1748.34756,0.03010
1747.31730,0.03076
1746.28704,0.03109
1745.25679,0.03133
1744.22653,0.03187
1743.19627,0.03250
1742.16601,0.03289
1741.13575,0.03312
1740.10550,0.03360
1739.07524,0.03457
1738.04498,0.03533
1737.01472,0.03560
1735.98446,0.03580
1734.95421,0.03615
1733.92395,0.03671
1732.89369,0.03749
1731.86343,0.03808
1730.83318,0.03872
1729.80292,0.03959
1728.77266,0.04028
1727.74240,0.04081
1726.71214,0.04143
1725.68189,0.04220
1724.65163,0.04314
1723.62137,0.04398
1722.59111,0.04472
1721.56085,0.04553
1720.53060,0.04644
1719.50034,0.04744
1718.47008,0.04834
1717.43982,0.04912
1716.40957,0.04997
1715.37931,0.05117
1714.34905,0.05270
1713.31879,0.05387
1712.28853,0.05453
1711.25828,0.05535
1710.22802,0.05670
1709.19776,0.05811
1708.16750,0.05921
1707.13725,0.06026
1706.10699,0.06140
1705.07673,0.06263
1704.04647,0.06412
1703.01621,0.06550
1701.98596,0.06658
1700.95570,0.06766
1699.92544,0.06914
1698.89518,0.07079
1697.86492,0.07225
1696.83467,0.07347
1695.80441,0.07446
1694.77415,0.07570
1693.74389,0.07736
1692.71364,0.07922
1691.68338,0.08072
1690.65312,0.08184
1689.62286,0.08317
1688.59260,0.08491
1687.56235,0.08667
1686.53209,0.08810
1685.50183,0.08919
1684.47157,0.09014
1683.44131,0.09137
1682.41106,0.09284
1681.38080,0.09434
1680.35054,0.09580
1679.32028,0.09712
1678.29003,0.09842
1677.25977,0.09972
1676.22951,0.10070
1675.19925,0.10133
1674.16899,0.10238
1673.13874,0.10380
1672.10848,0.10528
1671.07822,0.10650
1670.04796,0.10714
1669.01771,0.10778
1667.98745,0.10895
1666.95719,0.10999
1665.92693,0.11073
1664.89667,0.11158
1663.86642,0.11252
1662.83616,0.11307
1661.80590,0.11333
1660.77564,0.11381
1659.74538,0.11436
1658.71513,0.11498
1657.68487,0.11575
1656.65461,0.11629
1655.62435,0.11656
1654.59410,0.11668
1653.56384,0.11604
1652.53358,0.11475
1651.50332,0.11501
1650.47306,0.11572
1649.44281,0.11614
1648.41255,0.11624
1647.38229,0.11628
1646.35203,0.11587
1645.32177,0.11499
1644.29152,0.11445
1643.26126,0.11388
1642.23100,0.11315
1641.20074,0.11250
1640.17049,0.11192
1639.14023,0.11135
1638.10997,0.11059
1637.07971,0.10975
1636.04945,0.10880
1635.01920,0.10723
1633.98894,0.10605
1632.95868,0.10516
1631.92842,0.10401
1630.89816,0.10302
1629.86791,0.10207
1628.83765,0.10089
1627.80739,0.09947
1626.77713,0.09812
1625.74688,0.09715
1624.71662,0.09628
1623.68636,0.09455
1622.65610,0.09218
1621.62584,0.09077
1620.59559,0.08989
1619.56533,0.08896
1618.53507,0.08806
1617.50481,0.08687
1616.47456,0.08484
1615.44430,0.08351
1614.41404,0.08274
1613.38378,0.08156
1612.35352,0.08036
1611.32327,0.07949
1610.29301,0.07868
1609.26275,0.07774
1608.23249,0.07661
1607.20223,0.07535
1606.17198,0.07442
1605.14172,0.07380
1604.11146,0.07296
1603.08120,0.07175
1602.05095,0.07065
1601.02069,0.06994
1599.99043,0.06942
1598.96017,0.06890
1597.92991,0.06824
1596.89966,0.06744
1595.86940,0.06665
1594.83914,0.06606
1593.80888,0.06572
1592.77862,0.06531
1591.74837,0.06465
1590.71811,0.06397
1589.68785,0.06353
1588.65759,0.06332
1587.62734,0.06298
1586.59708,0.06238
1585.56682,0.06181
1584.53656,0.06141
1583.50630,0.06103
1582.47605,0.06052
1581.44579,0.06007
1580.41553,0.05981
1579.38527,0.05966
1578.35501,0.05936
1577.32476,0.05893
1576.29450,0.05821
1575.26424,0.05746
1574.23398,0.05722
1573.20373,0.05715
1572.17347,0.05708
1571.14321,0.05685
1570.11295,0.05622
1569.08269,0.05543
1568.05244,0.05515
1567.02218,0.05491
1565.99192,0.05455
1564.96166,0.05423
1563.93141,0.05412
1562.90115,0.05432
1561.87089,0.05456
1560.84063,0.05451
1559.81037,0.05397
1558.78012,0.05329
1557.74986,0.05264
1556.71960,0.05227
1555.68934,0.05225
1554.65908,0.05223
1553.62883,0.05210
1552.59857,0.05191
1551.56831,0.05160
1550.53805,0.05130
1549.50780,0.05121
1548.47754,0.05124
1547.44728,0.05129
1546.41702,0.05114
1545.38676,0.05072
1544.35651,0.05061
1543.32625,0.05080
1542.29599,0.05068
1541.26573,0.05039
1540.23547,0.05000
1539.20522,0.04956
1538.17496,0.04946
1537.14470,0.04933
1536.11444,0.04916
1535.08419,0.04901
1534.05393,0.04863
1533.02367,0.04827
1531.99341,0.04842
1530.96315,0.04856
1529.93290,0.04863
1528.90264,0.04884
1527.87238,0.04901
1526.84212,0.04887
1525.81186,0.04834
1524.78161,0.04783
1523.75135,0.04790
1522.72109,0.04811
1521.69083,0.04762
1520.66058,0.04700
1519.63032,0.04738
1518.60006,0.04795
1517.56980,0.04810
1516.53954,0.04789
1515.50929,0.04787
1514.47903,0.04793
1513.44877,0.04791
1512.41851,0.04802
1511.38826,0.04838
1510.35800,0.04860
1509.32774,0.04847
1508.29748,0.04823
1507.26722,0.04819
1506.23697,0.04851
1505.20671,0.04902
1504.17645,0.04924
1503.14619,0.04920
1502.11593,0.04906
1501.08568,0.04895
1500.05542,0.04896
1499.02516,0.04930
1497.99490,0.04988
1496.96465,0.05027
1495.93439,0.05066
1494.90413,0.05133
1493.87387,0.05209
1492.84361,0.05303
1491.81336,0.05443
1490.78310,0.05662
1489.75284,0.05998
1488.72258,0.06383
1487.69232,0.06881
1486.66207,0.07676
1485.63181,0.08737
1484.60155,0.10004
1483.57129,0.11403
1482.54104,0.12686
1481.51078,0.13473
1480.48052,0.13446
1479.45026,0.12730
1478.42000,0.11739
1477.38975,0.10798
1476.35949,0.09989
1475.32923,0.09510
1474.29897,0.09447
1473.26871,0.09658
1472.23846,0.10111
1471.20820,0.10732
1470.17794,0.11360
1469.14768,0.11983
1468.11743,0.12577
1467.08717,0.13074
1466.05691,0.13399
1465.02665,0.13483
1463.99639,0.13351
1462.96614,0.13090
1461.93588,0.12698
1460.90562,0.12241
1459.87536,0.11805
1458.84511,0.11360
1457.81485,0.10914
1456.78459,0.10449
1455.75433,0.10104
1454.72407,0.09915
1453.69382,0.09755
1452.66356,0.09602
1451.63330,0.09465
1450.60304,0.09327
1449.57278,0.09175
1448.54253,0.08991
1447.51227,0.08776
1446.48201,0.08603
1445.45175,0.08464
1444.42150,0.08317
1443.39124,0.08163
1442.36098,0.08013
1441.33072,0.07873
1440.30046,0.07749
1439.27021,0.07627
1438.23995,0.07494
1437.20969,0.07304
1436.17943,0.07039
1435.14917,0.06864
1434.11892,0.06738
1433.08866,0.06587
1432.05840,0.06431
1431.02814,0.06289
1429.99789,0.06162
1428.96763,0.06037
1427.93737,0.05928
1426.90711,0.05844
1425.87685,0.05768
1424.84660,0.05664
1423.81634,0.05536
1422.78608,0.05437
1421.75582,0.05370
1420.72556,0.05313
1419.69531,0.05261
1418.66505,0.05231
1417.63479,0.05216
1416.60453,0.05190
1415.57428,0.05168
1414.54402,0.05178
1413.51376,0.05219
1412.48350,0.05260
1411.45324,0.05301
1410.42299,0.05389
1409.39273,0.05526
1408.36247,0.05705
1407.33221,0.05934
1406.30196,0.06203
1405.27170,0.06531
1404.24144,0.06880
1403.21118,0.07117
1402.18092,0.07204
1401.15067,0.07178
1400.12041,0.07053
1399.09015,0.06798
1398.05989,0.06480
1397.02963,0.06197
1395.99938,0.05942
1394.96912,0.05691
1393.93886,0.05442
1392.90860,0.05252
1391.87835,0.05126
1390.84809,0.05025
1389.81783,0.04931
1388.78757,0.04849
1387.75731,0.04778
1386.72706,0.04744
1385.69680,0.04743
1384.66654,0.04728
1383.63628,0.04691
1382.60602,0.04653
1381.57577,0.04630
1380.54551,0.04612
1379.51525,0.04581
1378.48499,0.04550
1377.45474,0.04535
1376.42448,0.04526
1375.39422,0.04508
1374.36396,0.04479
1373.33370,0.04461
1372.30345,0.04476
1371.27319,0.04496
1370.24293,0.04497
1369.21267,0.04502
1368.18241,0.04513
1367.15216,0.04501
1366.12190,0.04475
1365.09164,0.04453
1364.06138,0.04418
1363.03113,0.04376
1362.00087,0.04373
1360.97061,0.04395
1359.94035,0.04402
1358.91009,0.04389
1357.87984,0.04372
1356.84958,0.04370
1355.81932,0.04372
1354.78906,0.04358
1353.75881,0.04334
1352.72855,0.04327
1351.69829,0.04344
1350.66803,0.04350
1349.63777,0.04327
1348.60752,0.04308
1347.57726,0.04321
1346.54700,0.04344
1345.51674,0.04342
1344.48648,0.04312
1343.45623,0.04283
1342.42597,0.04273
1341.39571,0.04273
1340.36545,0.04275
1339.33520,0.04277
1338.30494,0.04276
1337.27468,0.04295
1336.24442,0.04331
1335.21416,0.04345
1334.18391,0.04313
1333.15365,0.04263
1332.12339,0.04249
1331.09313,0.04270
1330.06287,0.04284
1329.03262,0.04279
1328.00236,0.04276
1326.97210,0.04276
1325.94184,0.04277
1324.91159,0.04274
1323.88133,0.04259
1322.85107,0.04257
1321.82081,0.04270
1320.79055,0.04261
1319.76030,0.04232
1318.73004,0.04215
1317.69978,0.04225
1316.66952,0.04241
1315.63927,0.04240
1314.60901,0.04235
1313.57875,0.04247
1312.54849,0.04257
1311.51823,0.04262
1310.48798,0.04275
1309.45772,0.04284
1308.42746,0.04279
1307.39720,0.04255
1306.36694,0.04228
1305.33669,0.04220
1304.30643,0.04212
1303.27617,0.04189
1302.24591,0.04170
1301.21566,0.04171
1300.18540,0.04185
1299.15514,0.04205
1298.12488,0.04217
1297.09462,0.04214
1296.06437,0.04222
1295.03411,0.04241
1294.00385,0.04245
1292.97359,0.04229
1291.94333,0.04205
1290.91308,0.04192
1289.88282,0.04191
1288.85256,0.04188
1287.82230,0.04176
1286.79205,0.04173
1285.76179,0.04190
1284.73153,0.04193
1283.70127,0.04180
1282.67101,0.04167
1281.64076,0.04156
1280.61050,0.04161
1279.58024,0.04181
1278.54998,0.04197
1277.51972,0.04192
1276.48947,0.04180
1275.45921,0.04178
1274.42895,0.04177
1273.39869,0.04168
1272.36844,0.04166
1271.33818,0.04188
1270.30792,0.04232
1269.27766,0.04268
1268.24740,0.04277
1267.21715,0.04265
1266.18689,0.04245
1265.15663,0.04239
1264.12637,0.04260
1263.09612,0.04292
1262.06586,0.04318
1261.03560,0.04353
1260.00534,0.04401
1258.97508,0.04434
1257.94483,0.04465
1256.91457,0.04515
1255.88431,0.04564
1254.85405,0.04630
1253.82379,0.04732
1252.79354,0.04844
1251.76328,0.04969
1250.73302,0.05132
1249.70276,0.05335
1248.67251,0.05587
1247.64225,0.05909
1246.61199,0.06317
1245.58173,0.06798
1244.55147,0.07323
1243.52122,0.07895
1242.49096,0.08506
1241.46070,0.09109
1240.43044,0.09633
1239.40018,0.10015
1238.36993,0.10239
1237.33967,0.10292
1236.30941,0.10129
1235.27915,0.09771
1234.24890,0.09292
1233.21864,0.08743
1232.18838,0.08181
1231.15812,0.07650
1230.12786,0.07162
1229.09761,0.06731
1228.06735,0.06369
1227.03709,0.06063
1226.00683,0.05814
1224.97657,0.05622
1223.94632,0.05457
1222.91606,0.05298
1221.88580,0.05156
1220.85554,0.05035
1219.82529,0.04933
1218.79503,0.04848
1217.76477,0.04792
1216.73451,0.04765
1215.70425,0.04734
1214.67400,0.04678
1213.64374,0.04619
1212.61348,0.04587
1211.58322,0.04584
1210.55297,0.04587
1209.52271,0.04567
1208.49245,0.04533
1207.46219,0.04505
1206.43193,0.04482
1205.40168,0.04451
1204.37142,0.04431
1203.34116,0.04445
1202.31090,0.04462
1201.28064,0.04456
1200.25039,0.04426
1199.22013,0.04383
1198.18987,0.04365
1197.15961,0.04369
1196.12936,0.04365
1195.09910,0.04348
1194.06884,0.04333
1193.03858,0.04327
1192.00832,0.04320
1190.97807,0.04310
1189.94781,0.04306
1188.91755,0.04316
1187.88729,0.04326
1186.85703,0.04310
1185.82678,0.04287
1184.79652,0.04276
1183.76626,0.04281
1182.73600,0.04291
1181.70575,0.04298
1180.67549,0.04307
1179.64523,0.04322
1178.61497,0.04328
1177.58471,0.04323
1176.55446,0.04312
1175.52420,0.04292
1174.49394,0.04266
1173.46368,0.04245
1172.43342,0.04237
1171.40317,0.04255
1170.37291,0.04282
1169.34265,0.04271
1168.31239,0.04239
1167.28214,0.04231
1166.25188,0.04235
1165.22162,0.04241
1164.19136,0.04250
1163.16110,0.04243
1162.13085,0.04232
1161.10059,0.04234
1160.07033,0.04235
1159.04007,0.04232
1158.00982,0.04240
1156.97956,0.04250
1155.94930,0.04238
1154.91904,0.04240
1153.88878,0.04269
1152.85853,0.04274
1151.82827,0.04248
1150.79801,0.04216
1149.76775,0.04191
1148.73749,0.04168
1147.70724,0.04163
1146.67698,0.04185
1145.64672,0.04204
1144.61646,0.04201
1143.58621,0.04199
1142.55595,0.04207
1141.52569,0.04212
1140.49543,0.04215
1139.46517,0.04208
1138.43492,0.04195
1137.40466,0.04199
1136.37440,0.04211
1135.34414,0.04226
1134.31388,0.04246
1133.28363,0.04260
1132.25337,0.04270
1131.22311,0.04285
1130.19285,0.04311
1129.16260,0.04359
1128.13234,0.04403
1127.10208,0.04453
1126.07182,0.04561
1125.04156,0.04688
1124.01131,0.04771
1122.98105,0.04837
1121.95079,0.04903
1120.92053,0.04917
1119.89027,0.04859
1118.86002,0.04775
1117.82976,0.04687
1116.79950,0.04598
1115.76924,0.04529
1114.73899,0.04468
1113.70873,0.04411
1112.67847,0.04365
1111.64821,0.04317
1110.61795,0.04278
1109.58770,0.04270
1108.55744,0.04280
1107.52718,0.04280
1106.49692,0.04264
1105.46667,0.04229
1104.43641,0.04193
1103.40615,0.04189
1102.37589,0.04206
1101.34563,0.04222
1100.31538,0.04234
1099.28512,0.04249
1098.25486,0.04254
1097.22460,0.04221
1096.19434,0.04187
1095.16409,0.04198
1094.13383,0.04204
1093.10357,0.04180
1092.07331,0.04169
1091.04306,0.04201
1090.01280,0.04241
1088.98254,0.04246
1087.95228,0.04227
1086.92202,0.04217
1085.89177,0.04229
1084.86151,0.04234
1083.83125,0.04209
1082.80099,0.04204
1081.77073,0.04228
1080.74048,0.04239
1079.71022,0.04233
1078.67996,0.04212
1077.64970,0.04208
1076.61945,0.04249
1075.58919,0.04272
1074.55893,0.04239
1073.52867,0.04208
1072.49841,0.04231
1071.46816,0.04258
1070.43790,0.04244
1069.40764,0.04217
1068.37738,0.04212
1067.34712,0.04243
1066.31687,0.04289
1065.28661,0.04326
1064.25635,0.04356
1063.22609,0.04368
1062.19584,0.04360
1061.16558,0.04338
1060.13532,0.04322
1059.10506,0.04322
1058.07480,0.04305
1057.04455,0.04301
1056.01429,0.04329
1054.98403,0.04330
1053.95377,0.04322
1052.92352,0.04379
1051.89326,0.04438
1050.86300,0.04414
1049.83274,0.04365
1048.80248,0.04358
1047.77223,0.04377
1046.74197,0.04399
1045.71171,0.04410
1044.68145,0.04393
1043.65119,0.04361
1042.62094,0.04360
1041.59068,0.04393
1040.56042,0.04424
1039.53016,0.04442
1038.49991,0.04455
1037.46965,0.04466
1036.43939,0.04478
1035.40913,0.04508
1034.37887,0.04553
1033.34862,0.04588
1032.31836,0.04590
1031.28810,0.04557
1030.25784,0.04528
1029.22758,0.04529
1028.19733,0.04536
1027.16707,0.04553
1026.13681,0.04598
1025.10655,0.04664
1024.07630,0.04701
1023.04604,0.04677
1022.01578,0.04652
1020.98552,0.04676
1019.95526,0.04725
1018.92501,0.04777
1017.89475,0.04810
1016.86449,0.04794
1015.83423,0.04754
1014.80397,0.04740
1013.77372,0.04756
1012.74346,0.04779
1011.71320,0.04809
1010.68294,0.04851
1009.65269,0.04884
1008.62243,0.04902
1007.59217,0.04928
1006.56191,0.04952
1005.53165,0.04973
1004.50140,0.05003
1003.47114,0.05032
1002.44088,0.05051
1001.41062,0.05060
1000.38037,0.05087
999.35011,0.05132
998.31985,0.05161
997.28959,0.05178
996.25933,0.05208
995.22908,0.05246
994.19882,0.05275
993.16856,0.05301
992.13830,0.05335
991.10804,0.05375
990.07779,0.05421
989.04753,0.05475
988.01727,0.05496
986.98701,0.05501
985.95676,0.05561
984.92650,0.05645
983.89624,0.05710
982.86598,0.05773
981.83572,0.05815
980.80547,0.05827
979.77521,0.05853
978.74495,0.05922
977.71469,0.06013
976.68443,0.06105
975.65418,0.06185
974.62392,0.06245
973.59366,0.06304
972.56340,0.06383
971.53315,0.06485
970.50289,0.06596
969.47263,0.06710
968.44237,0.06837
967.41211,0.06974
966.38186,0.07140
965.35160,0.07375
964.32134,0.07672
963.29108,0.07985
962.26082,0.08319
961.23057,0.08728
960.20031,0.09264
959.17005,0.09945
958.13979,0.10744
957.10954,0.11639
956.07928,0.12660
955.04902,0.13835
954.01876,0.15111
952.98850,0.16397
951.95825,0.17668
950.92799,0.18916
949.89773,0.20047
948.86747,0.20971
947.83722,0.21660
946.80696,0.22030
945.77670,0.21938
944.74644,0.21349
943.71618,0.20340
942.68593,0.19006
941.65567,0.17558
940.62541,0.16207
939.59515,0.14999
938.56489,0.13924
937.53464,0.13006
936.50438,0.12311
935.47412,0.11815
934.44386,0.11400
933.41361,0.11030
932.38335,0.10735
931.35309,0.10506
930.32283,0.10319
929.29257,0.10165
928.26232,0.10051
927.23206,0.09956
926.20180,0.09862
925.17154,0.09779
924.14128,0.09698
923.11103,0.09633
922.08077,0.09607
921.05051,0.09640
920.02025,0.09708
918.99000,0.09761
917.95974,0.09813
916.92948,0.09870
915.89922,0.09893
914.86896,0.09917
913.83871,0.09968
912.80845,0.10004
911.77819,0.10038
910.74793,0.10108
909.71768,0.10192
908.68742,0.10267
907.65716,0.10362
906.62690,0.10485
905.59664,0.10596
904.56639,0.10666
903.53613,0.10731
902.50587,0.10808
901.47561,0.10879
900.44535,0.10985
899.41510,0.11107
898.38484,0.11173
897.35458,0.11227
896.32432,0.11347
895.29407,0.11509
894.26381,0.11646
893.23355,0.11749
892.20329,0.11862
891.17303,0.11985
890.14278,0.12082
889.11252,0.12155
888.08226,0.12225
887.05200,0.12303
886.02174,0.12388
884.99149,0.12489
883.96123,0.12609
882.93097,0.12755
881.90071,0.12908
880.87046,0.13034
879.84020,0.13160
878.80994,0.13295
877.77968,0.13412
876.74942,0.13505
875.71917,0.13589
874.68891,0.13703
873.65865,0.13850
872.62839,0.13981
871.59813,0.14060
870.56788,0.14132
869.53762,0.14259
868.50736,0.14415
867.47710,0.14549
866.44685,0.14655
865.41659,0.14738
864.38633,0.14833
863.35607,0.14974
862.32581,0.15134
861.29556,0.15284
860.26530,0.15396
859.23504,0.15474
858.20478,0.15589
857.17453,0.15735
856.14427,0.15882
855.11401,0.16071
854.08375,0.16252
853.05349,0.16326
852.02324,0.16380
850.99298,0.16511
849.96272,0.16656
848.93246,0.16794
847.90220,0.16928
846.87195,0.17033
845.84169,0.17149
844.81143,0.17290
843.78117,0.17420
842.75092,0.17544
841.72066,0.17658
840.69040,0.17791
839.66014,0.17941
838.62988,0.18078
837.59963,0.18233
836.56937,0.18409
835.53911,0.18588
834.50885,0.18759
833.47859,0.18860
832.44834,0.18883
831.41808,0.18939
830.38782,0.19090
829.35756,0.19295
828.32731,0.19474
827.29705,0.19570
826.26679,0.19661
825.23653,0.19809
824.20627,0.19927
823.17602,0.20007
822.14576,0.20125
821.11550,0.20298
820.08524,0.20503
819.05498,0.20692
818.02473,0.20839
816.99447,0.20969
815.96421,0.21117
814.93395,0.21235
813.90370,0.21316
812.87344,0.21457
811.84318,0.21637
810.81292,0.21790
809.78266,0.21920
808.75241,0.22003
807.72215,0.22075
806.69189,0.22241
805.66163,0.22447
804.63138,0.22598
803.60112,0.22726
802.57086,0.22815
801.54060,0.22880
800.51034,0.23017
799.48009,0.23232
798.44983,0.23440
797.41957,0.23598
796.38931,0.23724
795.35905,0.23809
794.32880,0.23885
793.29854,0.24057
792.26828,0.24298
791.23802,0.24435
790.20777,0.24456
789.17751,0.24539
788.14725,0.24683
787.11699,0.24809
786.08673,0.24957
785.05648,0.25120
784.02622,0.25283
782.99596,0.25470
781.96570,0.25674
780.93544,0.25865
779.90519,0.26014
778.87493,0.26161
777.84467,0.26398
776.81441,0.26678
775.78416,0.26894
774.75390,0.27038
773.72364,0.27201
772.69338,0.27437
771.66312,0.27694
770.63287,0.27995
769.60261,0.28362
768.57235,0.28697
767.54209,0.28988
766.51183,0.29351
765.48158,0.29820
764.45132,0.30325
763.42106,0.30829
762.39080,0.31401
761.36055,0.32071
760.33029,0.32771
759.30003,0.33451
758.26977,0.34061
757.23951,0.34530
756.20926,0.34790
755.17900,0.34839
754.14874,0.34709
753.11848,0.34440
752.08823,0.34115
751.05797,0.33789
750.02771,0.33484
748.99745,0.33256
747.96719,0.33102
746.93694,0.32939
745.90668,0.32767
744.87642,0.32666
743.84616,0.32708
742.81590,0.32802
741.78565,0.32806
740.75539,0.32783
739.72513,0.32796
738.69487,0.32858
737.66462,0.32985
736.63436,0.33060
735.60410,0.33109
734.57384,0.33231
733.54358,0.33362
732.51333,0.33468
731.48307,0.33528
730.45281,0.33575
729.42255,0.33686
728.39229,0.33805
727.36204,0.33842
726.33178,0.33852
725.30152,0.33919
724.27126,0.34012
723.24101,0.34125
722.21075,0.34315
721.18049,0.34505
720.15023,0.34576
719.11997,0.34605
718.08972,0.34692
717.05946,0.34816
716.02920,0.34935
714.99894,0.35057
713.96868,0.35190
712.93843,0.35384
711.90817,0.35636
710.87791,0.35782
709.84765,0.35760
708.81740,0.35711
707.78714,0.35806
706.75688,0.36015
705.72662,0.36207
704.69636,0.36321
703.66611,0.36326
702.63585,0.36309
701.60559,0.36425
700.57533,0.36627
699.54508,0.36735
698.51482,0.36770
697.48456,0.36822
696.45430,0.36937
695.42404,0.37110
694.39379,0.37217
693.36353,0.37251
692.33327,0.37265
691.30301,0.37268
690.27275,0.37358
689.24250,0.37554
688.21224,0.37709
687.18198,0.37838
686.15172,0.37968
685.12147,0.37949
684.09121,0.37887
683.06095,0.38011
682.03069,0.38226
681.00043,0.38313
679.97018,0.38265
678.93992,0.38269
677.90966,0.38425
676.87940,0.38623
675.84914,0.38795
674.81889,0.38969
673.78863,0.39133
672.75837,0.39277
671.72811,0.39349
670.69786,0.39332
669.66760,0.39388
668.63734,0.39591
667.60708,0.39520
666.57682,0.39321
665.54657,0.39333
664.51631,0.39438
663.48605,0.39546
662.45579,0.39630
661.42553,0.39707
660.39528,0.39754
659.36502,0.39767
658.33476,0.39811
657.30450,0.39846
656.27425,0.39801
655.24399,0.39850
654.21373,0.40121
653.18347,0.40325
652.15321,0.40227
651.12296,0.40107
650.09270,0.40223
649.06244,0.40435
648.03218,0.40507
647.00193,0.40424
645.97167,0.40336
644.94141,0.40337
643.91115,0.40402
642.88089,0.40477
641.85064,0.40600
640.82038,0.40762
639.79012,0.40788
638.75986,0.40745
637.72960,0.40849
636.69935,0.40961
635.66909,0.40924
634.63883,0.40831
633.60857,0.40793
632.57832,0.40950
631.54806,0.41257
630.51780,0.41418
629.48754,0.41403
628.45728,0.41357
627.42703,0.41335
626.39677,0.41425
625.36651,0.41536
624.33625,0.41457
623.30599,0.41286
622.27574,0.41296
621.24548,0.41384
620.21522,0.41309
619.18496,0.41122
618.15471,0.40978
617.12445,0.41067
616.09419,0.41376
615.06393,0.41560
614.03367,0.41499
613.00342,0.41407
611.97316,0.41383
610.94290,0.41370
609.91264,0.41411
608.88238,0.41521
607.85213,0.41439
606.82187,0.41202
605.79161,0.41116
604.76135,0.41215
603.73110,0.41484
602.70084,0.41715
601.67058,0.41702
600.64032,0.41652
599.61006,0.41654
598.57981,0.41513
597.54955,0.41361
596.51929,0.41414
595.48903,0.41521
594.45878,0.41540
593.42852,0.41534
592.39826,0.41547
591.36800,0.41568
590.33774,0.41676
589.30749,0.41828
588.27723,0.41875
587.24697,0.41814
586.21671,0.41716
585.18645,0.41747
584.15620,0.41932
583.12594,0.41872
582.09568,0.41484
581.06542,0.41154
580.03517,0.41177
579.00491,0.41509
577.97465,0.41730
576.94439,0.41659
575.91413,0.41562
574.88388,0.41578
573.85362,0.41600
572.82336,0.41621
571.79310,0.41638
570.76284,0.41564
569.73259,0.41478
568.70233,0.41501
567.67207,0.41551
566.64181,0.41400
565.61156,0.41190
564.58130,0.41186
563.55104,0.41163
562.52078,0.41067
561.49052,0.41062
560.46027,0.41023
559.43001,0.40930
558.39975,0.40823
557.36949,0.40831
556.33924,0.41095
555.30898,0.41394
554.27872,0.41541
553.24846,0.41462
552.21820,0.41350
551.18795,0.41420
550.15769,0.41488
549.12743,0.41357
548.09717,0.41204
547.06691,0.41302
546.03666,0.41316
545.00640,0.40963
543.97614,0.40581
542.94588,0.40422
541.91563,0.40513
540.88537,0.40728
539.85511,0.40822
538.82485,0.40826
537.79459,0.40957
536.76434,0.41129
535.73408,0.41126
534.70382,0.41004
533.67356,0.41005
532.64330,0.41194
531.61305,0.41463
530.58279,0.41604
529.55253,0.41425
528.52227,0.41244
527.49202,0.41206
526.46176,0.41045
525.43150,0.41128
524.40124,0.41567
523.37098,0.41849
522.34073,0.42066
521.31047,0.42410
520.28021,0.42903
519.24995,0.43433
518.21969,0.43653
517.18944,0.43804
516.15918,0.44248
515.12892,0.44758
514.09866,0.45295
513.06841,0.46107
512.03815,0.46984
511.00789,0.47524
509.97763,0.47908
508.94737,0.48375
507.91712,0.48823
506.88686,0.49354
505.85660,0.50079
504.82634,0.50798
503.79609,0.51483
502.76583,0.52141
501.73557,0.52448
500.70531,0.52441
499.67505,0.52550
498.64480,0.52778
497.61454,0.52794
496.58428,0.52623
495.55402,0.52578
494.52376,0.52443
493.49351,0.52002
492.46325,0.51416
491.43299,0.50907
490.40273,0.50533
489.37248,0.50133
488.34222,0.49725
487.31196,0.49149
486.28170,0.48324
485.25144,0.47716
484.22119,0.47271
483.19093,0.46680
482.16067,0.46072
481.13041,0.45495
480.10015,0.44981
479.06990,0.44385
478.03964,0.43744
477.00938,0.43467
475.97912,0.43466
474.94887,0.43256
473.91861,0.42811
472.88835,0.42665
471.85809,0.43240
470.82783,0.44256
469.79758,0.45727
468.76732,0.47799
467.73706,0.50219
466.70680,0.52754
465.67654,0.55221
464.64629,0.57492
463.61603,0.59515
462.58577,0.60951
461.55551,0.60811
460.52526,0.58986
459.49500,0.57042
458.46474,0.55540
457.43448,0.53870
456.40422,0.52315
455.37397,0.51501
454.34371,0.51265
453.31345,0.50829
452.28319,0.49790
451.25294,0.48792
450.22268,0.48249
449.19242,0.47712
448.16216,0.46835
447.13190,0.45897
446.10165,0.45239
445.07139,0.44942
444.04113,0.44962
443.01087,0.44947
441.98061,0.44446
440.95036,0.43925
439.92010,0.43719
438.88984,0.43191
437.85958,0.42438
436.82933,0.41974
435.79907,0.41439
434.76881,0.40933
433.73855,0.40823
432.70829,0.40639
431.67804,0.40352
430.64778,0.40327
429.61752,0.40143
428.58726,0.39765
427.55700,0.39632
426.52675,0.39472
425.49649,0.39136
424.46623,0.38613
423.43597,0.37815
422.40572,0.37498
421.37546,0.37723
420.34520,0.37559
419.31494,0.36903
418.28468,0.36715
417.25443,0.37435
416.22417,0.38215
415.19391,0.37917
414.16365,0.36999
413.13339,0.36646
412.10314,0.36297
411.07288,0.35672
410.04262,0.35443
409.01236,0.35664
407.98211,0.35964
406.95185,0.36021
405.92159,0.35576
404.89133,0.34815
403.86107,0.34371
402.83082,0.34556
401.80056,0.34912
400.77030,0.35089
399.74004,0.35188
