4998.81105,0.00097
4997.78079,0.00177
4996.75054,0.00214
4995.72028,0.00148
4994.69002,0.00043
4993.65976,0.00003
4992.62951,0.00047
4991.59925,0.00066
4990.56899,-0.00028
4989.53873,-0.00163
4988.50847,-0.00229
4987.47822,-0.00174
4986.44796,-0.00033
4985.41770,0.00104
4984.38744,0.00167
4983.35718,0.00161
4982.32693,0.00136
4981.29667,0.00128
4980.26641,0.00130
4979.23615,0.00123
4978.20590,0.00136
4977.17564,0.00108
4976.14538,-0.00004
4975.11512,-0.00001
4974.08486,0.00131
4973.05461,0.00155
4972.02435,0.00053
4970.99409,-0.00021
4969.96383,-0.00031
4968.93357,-0.00011
4967.90332,0.00057
4966.87306,0.00128
4965.84280,0.00077
4964.81254,-0.00057
4963.78229,-0.00113
4962.75203,-0.00077
4961.72177,-0.00047
4960.69151,-0.00059
4959.66125,-0.00079
4958.63100,-0.00111
4957.60074,-0.00134
4956.57048,-0.00083
4955.54022,0.00003
4954.50997,0.00015
4953.47971,-0.00016
4952.44945,0.00043
4951.41919,0.00102
4950.38893,0.00037
4949.35868,-0.00041
4948.32842,-0.00067
4947.29816,-0.00064
4946.26790,-0.00051
4945.23764,-0.00097
4944.20739,-0.00194
4943.17713,-0.00182
4942.14687,-0.00037
4941.11661,0.00043
4940.08636,0.00025
4939.05610,0.00051
4938.02584,0.00139
4936.99558,0.00181
4935.96532,0.00087
4934.93507,-0.00124
4933.90481,-0.00280
4932.87455,-0.00230
4931.84429,-0.00067
4930.81403,0.00038
4929.78378,0.00085
4928.75352,0.00071
4927.72326,-0.00009
4926.69300,-0.00041
4925.66275,-0.00041
4924.63249,-0.00101
4923.60223,-0.00171
4922.57197,-0.00169
4921.54171,-0.00094
4920.51146,-0.00024
4919.48120,0.00058
4918.45094,0.00140
4917.42068,0.00111
4916.39042,0.00046
4915.36017,0.00016
4914.32991,-0.00015
4913.29965,-0.00002
4912.26939,0.00064
4911.23914,0.00092
4910.20888,0.00064
4909.17862,-0.00002
4908.14836,-0.00125
4907.11810,-0.00148
4906.08785,-0.00003
4905.05759,0.00118
4904.02733,0.00150
4902.99707,0.00179
4901.96682,0.00185
4900.93656,0.00129
4899.90630,0.00076
4898.87604,0.00064
4897.84578,0.00059
4896.81553,0.00030
4895.78527,-0.00018
4894.75501,-0.00056
4893.72475,-0.00088
4892.69449,-0.00119
4891.66424,-0.00091
4890.63398,0.00031
4889.60372,0.00163
4888.57346,0.00173
4887.54321,0.00083
4886.51295,0.00009
4885.48269,-0.00037
4884.45243,-0.00059
4883.42217,-0.00047
4882.39192,-0.00035
4881.36166,-0.00067
4880.33140,-0.00134
4879.30114,-0.00141
4878.27088,-0.00022
4877.24063,0.00089
4876.21037,0.00061
4875.18011,0.00002
4874.14985,0.00009
4873.11960,0.00040
4872.08934,0.00059
4871.05908,0.00061
4870.02882,0.00040
4868.99856,-0.00006
4867.96831,-0.00084
4866.93805,-0.00147
4865.90779,-0.00113
4864.87753,0.00026
4863.84727,0.00144
4862.81702,0.00132
4861.78676,0.00013
4860.75650,-0.00110
4859.72624,-0.00141
4858.69599,-0.00086
4857.66573,-0.00041
4856.63547,-0.00001
4855.60521,0.00044
4854.57495,0.00022
4853.54470,-0.00008
4852.51444,0.00027
4851.48418,0.00063
4850.45392,0.00062
4849.42367,0.00050
4848.39341,0.00050
4847.36315,0.00035
4846.33289,0.00013
4845.30263,0.00044
4844.27238,0.00086
4843.24212,0.00072
4842.21186,0.00048
4841.18160,0.00074
4840.15134,0.00110
4839.12109,0.00093
4838.09083,0.00007
4837.06057,-0.00063
4836.03031,0.00025
4835.00006,0.00186
4833.96980,0.00212
4832.93954,0.00123
4831.90928,0.00072
4830.87902,0.00119
4829.84877,0.00129
4828.81851,0.00022
4827.78825,-0.00021
4826.75799,0.00033
4825.72773,0.00023
4824.69748,0.00004
4823.66722,0.00066
4822.63696,0.00113
4821.60670,0.00123
4820.57645,0.00082
4819.54619,-0.00004
4818.51593,-0.00047
4817.48567,-0.00072
4816.45541,-0.00085
4815.42516,-0.00020
4814.39490,0.00072
4813.36464,0.00112
4812.33438,0.00132
4811.30412,0.00102
4810.27387,-0.00026
4809.24361,-0.00126
4808.21335,-0.00136
4807.18309,-0.00127
4806.15284,-0.00112
4805.12258,-0.00033
4804.09232,0.00067
4803.06206,0.00086
4802.03180,0.00045
4801.00155,0.00002
4799.97129,0.00017
4798.94103,0.00067
4797.91077,0.00025
4796.88052,-0.00071
4795.85026,-0.00081
4794.82000,-0.00028
4793.78974,-0.00027
4792.75948,-0.00057
4791.72923,-0.00043
4790.69897,-0.00032
4789.66871,-0.00020
4788.63845,0.00021
4787.60819,-0.00009
4786.57794,-0.00120
4785.54768,-0.00154
4784.51742,-0.00062
4783.48716,0.00006
4782.45691,-0.00031
4781.42665,-0.00077
4780.39639,-0.00040
4779.36613,0.00075
4778.33587,0.00176
4777.30562,0.00160
4776.27536,0.00073
4775.24510,0.00061
4774.21484,0.00168
4773.18458,0.00256
4772.15433,0.00184
4771.12407,0.00099
4770.09381,0.00158
4769.06355,0.00211
4768.03330,0.00154
4767.00304,0.00064
4765.97278,-0.00054
4764.94252,-0.00144
4763.91226,-0.00118
4762.88201,-0.00050
4761.85175,-0.00055
4760.82149,-0.00093
4759.79123,-0.00061
4758.76098,-0.00010
4757.73072,0.00038
4756.70046,0.00127
4755.67020,0.00204
4754.63994,0.00182
4753.60969,0.00054
4752.57943,-0.00074
4751.54917,-0.00074
4750.51891,0.00006
4749.48865,0.00024
4748.45840,0.00013
4747.42814,0.00060
4746.39788,0.00112
4745.36762,0.00099
4744.33737,0.00043
4743.30711,-0.00004
4742.27685,-0.00022
4741.24659,-0.00042
4740.21633,-0.00037
4739.18608,0.00038
4738.15582,0.00047
4737.12556,-0.00038
4736.09530,-0.00102
4735.06504,-0.00159
4734.03479,-0.00201
4733.00453,-0.00173
4731.97427,-0.00115
4730.94401,-0.00105
4729.91376,-0.00138
4728.88350,-0.00156
4727.85324,-0.00171
4726.82298,-0.00165
4725.79272,-0.00087
4724.76247,-0.00015
4723.73221,0.00004
4722.70195,0.00035
4721.67169,0.00094
4720.64143,0.00110
4719.61118,0.00039
4718.58092,-0.00025
4717.55066,0.00011
4716.52040,0.00097
4715.49015,0.00159
4714.45989,0.00132
4713.42963,0.00040
4712.39937,-0.00024
4711.36911,-0.00047
4710.33886,-0.00022
4709.30860,0.00039
4708.27834,0.00051
4707.24808,-0.00006
4706.21783,-0.00024
4705.18757,-0.00011
4704.15731,-0.00047
4703.12705,-0.00073
4702.09679,-0.00067
4701.06654,-0.00034
4700.03628,0.00038
4699.00602,0.00095
4697.97576,0.00069
4696.94550,0.00014
4695.91525,0.00025
4694.88499,0.00031
4693.85473,-0.00033
4692.82447,-0.00097
4691.79422,-0.00100
4690.76396,-0.00039
4689.73370,0.00004
4688.70344,-0.00031
4687.67318,-0.00040
4686.64293,0.00036
4685.61267,0.00098
4684.58241,0.00083
4683.55215,0.00026
4682.52189,-0.00028
4681.49164,-0.00021
4680.46138,0.00054
4679.43112,0.00096
4678.40086,0.00093
4677.37061,0.00129
4676.34035,0.00173
4675.31009,0.00134
4674.27983,0.00072
4673.24957,0.00097
4672.21932,0.00149
4671.18906,0.00140
4670.15880,0.00116
4669.12854,0.00096
4668.09828,0.00058
4667.06803,0.00036
4666.03777,0.00006
4665.00751,-0.00036
4663.97725,-0.00021
4662.94700,0.00026
4661.91674,0.00020
4660.88648,-0.00024
4659.85622,-0.00059
4658.82596,-0.00066
4657.79571,-0.00015
4656.76545,0.00043
4655.73519,0.00041
4654.70493,0.00005
4653.67468,0.00002
4652.64442,0.00066
4651.61416,0.00102
4650.58390,0.00027
4649.55364,-0.00031
4648.52339,0.00013
4647.49313,0.00070
4646.46287,0.00068
4645.43261,0.00016
4644.40235,-0.00059
4643.37210,-0.00101
4642.34184,-0.00058
4641.31158,0.00003
4640.28132,0.00016
4639.25107,0.00017
4638.22081,-0.00005
4637.19055,-0.00025
4636.16029,0.00027
4635.13003,0.00107
4634.09978,0.00162
4633.06952,0.00179
4632.03926,0.00106
4631.00900,0.00029
4629.97874,0.00076
4628.94849,0.00160
4627.91823,0.00133
4626.88797,0.00023
4625.85771,-0.00036
4624.82746,-0.00024
4623.79720,-0.00028
4622.76694,-0.00047
4621.73668,-0.00020
4620.70642,0.00042
4619.67617,0.00046
4618.64591,-0.00022
4617.61565,-0.00059
4616.58539,-0.00065
4615.55513,-0.00084
4614.52488,-0.00116
4613.49462,-0.00122
4612.46436,-0.00063
4611.43410,-0.00015
4610.40385,-0.00032
4609.37359,-0.00070
4608.34333,-0.00091
4607.31307,-0.00073
4606.28281,-0.00011
4605.25256,-0.00015
4604.22230,-0.00133
4603.19204,-0.00178
4602.16178,-0.00091
4601.13153,-0.00037
4600.10127,-0.00020
4599.07101,0.00021
4598.04075,0.00048
4597.01049,0.00044
4595.98024,0.00024
4594.94998,0.00012
4593.91972,-0.00005
4592.88946,-0.00027
4591.85920,-0.00038
4590.82895,-0.00062
4589.79869,-0.00069
4588.76843,-0.00022
4587.73817,0.00030
4586.70792,0.00035
4585.67766,0.00009
4584.64740,-0.00009
4583.61714,0.00007
4582.58688,0.00037
4581.55663,0.00042
4580.52637,0.00013
4579.49611,-0.00016
4578.46585,-0.00021
4577.43559,0.00009
4576.40534,0.00079
4575.37508,0.00122
4574.34482,0.00121
4573.31456,0.00116
4572.28431,0.00104
4571.25405,0.00100
4570.22379,0.00079
4569.19353,0.00015
4568.16327,-0.00049
4567.13302,-0.00082
4566.10276,-0.00063
4565.07250,-0.00004
4564.04224,0.00027
4563.01198,-0.00001
4561.98173,-0.00016
4560.95147,0.00015
4559.92121,0.00028
4558.89095,0.00021
4557.86070,0.00043
4556.83044,0.00079
4555.80018,0.00077
4554.76992,0.00055
4553.73966,0.00071
4552.70941,0.00108
4551.67915,0.00067
4550.64889,-0.00054
4549.61863,-0.00090
4548.58838,-0.00004
4547.55812,0.00114
4546.52786,0.00230
4545.49760,0.00248
4544.46734,0.00131
4543.43709,0.00009
4542.40683,-0.00069
4541.37657,-0.00126
4540.34631,-0.00116
4539.31605,-0.00032
4538.28580,0.00009
4537.25554,-0.00022
4536.22528,-0.00047
4535.19502,-0.00094
4534.16477,-0.00141
4533.13451,-0.00123
4532.10425,-0.00078
4531.07399,-0.00042
4530.04373,-0.00043
4529.01348,-0.00066
4527.98322,-0.00044
4526.95296,-0.00012
4525.92270,-0.00003
4524.89244,0.00012
4523.86219,0.00048
4522.83193,0.00113
4521.80167,0.00186
4520.77141,0.00218
4519.74116,0.00170
4518.71090,0.00059
4517.68064,-0.00029
4516.65038,-0.00053
4515.62012,-0.00046
4514.58987,-0.00021
4513.55961,-0.00018
4512.52935,-0.00086
4511.49909,-0.00130
4510.46883,-0.00071
4509.43858,-0.00033
4508.40832,-0.00061
4507.37806,-0.00059
4506.34780,-0.00040
4505.31755,-0.00020
4504.28729,-0.00002
4503.25703,-0.00070
4502.22677,-0.00146
4501.19651,-0.00131
4500.16626,-0.00109
4499.13600,-0.00096
4498.10574,-0.00057
4497.07548,-0.00024
4496.04523,0.00004
4495.01497,0.00014
4493.98471,-0.00006
4492.95445,0.00013
4491.92419,0.00048
4490.89394,0.00005
4489.86368,-0.00058
4488.83342,-0.00051
4487.80316,-0.00013
4486.77290,-0.00002
4485.74265,0.00032
4484.71239,0.00091
4483.68213,0.00090
4482.65187,0.00063
4481.62162,0.00032
4480.59136,-0.00006
4479.56110,-0.00025
4478.53084,-0.00022
4477.50058,0.00013
4476.47033,0.00055
4475.44007,0.00069
4474.40981,0.00055
4473.37955,0.00048
4472.34929,0.00050
4471.31904,0.00042
4470.28878,0.00038
4469.25852,0.00042
4468.22826,0.00036
4467.19801,0.00015
4466.16775,0.00006
4465.13749,0.00013
4464.10723,0.00020
4463.07697,0.00018
4462.04672,0.00015
4461.01646,-0.00011
4459.98620,-0.00059
4458.95594,-0.00070
4457.92568,-0.00023
4456.89543,0.00047
4455.86517,0.00083
4454.83491,0.00075
4453.80465,0.00057
4452.77440,0.00032
4451.74414,-0.00020
4450.71388,-0.00089
4449.68362,-0.00092
4448.65336,0.00009
4447.62311,0.00094
4446.59285,0.00092
4445.56259,0.00061
4444.53233,0.00048
4443.50208,0.00057
4442.47182,0.00051
4441.44156,0.00024
4440.41130,0.00007
4439.38104,0.00003
4438.35079,0.00015
4437.32053,0.00009
4436.29027,0.00013
4435.26001,0.00061
4434.22975,0.00098
4433.19950,0.00102
4432.16924,0.00072
4431.13898,0.00030
4430.10872,0.00013
4429.07847,0.00011
4428.04821,0.00007
4427.01795,0.00003
4425.98769,-0.00021
4424.95743,-0.00070
4423.92718,-0.00064
4422.89692,0.00021
4421.86666,0.00089
4420.83640,0.00080
4419.80614,0.00043
4418.77589,0.00012
4417.74563,0.00035
4416.71537,0.00112
4415.68511,0.00130
4414.65486,0.00069
4413.62460,0.00029
4412.59434,0.00004
4411.56408,0.00002
4410.53382,0.00045
4409.50357,0.00061
4408.47331,0.00033
4407.44305,-0.00000
4406.41279,-0.00008
4405.38253,-0.00004
4404.35228,-0.00011
4403.32202,-0.00001
4402.29176,0.00020
4401.26150,0.00030
4400.23125,0.00042
4399.20099,0.00069
4398.17073,0.00081
4397.14047,0.00052
4396.11021,0.00037
4395.07996,0.00098
4394.04970,0.00149
4393.01944,0.00120
4391.98918,0.00082
4390.95893,0.00073
4389.92867,0.00074
4388.89841,0.00108
4387.86815,0.00156
4386.83789,0.00172
4385.80764,0.00145
4384.77738,0.00082
4383.74712,0.00056
4382.71686,0.00097
4381.68660,0.00138
4380.65635,0.00142
4379.62609,0.00140
4378.59583,0.00148
4377.56557,0.00098
4376.53532,-0.00001
4375.50506,-0.00025
4374.47480,0.00046
4373.44454,0.00082
4372.41428,0.00036
4371.38403,0.00030
4370.35377,0.00113
4369.32351,0.00180
4368.29325,0.00175
4367.26299,0.00159
4366.23274,0.00158
4365.20248,0.00149
4364.17222,0.00143
4363.14196,0.00156
4362.11171,0.00178
4361.08145,0.00201
4360.05119,0.00234
4359.02093,0.00247
4357.99067,0.00209
4356.96042,0.00178
4355.93016,0.00141
4354.89990,0.00081
4353.86964,0.00075
4352.83939,0.00140
4351.80913,0.00210
4350.77887,0.00218
4349.74861,0.00185
4348.71835,0.00140
4347.68810,0.00095
4346.65784,0.00066
4345.62758,0.00078
4344.59732,0.00122
4343.56706,0.00141
4342.53681,0.00119
4341.50655,0.00105
4340.47629,0.00131
4339.44603,0.00139
4338.41578,0.00107
4337.38552,0.00087
4336.35526,0.00096
4335.32500,0.00092
4334.29474,0.00052
4333.26449,0.00024
4332.23423,0.00024
4331.20397,0.00033
4330.17371,0.00062
4329.14345,0.00087
4328.11320,0.00089
4327.08294,0.00090
4326.05268,0.00075
4325.02242,0.00064
4323.99217,0.00090
4322.96191,0.00131
4321.93165,0.00140
4320.90139,0.00122
4319.87113,0.00130
4318.84088,0.00131
4317.81062,0.00110
4316.78036,0.00113
4315.75010,0.00117
4314.71984,0.00088
4313.68959,0.00071
4312.65933,0.00086
4311.62907,0.00087
4310.59881,0.00102
4309.56856,0.00139
4308.53830,0.00154
4307.50804,0.00138
4306.47778,0.00092
4305.44752,0.00044
4304.41727,0.00040
4303.38701,0.00078
4302.35675,0.00109
4301.32649,0.00121
4300.29624,0.00138
4299.26598,0.00130
4298.23572,0.00106
4297.20546,0.00120
4296.17520,0.00147
4295.14495,0.00162
4294.11469,0.00189
4293.08443,0.00207
4292.05417,0.00207
4291.02391,0.00205
4289.99366,0.00180
4288.96340,0.00137
4287.93314,0.00087
4286.90288,0.00043
4285.87263,0.00029
4284.84237,0.00019
4283.81211,0.00029
4282.78185,0.00083
4281.75159,0.00110
4280.72134,0.00092
4279.69108,0.00064
4278.66082,0.00067
4277.63056,0.00120
4276.60030,0.00128
4275.57005,0.00067
4274.53979,0.00064
4273.50953,0.00148
4272.47927,0.00214
4271.44902,0.00225
4270.41876,0.00210
4269.38850,0.00148
4268.35824,0.00061
4267.32798,0.00025
4266.29773,0.00031
4265.26747,0.00047
4264.23721,0.00086
4263.20695,0.00098
4262.17669,0.00083
4261.14644,0.00098
4260.11618,0.00122
4259.08592,0.00135
4258.05566,0.00121
4257.02541,0.00070
4255.99515,0.00057
4254.96489,0.00116
4253.93463,0.00159
4252.90437,0.00152
4251.87412,0.00127
4250.84386,0.00098
4249.81360,0.00111
4248.78334,0.00155
4247.75309,0.00168
4246.72283,0.00136
4245.69257,0.00089
4244.66231,0.00080
4243.63205,0.00096
4242.60180,0.00111
4241.57154,0.00149
4240.54128,0.00177
4239.51102,0.00137
4238.48076,0.00082
4237.45051,0.00088
4236.42025,0.00138
4235.38999,0.00192
4234.35973,0.00226
4233.32948,0.00213
4232.29922,0.00156
4231.26896,0.00121
4230.23870,0.00161
4229.20844,0.00196
4228.17819,0.00157
4227.14793,0.00137
4226.11767,0.00181
4225.08741,0.00196
4224.05715,0.00148
4223.02690,0.00100
4221.99664,0.00066
4220.96638,0.00045
4219.93612,0.00078
4218.90587,0.00140
4217.87561,0.00142
4216.84535,0.00118
4215.81509,0.00127
4214.78483,0.00140
4213.75458,0.00166
4212.72432,0.00191
4211.69406,0.00173
4210.66380,0.00127
4209.63354,0.00108
4208.60329,0.00091
4207.57303,0.00035
4206.54277,-0.00003
4205.51251,-0.00002
4204.48226,0.00035
4203.45200,0.00115
4202.42174,0.00164
4201.39148,0.00146
4200.36122,0.00106
4199.33097,0.00047
4198.30071,-0.00006
4197.27045,0.00047
4196.24019,0.00156
4195.20994,0.00170
4194.17968,0.00100
4193.14942,0.00049
4192.11916,0.00065
4191.08890,0.00126
4190.05865,0.00159
4189.02839,0.00129
4187.99813,0.00092
4186.96787,0.00083
4185.93761,0.00073
4184.90736,0.00067
4183.87710,0.00105
4182.84684,0.00142
4181.81658,0.00123
4180.78633,0.00133
4179.75607,0.00196
4178.72581,0.00214
4177.69555,0.00187
4176.66529,0.00150
4175.63504,0.00125
4174.60478,0.00113
4173.57452,0.00076
4172.54426,0.00030
4171.51400,0.00033
4170.48375,0.00084
4169.45349,0.00114
4168.42323,0.00105
4167.39297,0.00099
4166.36272,0.00081
4165.33246,0.00040
4164.30220,0.00026
4163.27194,0.00058
4162.24168,0.00111
4161.21143,0.00170
4160.18117,0.00229
4159.15091,0.00249
4158.12065,0.00184
4157.09039,0.00076
4156.06014,0.00003
4155.02988,-0.00004
4153.99962,0.00042
4152.96936,0.00106
4151.93911,0.00166
4150.90885,0.00180
4149.87859,0.00150
4148.84833,0.00146
4147.81807,0.00157
4146.78782,0.00137
4145.75756,0.00119
4144.72730,0.00129
4143.69704,0.00182
4142.66679,0.00222
4141.63653,0.00178
4140.60627,0.00112
4139.57601,0.00069
4138.54575,0.00046
4137.51550,0.00082
4136.48524,0.00119
4135.45498,0.00086
4134.42472,0.00063
4133.39446,0.00074
4132.36421,0.00067
4131.33395,0.00072
4130.30369,0.00092
4129.27343,0.00118
4128.24318,0.00156
4127.21292,0.00165
4126.18266,0.00149
4125.15240,0.00154
4124.12214,0.00152
4123.09189,0.00134
4122.06163,0.00130
4121.03137,0.00123
4120.00111,0.00106
4118.97085,0.00103
4117.94060,0.00104
4116.91034,0.00092
4115.88008,0.00079
4114.84982,0.00057
4113.81957,0.00026
4112.78931,0.00031
4111.75905,0.00069
4110.72879,0.00087
4109.69853,0.00082
4108.66828,0.00088
4107.63802,0.00094
4106.60776,0.00078
4105.57750,0.00061
4104.54724,0.00070
4103.51699,0.00108
4102.48673,0.00157
4101.45647,0.00149
4100.42621,0.00094
4099.39596,0.00115
4098.36570,0.00193
4097.33544,0.00209
4096.30518,0.00147
4095.27492,0.00079
4094.24467,0.00069
4093.21441,0.00093
4092.18415,0.00106
4091.15389,0.00124
4090.12364,0.00150
4089.09338,0.00150
4088.06312,0.00126
4087.03286,0.00100
4086.00260,0.00116
4084.97235,0.00199
4083.94209,0.00261
4082.91183,0.00237
4081.88157,0.00186
4080.85131,0.00159
4079.82106,0.00137
4078.79080,0.00108
4077.76054,0.00083
4076.73028,0.00052
4075.70003,0.00065
4074.66977,0.00154
4073.63951,0.00215
4072.60925,0.00208
4071.57899,0.00198
4070.54874,0.00218
4069.51848,0.00252
4068.48822,0.00257
4067.45796,0.00217
4066.42770,0.00186
4065.39745,0.00207
4064.36719,0.00234
4063.33693,0.00231
4062.30667,0.00220
4061.27642,0.00194
4060.24616,0.00132
4059.21590,0.00087
4058.18564,0.00094
4057.15538,0.00125
4056.12513,0.00152
4055.09487,0.00160
4054.06461,0.00165
4053.03435,0.00187
4052.00409,0.00219
4050.97384,0.00240
4049.94358,0.00237
4048.91332,0.00210
4047.88306,0.00185
4046.85281,0.00190
4045.82255,0.00205
4044.79229,0.00211
4043.76203,0.00205
4042.73177,0.00190
4041.70152,0.00186
4040.67126,0.00195
4039.64100,0.00203
4038.61074,0.00202
4037.58049,0.00199
4036.55023,0.00225
4035.51997,0.00266
4034.48971,0.00260
4033.45945,0.00232
4032.42920,0.00243
4031.39894,0.00283
4030.36868,0.00308
4029.33842,0.00299
4028.30816,0.00284
4027.27791,0.00289
4026.24765,0.00284
4025.21739,0.00261
4024.18713,0.00255
4023.15688,0.00266
4022.12662,0.00253
4021.09636,0.00229
4020.06610,0.00255
4019.03584,0.00285
4018.00559,0.00267
4016.97533,0.00263
4015.94507,0.00290
4014.91481,0.00310
4013.88455,0.00340
4012.85430,0.00372
4011.82404,0.00341
4010.79378,0.00260
4009.76352,0.00229
4008.73327,0.00256
4007.70301,0.00271
4006.67275,0.00271
4005.64249,0.00266
4004.61223,0.00268
4003.58198,0.00274
4002.55172,0.00232
4001.52146,0.00196
4000.49120,0.00222
3999.46095,0.00246
3998.43069,0.00245
3997.40043,0.00226
3996.37017,0.00203
3995.33991,0.00217
3994.30966,0.00257
3993.27940,0.00260
3992.24914,0.00209
3991.21888,0.00159
3990.18862,0.00155
3989.15837,0.00191
3988.12811,0.00241
3987.09785,0.00273
3986.06759,0.00265
3985.03734,0.00253
3984.00708,0.00270
3982.97682,0.00269
3981.94656,0.00239
3980.91630,0.00251
3979.88605,0.00294
3978.85579,0.00313
3977.82553,0.00329
3976.79527,0.00339
3975.76501,0.00302
3974.73476,0.00225
3973.70450,0.00176
3972.67424,0.00192
3971.64398,0.00227
3970.61373,0.00243
3969.58347,0.00252
3968.55321,0.00240
3967.52295,0.00187
3966.49269,0.00154
3965.46244,0.00177
3964.43218,0.00198
3963.40192,0.00174
3962.37166,0.00161
3961.34140,0.00184
3960.31115,0.00183
3959.28089,0.00151
3958.25063,0.00131
3957.22037,0.00157
3956.19012,0.00233
3955.15986,0.00276
3954.12960,0.00239
3953.09934,0.00199
3952.06908,0.00195
3951.03883,0.00169
3950.00857,0.00137
3948.97831,0.00166
3947.94805,0.00235
3946.91780,0.00270
3945.88754,0.00247
3944.85728,0.00228
3943.82702,0.00238
3942.79676,0.00232
3941.76651,0.00206
3940.73625,0.00206
3939.70599,0.00248
3938.67573,0.00286
3937.64547,0.00264
3936.61522,0.00209
3935.58496,0.00184
3934.55470,0.00195
3933.52444,0.00209
3932.49419,0.00212
3931.46393,0.00226
3930.43367,0.00253
3929.40341,0.00241
3928.37315,0.00177
3927.34290,0.00117
3926.31264,0.00087
3925.28238,0.00071
3924.25212,0.00068
3923.22186,0.00089
3922.19161,0.00109
3921.16135,0.00096
3920.13109,0.00066
3919.10083,0.00053
3918.07058,0.00077
3917.04032,0.00129
3916.01006,0.00152
3914.97980,0.00146
3913.94954,0.00179
3912.91929,0.00189
3911.88903,0.00119
3910.85877,0.00059
3909.82851,0.00069
3908.79825,0.00105
3907.76800,0.00122
3906.73774,0.00135
3905.70748,0.00165
3904.67722,0.00152
3903.64697,0.00086
3902.61671,0.00093
3901.58645,0.00177
3900.55619,0.00223
3899.52593,0.00211
3898.49568,0.00181
3897.46542,0.00142
3896.43516,0.00117
3895.40490,0.00122
3894.37465,0.00136
3893.34439,0.00169
3892.31413,0.00195
3891.28387,0.00158
3890.25361,0.00150
3889.22336,0.00184
3888.19310,0.00166
3887.16284,0.00117
3886.13258,0.00084
3885.10232,0.00070
3884.07207,0.00071
3883.04181,0.00098
3882.01155,0.00144
3880.98129,0.00164
3879.95104,0.00156
3878.92078,0.00126
3877.89052,0.00068
3876.86026,0.00058
3875.83000,0.00082
3874.79975,0.00068
3873.76949,0.00074
3872.73923,0.00142
3871.70897,0.00220
3870.67871,0.00239
3869.64846,0.00164
3868.61820,0.00124
3867.58794,0.00136
3866.55768,0.00126
3865.52743,0.00091
3864.49717,0.00068
3863.46691,0.00093
3862.43665,0.00117
3861.40639,0.00125
3860.37614,0.00135
3859.34588,0.00141
3858.31562,0.00127
3857.28536,0.00080
3856.25510,0.00063
3855.22485,0.00143
3854.19459,0.00271
3853.16433,0.00282
3852.13407,0.00187
3851.10382,0.00105
3850.07356,0.00088
3849.04330,0.00085
3848.01304,0.00056
3846.98278,0.00070
3845.95253,0.00151
3844.92227,0.00196
3843.89201,0.00125
3842.86175,0.00024
3841.83150,0.00003
3840.80124,0.00045
3839.77098,0.00090
3838.74072,0.00110
3837.71046,0.00115
3836.68021,0.00128
3835.64995,0.00118
3834.61969,0.00091
3833.58943,0.00108
3832.55917,0.00118
3831.52892,0.00087
3830.49866,0.00089
3829.46840,0.00114
3828.43814,0.00108
3827.40789,0.00089
3826.37763,0.00080
3825.34737,0.00087
3824.31711,0.00100
3823.28685,0.00106
3822.25660,0.00128
3821.22634,0.00170
3820.19608,0.00185
3819.16582,0.00183
3818.13556,0.00173
3817.10531,0.00143
3816.07505,0.00093
3815.04479,0.00040
3814.01453,0.00071
3812.98428,0.00178
3811.95402,0.00235
3810.92376,0.00209
3809.89350,0.00170
3808.86324,0.00132
3807.83299,0.00101
3806.80273,0.00074
3805.77247,0.00057
3804.74221,0.00089
3803.71195,0.00148
3802.68170,0.00138
3801.65144,0.00017
3800.62118,-0.00017
3799.59092,0.00075
3798.56067,0.00139
3797.53041,0.00145
3796.50015,0.00132
3795.46989,0.00143
3794.43963,0.00139
3793.40938,0.00137
3792.37912,0.00183
3791.34886,0.00216
3790.31860,0.00189
3789.28835,0.00143
3788.25809,0.00108
3787.22783,0.00092
3786.19757,0.00115
3785.16731,0.00154
3784.13706,0.00151
3783.10680,0.00126
3782.07654,0.00136
3781.04628,0.00174
3780.01602,0.00185
3778.98577,0.00150
3777.95551,0.00141
3776.92525,0.00157
3775.89499,0.00136
3774.86474,0.00088
3773.83448,0.00063
3772.80422,0.00092
3771.77396,0.00156
3770.74370,0.00230
3769.71345,0.00273
3768.68319,0.00228
3767.65293,0.00155
3766.62267,0.00128
3765.59241,0.00118
3764.56216,0.00081
3763.53190,0.00069
3762.50164,0.00102
3761.47138,0.00143
3760.44113,0.00146
3759.41087,0.00124
3758.38061,0.00157
3757.35035,0.00208
3756.32009,0.00227
3755.28984,0.00236
3754.25958,0.00213
3753.22932,0.00185
3752.19906,0.00210
3751.16880,0.00191
3750.13855,0.00106
3749.10829,0.00088
3748.07803,0.00145
3747.04777,0.00193
3746.01752,0.00228
3744.98726,0.00176
3743.95700,0.00069
3742.92674,0.00144
3741.89648,0.00239
3740.86623,0.00273
3739.83597,0.00252
3738.80571,0.00211
3737.77545,0.00216
3736.74520,0.00231
3735.71494,0.00186
3734.68468,0.00182
3733.65442,0.00279
3732.62416,0.00316
3731.59391,0.00256
3730.56365,0.00256
3729.53339,0.00309
3728.50313,0.00309
3727.47287,0.00249
3726.44262,0.00189
3725.41236,0.00161
3724.38210,0.00177
3723.35184,0.00210
3722.32159,0.00220
3721.29133,0.00240
3720.26107,0.00279
3719.23081,0.00297
3718.20055,0.00286
3717.17030,0.00278
3716.14004,0.00280
3715.10978,0.00251
3714.07952,0.00227
3713.04926,0.00261
3712.01901,0.00295
3710.98875,0.00287
3709.95849,0.00295
3708.92823,0.00360
3707.89798,0.00404
3706.86772,0.00384
3705.83746,0.00374
3704.80720,0.00392
3703.77694,0.00402
3702.74669,0.00410
3701.71643,0.00385
3700.68617,0.00337
3699.65591,0.00341
3698.62565,0.00406
3697.59540,0.00474
3696.56514,0.00474
3695.53488,0.00439
3694.50462,0.00430
3693.47437,0.00420
3692.44411,0.00413
3691.41385,0.00436
3690.38359,0.00464
3689.35333,0.00490
3688.32308,0.00568
3687.29282,0.00632
3686.26256,0.00598
3685.23230,0.00541
3684.20205,0.00552
3683.17179,0.00609
3682.14153,0.00639
3681.11127,0.00656
3680.08101,0.00675
3679.05076,0.00699
3678.02050,0.00741
3676.99024,0.00762
3675.95998,0.00748
3674.92972,0.00746
3673.89947,0.00792
3672.86921,0.00875
3671.83895,0.00940
3670.80869,0.00935
3669.77844,0.00928
3668.74818,0.00973
3667.71792,0.01013
3666.68766,0.01040
3665.65740,0.01049
3664.62715,0.01073
3663.59689,0.01130
3662.56663,0.01191
3661.53637,0.01253
3660.50611,0.01299
3659.47586,0.01334
3658.44560,0.01413
3657.41534,0.01467
3656.38508,0.01406
3655.35483,0.01375
3654.32457,0.01448
3653.29431,0.01545
3652.26405,0.01600
3651.23379,0.01595
3650.20354,0.01654
3649.17328,0.01783
3648.14302,0.01838
3647.11276,0.01858
3646.08250,0.01896
3645.05225,0.01946
3644.02199,0.01999
3642.99173,0.02042
3641.96147,0.02091
3640.93122,0.02160
3639.90096,0.02224
3638.87070,0.02261
3637.84044,0.02310
3636.81018,0.02402
3635.77993,0.02471
3634.74967,0.02491
3633.71941,0.02504
3632.68915,0.02529
3631.65890,0.02581
3630.62864,0.02690
3629.59838,0.02795
3628.56812,0.02771
3627.53786,0.02744
3626.50761,0.02848
3625.47735,0.02982
3624.44709,0.03059
3623.41683,0.03147
3622.38657,0.03283
3621.35632,0.03385
3620.32606,0.03401
3619.29580,0.03425
3618.26554,0.03542
3617.23529,0.03618
3616.20503,0.03604
3615.17477,0.03629
3614.14451,0.03724
3613.11425,0.03776
3612.08400,0.03773
3611.05374,0.03851
3610.02348,0.03995
3608.99322,0.04127
3607.96296,0.04254
3606.93271,0.04373
3605.90245,0.04449
3604.87219,0.04491
3603.84193,0.04530
3602.81168,0.04586
3601.78142,0.04695
3600.75116,0.04812
3599.72090,0.04863
3598.69064,0.04887
3597.66039,0.04929
3596.63013,0.05016
3595.59987,0.05145
3594.56961,0.05279
3593.53936,0.05389
3592.50910,0.05501
3591.47884,0.05625
3590.44858,0.05711
3589.41832,0.05771
3588.38807,0.05823
3587.35781,0.05845
3586.32755,0.05865
3585.29729,0.05942
3584.26703,0.06076
3583.23678,0.06232
3582.20652,0.06356
3581.17626,0.06411
3580.14600,0.06467
3579.11575,0.06570
3578.08549,0.06688
3577.05523,0.06790
3576.02497,0.06860
3574.99471,0.06914
3573.96446,0.06986
3572.93420,0.07114
3571.90394,0.07269
3570.87368,0.07380
3569.84342,0.07435
3568.81317,0.07476
3567.78291,0.07579
3566.75265,0.07737
3565.72239,0.07874
3564.69214,0.07998
3563.66188,0.08127
3562.63162,0.08226
3561.60136,0.08245
3560.57110,0.08246
3559.54085,0.08320
3558.51059,0.08432
3557.48033,0.08540
3556.45007,0.08653
3555.41981,0.08760
3554.38956,0.08831
3553.35930,0.08892
3552.32904,0.08967
3551.29878,0.09027
3550.26853,0.09089
3549.23827,0.09209
3548.20801,0.09362
3547.17775,0.09454
3546.14749,0.09510
3545.11724,0.09620
3544.08698,0.09715
3543.05672,0.09787
3542.02646,0.09899
3540.99621,0.10001
3539.96595,0.10069
3538.93569,0.10102
3537.90543,0.10100
3536.87517,0.10176
3535.84492,0.10323
3534.81466,0.10422
3533.78440,0.10484
3532.75414,0.10530
3531.72388,0.10554
3530.69363,0.10622
3529.66337,0.10746
3528.63311,0.10850
3527.60285,0.10909
3526.57260,0.10942
3525.54234,0.10971
3524.51208,0.11037
3523.48182,0.11138
3522.45156,0.11228
3521.42131,0.11298
3520.39105,0.11351
3519.36079,0.11372
3518.33053,0.11401
3517.30027,0.11479
3516.27002,0.11541
3515.23976,0.11569
3514.20950,0.11624
3513.17924,0.11697
3512.14899,0.11743
3511.11873,0.11748
3510.08847,0.11776
3509.05821,0.11864
3508.02795,0.11952
3506.99770,0.12014
3505.96744,0.12045
3504.93718,0.12054
3503.90692,0.12059
3502.87666,0.12039
3501.84641,0.12046
3500.81615,0.12137
3499.78589,0.12230
3498.75563,0.12274
3497.72538,0.12320
3496.69512,0.12362
3495.66486,0.12384
3494.63460,0.12404
3493.60434,0.12426
3492.57409,0.12451
3491.54383,0.12471
3490.51357,0.12509
3489.48331,0.12591
3488.45306,0.12678
3487.42280,0.12699
3486.39254,0.12664
3485.36228,0.12682
3484.33202,0.12772
3483.30177,0.12794
3482.27151,0.12720
3481.24125,0.12694
3480.21099,0.12741
3479.18073,0.12816
3478.15048,0.12902
3477.12022,0.12947
3476.08996,0.12974
3475.05970,0.13016
3474.02945,0.13045
3472.99919,0.13059
3471.96893,0.13072
3470.93867,0.13105
3469.90841,0.13167
3468.87816,0.13241
3467.84790,0.13273
3466.81764,0.13265
3465.78738,0.13268
3464.75712,0.13285
3463.72687,0.13315
3462.69661,0.13336
3461.66635,0.13339
3460.63609,0.13341
3459.60584,0.13337
3458.57558,0.13355
3457.54532,0.13422
3456.51506,0.13470
3455.48480,0.13450
3454.45455,0.13441
3453.42429,0.13481
3452.39403,0.13534
3451.36377,0.13553
3450.33351,0.13538
3449.30326,0.13582
3448.27300,0.13693
3447.24274,0.13755
3446.21248,0.13711
3445.18223,0.13620
3444.15197,0.13587
3443.12171,0.13629
3442.09145,0.13690
3441.06119,0.13730
3440.03094,0.13749
3439.00068,0.13774
3437.97042,0.13786
3436.94016,0.13785
3435.90991,0.13818
3434.87965,0.13832
3433.84939,0.13798
3432.81913,0.13773
3431.78887,0.13747
3430.75862,0.13739
3429.72836,0.13809
3428.69810,0.13903
3427.66784,0.13943
3426.63758,0.13958
3425.60733,0.13991
3424.57707,0.14048
3423.54681,0.14089
3422.51655,0.14092
3421.48630,0.14111
3420.45604,0.14134
3419.42578,0.14084
3418.39552,0.13979
3417.36526,0.13939
3416.33501,0.14003
3415.30475,0.14074
3414.27449,0.14103
3413.24423,0.14077
3412.21397,0.14030
3411.18372,0.14030
3410.15346,0.14063
3409.12320,0.14062
3408.09294,0.14014
3407.06269,0.13962
3406.03243,0.13929
3405.00217,0.13933
3403.97191,0.13958
3402.94165,0.13933
3401.91140,0.13854
3400.88114,0.13811
3399.85088,0.13843
3398.82062,0.13863
3397.79036,0.13806
3396.76011,0.13715
3395.72985,0.13655
3394.69959,0.13684
3393.66933,0.13754
3392.63908,0.13740
3391.60882,0.13706
3390.57856,0.13730
3389.54830,0.13738
3388.51804,0.13690
3387.48779,0.13618
3386.45753,0.13559
3385.42727,0.13528
3384.39701,0.13515
3383.36676,0.13471
3382.33650,0.13412
3381.30624,0.13378
3380.27598,0.13343
3379.24572,0.13327
3378.21547,0.13321
3377.18521,0.13259
3376.15495,0.13163
3375.12469,0.13100
3374.09443,0.13063
3373.06418,0.12985
3372.03392,0.12898
3371.00366,0.12861
3369.97340,0.12833
3368.94315,0.12776
3367.91289,0.12718
3366.88263,0.12666
3365.85237,0.12624
3364.82211,0.12604
3363.79186,0.12568
3362.76160,0.12516
3361.73134,0.12482
3360.70108,0.12443
3359.67082,0.12403
3358.64057,0.12384
3357.61031,0.12353
3356.58005,0.12260
3355.54979,0.12146
3354.51954,0.12069
3353.48928,0.12004
3352.45902,0.11941
3351.42876,0.11883
3350.39850,0.11840
3349.36825,0.11825
3348.33799,0.11799
3347.30773,0.11739
3346.27747,0.11651
3345.24721,0.11561
3344.21696,0.11535
3343.18670,0.11540
3342.15644,0.11489
3341.12618,0.11424
3340.09593,0.11389
3339.06567,0.11352
3338.03541,0.11305
3337.00515,0.11252
3335.97489,0.11196
3334.94464,0.11165
3333.91438,0.11156
3332.88412,0.11131
3331.85386,0.11061
3330.82361,0.10949
3329.79335,0.10879
3328.76309,0.10894
3327.73283,0.10901
3326.70257,0.10852
3325.67232,0.10801
3324.64206,0.10754
3323.61180,0.10685
3322.58154,0.10636
3321.55128,0.10625
3320.52103,0.10601
3319.49077,0.10547
3318.46051,0.10512
3317.43025,0.10483
3316.40000,0.10415
3315.36974,0.10351
3314.33948,0.10335
3313.30922,0.10344
3312.27896,0.10331
3311.24871,0.10302
3310.21845,0.10272
3309.18819,0.10241
3308.15793,0.10237
3307.12767,0.10240
3306.09742,0.10197
3305.06716,0.10144
3304.03690,0.10131
3303.00664,0.10109
3301.97639,0.10046
3300.94613,0.09993
3299.91587,0.09986
3298.88561,0.10002
3297.85535,0.09980
3296.82510,0.09915
3295.79484,0.09884
3294.76458,0.09886
3293.73432,0.09864
3292.70406,0.09852
3291.67381,0.09880
3290.64355,0.09906
3289.61329,0.09891
3288.58303,0.09833
3287.55278,0.09757
3286.52252,0.09666
3285.49226,0.09599
3284.46200,0.09602
3283.43174,0.09621
3282.40149,0.09610
3281.37123,0.09580
3280.34097,0.09558
3279.31071,0.09542
3278.28046,0.09484
3277.25020,0.09401
3276.21994,0.09365
3275.18968,0.09402
3274.15942,0.09465
3273.12917,0.09473
3272.09891,0.09403
3271.06865,0.09332
3270.03839,0.09285
3269.00813,0.09232
3267.97788,0.09200
3266.94762,0.09200
3265.91736,0.09201
3264.88710,0.09201
3263.85685,0.09182
3262.82659,0.09142
3261.79633,0.09076
3260.76607,0.08976
3259.73581,0.08915
3258.70556,0.08929
3257.67530,0.08942
3256.64504,0.08896
3255.61478,0.08809
3254.58452,0.08730
3253.55427,0.08701
3252.52401,0.08687
3251.49375,0.08637
3250.46349,0.08587
3249.43324,0.08566
3248.40298,0.08543
3247.37272,0.08499
3246.34246,0.08475
3245.31220,0.08467
3244.28195,0.08414
3243.25169,0.08339
3242.22143,0.08311
3241.19117,0.08300
3240.16092,0.08256
3239.13066,0.08210
3238.10040,0.08168
3237.07014,0.08085
3236.03988,0.07956
3235.00963,0.07860
3233.97937,0.07854
3232.94911,0.07849
3231.91885,0.07778
3230.88859,0.07704
3229.85834,0.07660
3228.82808,0.07616
3227.79782,0.07573
3226.76756,0.07525
3225.73731,0.07445
3224.70705,0.07348
3223.67679,0.07275
3222.64653,0.07249
3221.61627,0.07232
3220.58602,0.07180
3219.55576,0.07107
3218.52550,0.07030
3217.49524,0.06961
3216.46498,0.06922
3215.43473,0.06883
3214.40447,0.06816
3213.37421,0.06771
3212.34395,0.06746
3211.31370,0.06692
3210.28344,0.06616
3209.25318,0.06545
3208.22292,0.06499
3207.19266,0.06454
3206.16241,0.06402
3205.13215,0.06374
3204.10189,0.06342
3203.07163,0.06285
3202.04137,0.06228
3201.01112,0.06178
3199.98086,0.06120
3198.95060,0.06023
3197.92034,0.05920
3196.89009,0.05850
3195.85983,0.05799
3194.82957,0.05760
3193.79931,0.05705
3192.76905,0.05625
3191.73880,0.05548
3190.70854,0.05475
3189.67828,0.05419
3188.64802,0.05388
3187.61777,0.05353
3186.58751,0.05314
3185.55725,0.05271
3184.52699,0.05226
3183.49673,0.05184
3182.46648,0.05128
3181.43622,0.05079
3180.40596,0.05035
3179.37570,0.04975
3178.34544,0.04923
3177.31519,0.04854
3176.28493,0.04769
3175.25467,0.04719
3174.22441,0.04714
3173.19416,0.04714
3172.16390,0.04690
3171.13364,0.04632
3170.10338,0.04540
3169.07312,0.04453
3168.04287,0.04397
3167.01261,0.04369
3165.98235,0.04337
3164.95209,0.04290
3163.92183,0.04274
3162.89158,0.04283
3161.86132,0.04260
3160.83106,0.04203
3159.80080,0.04168
3158.77055,0.04145
3157.74029,0.04076
3156.71003,0.03968
3155.67977,0.03878
3154.64951,0.03833
3153.61926,0.03821
3152.58900,0.03823
3151.55874,0.03825
3150.52848,0.03808
3149.49822,0.03743
3148.46797,0.03676
3147.43771,0.03644
3146.40745,0.03607
3145.37719,0.03564
3144.34694,0.03527
3143.31668,0.03476
3142.28642,0.03431
3141.25616,0.03418
3140.22590,0.03408
3139.19565,0.03399
3138.16539,0.03384
3137.13513,0.03341
3136.10487,0.03289
3135.07462,0.03253
3134.04436,0.03231
3133.01410,0.03220
3131.98384,0.03197
3130.95358,0.03164
3129.92333,0.03151
3128.89307,0.03101
3127.86281,0.03005
3126.83255,0.02952
3125.80229,0.02926
3124.77204,0.02870
3123.74178,0.02814
3122.71152,0.02796
3121.68126,0.02794
3120.65101,0.02782
3119.62075,0.02771
3118.59049,0.02750
3117.56023,0.02710
3116.52997,0.02684
3115.49972,0.02670
3114.46946,0.02657
3113.43920,0.02627
3112.40894,0.02568
3111.37868,0.02550
3110.34843,0.02582
3109.31817,0.02575
3108.28791,0.02518
3107.25765,0.02455
3106.22740,0.02399
3105.19714,0.02371
3104.16688,0.02358
3103.13662,0.02338
3102.10636,0.02332
3101.07611,0.02337
3100.04585,0.02352
3099.01559,0.02366
3097.98533,0.02332
3096.95507,0.02245
3095.92482,0.02173
3094.89456,0.02155
3093.86430,0.02140
3092.83404,0.02120
3091.80379,0.02120
3090.77353,0.02116
3089.74327,0.02090
3088.71301,0.02067
3087.68275,0.02068
3086.65250,0.02075
3085.62224,0.02047
3084.59198,0.01987
3083.56172,0.01947
3082.53147,0.01954
3081.50121,0.01977
3080.47095,0.01981
3079.44069,0.01953
3078.41043,0.01911
3077.38018,0.01901
3076.34992,0.01894
3075.31966,0.01865
3074.28940,0.01848
3073.25914,0.01827
3072.22889,0.01790
3071.19863,0.01749
3070.16837,0.01720
3069.13811,0.01720
3068.10786,0.01719
3067.07760,0.01709
3066.04734,0.01719
3065.01708,0.01728
3063.98682,0.01707
3062.95657,0.01682
3061.92631,0.01673
3060.89605,0.01647
3059.86579,0.01618
3058.83553,0.01617
3057.80528,0.01618
3056.77502,0.01612
3055.74476,0.01600
3054.71450,0.01586
3053.68425,0.01579
3052.65399,0.01575
3051.62373,0.01559
3050.59347,0.01523
3049.56321,0.01485
3048.53296,0.01462
3047.50270,0.01474
3046.47244,0.01505
3045.44218,0.01510
3044.41192,0.01487
3043.38167,0.01457
3042.35141,0.01440
3041.32115,0.01425
3040.29089,0.01402
3039.26064,0.01396
3038.23038,0.01417
3037.20012,0.01445
3036.16986,0.01451
3035.13960,0.01436
3034.10935,0.01431
3033.07909,0.01431
3032.04883,0.01395
3031.01857,0.01338
3029.98832,0.01308
3028.95806,0.01319
3027.92780,0.01337
3026.89754,0.01320
3025.86728,0.01280
3024.83703,0.01259
3023.80677,0.01258
3022.77651,0.01253
3021.74625,0.01231
3020.71599,0.01228
3019.68574,0.01256
3018.65548,0.01293
3017.62522,0.01336
3016.59496,0.01348
3015.56471,0.01313
3014.53445,0.01281
3013.50419,0.01275
3012.47393,0.01280
3011.44367,0.01283
3010.41342,0.01271
3009.38316,0.01244
3008.35290,0.01240
3007.32264,0.01268
3006.29238,0.01285
3005.26213,0.01280
3004.23187,0.01284
3003.20161,0.01300
3002.17135,0.01301
3001.14110,0.01302
3000.11084,0.01334
2999.08058,0.01373
2998.05032,0.01380
2997.02006,0.01363
2995.98981,0.01349
2994.95955,0.01344
2993.92929,0.01369
2992.89903,0.01428
2991.86877,0.01486
2990.83852,0.01551
2989.80826,0.01624
2988.77800,0.01663
2987.74774,0.01676
2986.71749,0.01725
2985.68723,0.01804
2984.65697,0.01865
2983.62671,0.01930
2982.59645,0.02013
2981.56620,0.02087
2980.53594,0.02166
2979.50568,0.02266
2978.47542,0.02373
2977.44517,0.02481
2976.41491,0.02599
2975.38465,0.02740
2974.35439,0.02893
2973.32413,0.03045
2972.29388,0.03202
2971.26362,0.03349
2970.23336,0.03475
2969.20310,0.03607
2968.17284,0.03771
2967.14259,0.03953
2966.11233,0.04117
2965.08207,0.04268
2964.05181,0.04446
2963.02156,0.04628
2961.99130,0.04784
2960.96104,0.04947
2959.93078,0.05138
2958.90052,0.05333
2957.87027,0.05504
2956.84001,0.05658
2955.80975,0.05814
2954.77949,0.05954
2953.74923,0.06073
2952.71898,0.06216
2951.68872,0.06383
2950.65846,0.06506
2949.62820,0.06579
2948.59795,0.06685
2947.56769,0.06828
2946.53743,0.06958
2945.50717,0.07072
2944.47691,0.07173
2943.44666,0.07240
2942.41640,0.07286
2941.38614,0.07357
2940.35588,0.07462
2939.32562,0.07559
2938.29537,0.07637
2937.26511,0.07720
2936.23485,0.07811
2935.20459,0.07901
2934.17434,0.07982
2933.14408,0.08055
2932.11382,0.08161
2931.08356,0.08319
2930.05330,0.08469
2929.02305,0.08574
2927.99279,0.08667
2926.96253,0.08765
2925.93227,0.08849
2924.90202,0.08948
2923.87176,0.09101
2922.84150,0.09281
2921.81124,0.09458
2920.78098,0.09622
2919.75073,0.09758
2918.72047,0.09870
2917.69021,0.09953
2916.65995,0.10022
2915.62969,0.10129
2914.59944,0.10258
2913.56918,0.10364
2912.53892,0.10465
2911.50866,0.10563
2910.47841,0.10646
2909.44815,0.10717
2908.41789,0.10765
2907.38763,0.10783
2906.35737,0.10787
2905.32712,0.10816
2904.29686,0.10878
2903.26660,0.10946
2902.23634,0.11017
2901.20608,0.11066
2900.17583,0.11057
2899.14557,0.11040
2898.11531,0.11101
2897.08505,0.11228
2896.05480,0.11347
2895.02454,0.11442
2893.99428,0.11507
2892.96402,0.11544
2891.93376,0.11595
2890.90351,0.11693
2889.87325,0.11810
2888.84299,0.11893
2887.81273,0.11958
2886.78247,0.12048
2885.75222,0.12189
2884.72196,0.12375
2883.69170,0.12550
2882.66144,0.12678
2881.63119,0.12802
2880.60093,0.12956
2879.57067,0.13109
2878.54041,0.13242
2877.51015,0.13360
2876.47990,0.13479
2875.44964,0.13589
2874.41938,0.13650
2873.38912,0.13637
2872.35887,0.13599
2871.32861,0.13594
2870.29835,0.13589
2869.26809,0.13542
2868.23783,0.13453
2867.20758,0.13333
2866.17732,0.13183
2865.14706,0.12982
2864.11680,0.12739
2863.08654,0.12497
2862.05629,0.12241
2861.02603,0.11942
2859.99577,0.11629
2858.96551,0.11323
2857.93526,0.10984
2856.90500,0.10614
2855.87474,0.10277
2854.84448,0.09971
2853.81422,0.09643
2852.78397,0.09274
2851.75371,0.08901
2850.72345,0.08560
2849.69319,0.08255
2848.66293,0.07991
2847.63268,0.07744
2846.60242,0.07458
2845.57216,0.07160
2844.54190,0.06911
2843.51165,0.06703
2842.48139,0.06493
2841.45113,0.06269
2840.42087,0.06059
2839.39061,0.05874
2838.36036,0.05712
2837.33010,0.05540
2836.29984,0.05345
2835.26958,0.05170
2834.23933,0.05035
2833.20907,0.04927
2832.17881,0.04841
2831.14855,0.04762
2830.11829,0.04654
2829.08804,0.04531
2828.05778,0.04441
2827.02752,0.04356
2825.99726,0.04267
2824.96700,0.04206
2823.93675,0.04125
2822.90649,0.04030
2821.87623,0.03981
2820.84597,0.03942
2819.81572,0.03877
2818.78546,0.03794
2817.75520,0.03700
2816.72494,0.03627
2815.69468,0.03590
2814.66443,0.03550
2813.63417,0.03480
2812.60391,0.03393
2811.57365,0.03310
2810.54339,0.03228
2809.51314,0.03144
2808.48288,0.03093
2807.45262,0.03069
2806.42236,0.03036
2805.39211,0.02978
2804.36185,0.02911
2803.33159,0.02859
2802.30133,0.02823
2801.27107,0.02791
2800.24082,0.02719
2799.21056,0.02611
2798.18030,0.02539
2797.15004,0.02503
2796.11978,0.02471
2795.08953,0.02441
2794.05927,0.02384
2793.02901,0.02301
2791.99875,0.02240
2790.96850,0.02224
2789.93824,0.02222
2788.90798,0.02211
2787.87772,0.02168
2786.84746,0.02102
2785.81721,0.02040
2784.78695,0.01988
2783.75669,0.01951
2782.72643,0.01939
2781.69618,0.01930
2780.66592,0.01890
2779.63566,0.01836
2778.60540,0.01807
2777.57514,0.01801
2776.54489,0.01774
2775.51463,0.01715
2774.48437,0.01663
2773.45411,0.01649
2772.42385,0.01662
2771.39360,0.01658
2770.36334,0.01631
2769.33308,0.01614
2768.30282,0.01600
2767.27257,0.01585
2766.24231,0.01579
2765.21205,0.01575
2764.18179,0.01566
2763.15153,0.01550
2762.12128,0.01534
2761.09102,0.01515
2760.06076,0.01500
2759.03050,0.01494
2758.00024,0.01466
2756.96999,0.01428
2755.93973,0.01418
2754.90947,0.01431
2753.87921,0.01456
2752.84896,0.01487
2751.81870,0.01494
2750.78844,0.01470
2749.75818,0.01445
2748.72792,0.01449
2747.69767,0.01473
2746.66741,0.01479
2745.63715,0.01459
2744.60689,0.01432
2743.57663,0.01412
2742.54638,0.01403
2741.51612,0.01395
2740.48586,0.01392
2739.45560,0.01394
2738.42535,0.01369
2737.39509,0.01327
2736.36483,0.01304
2735.33457,0.01303
2734.30431,0.01305
2733.27406,0.01291
2732.24380,0.01271
2731.21354,0.01254
2730.18328,0.01226
2729.15303,0.01200
2728.12277,0.01209
2727.09251,0.01220
2726.06225,0.01203
2725.03199,0.01176
2724.00174,0.01161
2722.97148,0.01165
2721.94122,0.01161
2720.91096,0.01128
2719.88070,0.01086
2718.85045,0.01054
2717.82019,0.01047
2716.78993,0.01059
2715.75967,0.01050
2714.72942,0.01017
2713.69916,0.00988
2712.66890,0.00977
2711.63864,0.00977
2710.60838,0.00984
2709.57813,0.00982
2708.54787,0.00959
2707.51761,0.00933
2706.48735,0.00926
2705.45709,0.00951
2704.42684,0.00977
2703.39658,0.00971
2702.36632,0.00950
2701.33606,0.00926
2700.30581,0.00890
2699.27555,0.00858
2698.24529,0.00839
2697.21503,0.00823
2696.18477,0.00805
2695.15452,0.00800
2694.12426,0.00810
2693.09400,0.00812
2692.06374,0.00802
2691.03348,0.00790
2690.00323,0.00770
2688.97297,0.00750
2687.94271,0.00732
2686.91245,0.00693
2685.88220,0.00646
2684.85194,0.00634
2683.82168,0.00634
2682.79142,0.00607
2681.76116,0.00584
2680.73091,0.00580
2679.70065,0.00578
2678.67039,0.00577
2677.64013,0.00564
2676.60988,0.00528
2675.57962,0.00498
2674.54936,0.00497
2673.51910,0.00500
2672.48884,0.00491
2671.45859,0.00484
2670.42833,0.00497
2669.39807,0.00524
2668.36781,0.00525
2667.33755,0.00504
2666.30730,0.00492
2665.27704,0.00482
2664.24678,0.00470
2663.21652,0.00457
2662.18627,0.00451
2661.15601,0.00453
2660.12575,0.00459
2659.09549,0.00462
2658.06523,0.00433
2657.03498,0.00400
2656.00472,0.00413
2654.97446,0.00440
2653.94420,0.00421
2652.91394,0.00379
2651.88369,0.00364
2650.85343,0.00377
2649.82317,0.00373
2648.79291,0.00341
2647.76266,0.00309
2646.73240,0.00289
2645.70214,0.00296
2644.67188,0.00334
2643.64162,0.00374
2642.61137,0.00387
2641.58111,0.00362
2640.55085,0.00339
2639.52059,0.00352
2638.49033,0.00370
2637.46008,0.00379
2636.42982,0.00375
2635.39956,0.00355
2634.36930,0.00352
2633.33905,0.00368
2632.30879,0.00379
2631.27853,0.00381
2630.24827,0.00369
2629.21801,0.00355
2628.18776,0.00354
2627.15750,0.00353
2626.12724,0.00358
2625.09698,0.00370
2624.06673,0.00350
2623.03647,0.00316
2622.00621,0.00314
2620.97595,0.00329
2619.94569,0.00347
2618.91544,0.00368
2617.88518,0.00369
2616.85492,0.00346
2615.82466,0.00312
2614.79440,0.00283
2613.76415,0.00264
2612.73389,0.00246
2611.70363,0.00235
2610.67337,0.00233
2609.64312,0.00253
2608.61286,0.00293
2607.58260,0.00301
2606.55234,0.00275
2605.52208,0.00252
2604.49183,0.00249
2603.46157,0.00291
2602.43131,0.00325
2601.40105,0.00292
2600.37079,0.00244
2599.34054,0.00233
2598.31028,0.00246
2597.28002,0.00255
2596.24976,0.00255
2595.21951,0.00275
2594.18925,0.00304
2593.15899,0.00286
2592.12873,0.00240
2591.09847,0.00245
2590.06822,0.00282
2589.03796,0.00266
2588.00770,0.00205
2586.97744,0.00180
2585.94718,0.00201
2584.91693,0.00219
2583.88667,0.00208
2582.85641,0.00191
2581.82615,0.00223
2580.79590,0.00279
2579.76564,0.00275
2578.73538,0.00235
2577.70512,0.00232
2576.67486,0.00261
2575.64461,0.00275
2574.61435,0.00235
2573.58409,0.00194
2572.55383,0.00211
2571.52358,0.00235
2570.49332,0.00231
2569.46306,0.00225
2568.43280,0.00210
2567.40254,0.00179
2566.37229,0.00215
2565.34203,0.00310
2564.31177,0.00332
2563.28151,0.00260
2562.25125,0.00186
2561.22100,0.00179
2560.19074,0.00200
2559.16048,0.00212
2558.13022,0.00227
2557.09997,0.00197
2556.06971,0.00127
2555.03945,0.00108
2554.00919,0.00168
2552.97893,0.00240
2551.94868,0.00263
2550.91842,0.00256
2549.88816,0.00243
2548.85790,0.00252
2547.82764,0.00280
2546.79739,0.00277
2545.76713,0.00250
2544.73687,0.00212
2543.70661,0.00161
2542.67636,0.00147
2541.64610,0.00165
2540.61584,0.00198
2539.58558,0.00260
2538.55532,0.00299
2537.52507,0.00277
2536.49481,0.00261
2535.46455,0.00261
2534.43429,0.00239
2533.40403,0.00217
2532.37378,0.00197
2531.34352,0.00175
2530.31326,0.00188
2529.28300,0.00246
2528.25275,0.00307
2527.22249,0.00324
2526.19223,0.00312
2525.16197,0.00295
2524.13171,0.00268
2523.10146,0.00236
2522.07120,0.00231
2521.04094,0.00257
2520.01068,0.00272
2518.98043,0.00240
2517.95017,0.00189
2516.91991,0.00171
2515.88965,0.00192
2514.85939,0.00219
2513.82914,0.00194
2512.79888,0.00116
2511.76862,0.00075
2510.73836,0.00096
2509.70810,0.00138
2508.67785,0.00178
2507.64759,0.00177
2506.61733,0.00135
2505.58707,0.00119
2504.55682,0.00172
2503.52656,0.00245
2502.49630,0.00258
2501.46604,0.00227
2500.43578,0.00218
2499.40553,0.00245
2498.37527,0.00273
2497.34501,0.00263
2496.31475,0.00234
2495.28449,0.00241
2494.25424,0.00266
2493.22398,0.00259
2492.19372,0.00253
2491.16346,0.00246
2490.13321,0.00191
2489.10295,0.00127
2488.07269,0.00127
2487.04243,0.00185
2486.01217,0.00214
2484.98192,0.00177
2483.95166,0.00125
2482.92140,0.00101
2481.89114,0.00118
2480.86088,0.00161
2479.83063,0.00189
2478.80037,0.00199
2477.77011,0.00216
2476.73985,0.00239
2475.70960,0.00271
2474.67934,0.00298
2473.64908,0.00292
2472.61882,0.00280
2471.58856,0.00307
2470.55831,0.00349
2469.52805,0.00352
2468.49779,0.00310
2467.46753,0.00246
2466.43728,0.00203
2465.40702,0.00184
2464.37676,0.00154
2463.34650,0.00159
2462.31624,0.00236
2461.28599,0.00299
2460.25573,0.00268
2459.22547,0.00213
2458.19521,0.00218
2457.16495,0.00252
2456.13470,0.00255
2455.10444,0.00210
2454.07418,0.00166
2453.04392,0.00170
2452.01367,0.00196
2450.98341,0.00197
2449.95315,0.00179
2448.92289,0.00172
2447.89263,0.00182
2446.86238,0.00216
2445.83212,0.00271
2444.80186,0.00288
2443.77160,0.00246
2442.74134,0.00219
2441.71109,0.00222
2440.68083,0.00229
2439.65057,0.00240
2438.62031,0.00251
2437.59006,0.00274
2436.55980,0.00299
2435.52954,0.00279
2434.49928,0.00233
2433.46902,0.00224
2432.43877,0.00253
2431.40851,0.00277
2430.37825,0.00279
2429.34799,0.00292
2428.31774,0.00304
2427.28748,0.00276
2426.25722,0.00244
2425.22696,0.00222
2424.19670,0.00213
2423.16645,0.00237
2422.13619,0.00247
2421.10593,0.00216
2420.07567,0.00204
2419.04541,0.00239
2418.01516,0.00260
2416.98490,0.00236
2415.95464,0.00199
2414.92438,0.00176
2413.89413,0.00170
2412.86387,0.00189
2411.83361,0.00243
2410.80335,0.00304
2409.77309,0.00312
2408.74284,0.00284
2407.71258,0.00264
2406.68232,0.00243
2405.65206,0.00212
2404.62180,0.00183
2403.59155,0.00180
2402.56129,0.00220
2401.53103,0.00282
2400.50077,0.00293
2399.47052,0.00266
2398.44026,0.00271
2397.41000,0.00289
2396.37974,0.00300
2395.34948,0.00293
2394.31923,0.00271
2393.28897,0.00269
2392.25871,0.00260
2391.22845,0.00228
2390.19819,0.00215
2389.16794,0.00223
2388.13768,0.00257
2387.10742,0.00305
2386.07716,0.00311
2385.04691,0.00306
2384.01665,0.00343
2382.98639,0.00380
2381.95613,0.00396
2380.92587,0.00404
2379.89562,0.00388
2378.86536,0.00348
2377.83510,0.00369
2376.80484,0.00465
2375.77459,0.00546
2374.74433,0.00598
2373.71407,0.00636
2372.68381,0.00655
2371.65355,0.00662
2370.62330,0.00653
2369.59304,0.00599
2368.56278,0.00551
2367.53252,0.00635
2366.50226,0.00784
2365.47201,0.00875
2364.44175,0.00935
2363.41149,0.00948
2362.38123,0.00883
2361.35098,0.00788
2360.32072,0.00694
2359.29046,0.00600
2358.26020,0.00554
2357.22994,0.00574
2356.19969,0.00626
2355.16943,0.00689
2354.13917,0.00680
2353.10891,0.00639
2352.07865,0.00633
2351.04840,0.00588
2350.01814,0.00528
2348.98788,0.00517
2347.95762,0.00522
2346.92737,0.00521
2345.89711,0.00547
2344.86685,0.00592
2343.83659,0.00629
2342.80633,0.00701
2341.77608,0.00770
2340.74582,0.00756
2339.71556,0.00683
2338.68530,0.00643
2337.65504,0.00676
2336.62479,0.00714
2335.59453,0.00702
2334.56427,0.00668
2333.53401,0.00674
2332.50376,0.00715
2331.47350,0.00712
2330.44324,0.00673
2329.41298,0.00640
2328.38272,0.00594
2327.35247,0.00544
2326.32221,0.00502
2325.29195,0.00483
2324.26169,0.00503
2323.23144,0.00576
2322.20118,0.00671
2321.17092,0.00678
2320.14066,0.00576
2319.11040,0.00468
2318.08015,0.00403
2317.04989,0.00391
2316.01963,0.00412
2314.98937,0.00441
2313.95911,0.00460
2312.92886,0.00424
2311.89860,0.00359
2310.86834,0.00312
2309.83808,0.00320
2308.80783,0.00381
2307.77757,0.00407
2306.74731,0.00398
2305.71705,0.00411
2304.68679,0.00435
2303.65654,0.00438
2302.62628,0.00415
2301.59602,0.00395
2300.56576,0.00389
2299.53550,0.00380
2298.50525,0.00369
2297.47499,0.00350
2296.44473,0.00328
2295.41447,0.00344
2294.38422,0.00357
2293.35396,0.00327
2292.32370,0.00301
2291.29344,0.00316
2290.26318,0.00357
2289.23293,0.00377
2288.20267,0.00347
2287.17241,0.00325
2286.14215,0.00360
2285.11189,0.00373
2284.08164,0.00311
2283.05138,0.00254
2282.02112,0.00252
2280.99086,0.00247
2279.96061,0.00230
2278.93035,0.00316
2277.90009,0.00429
2276.86983,0.00422
2275.83957,0.00372
2274.80932,0.00361
2273.77906,0.00353
2272.74880,0.00295
2271.71854,0.00207
2270.68829,0.00160
2269.65803,0.00138
2268.62777,0.00105
2267.59751,0.00110
2266.56725,0.00166
2265.53700,0.00217
2264.50674,0.00235
2263.47648,0.00186
2262.44622,0.00153
2261.41596,0.00224
2260.38571,0.00287
2259.35545,0.00260
2258.32519,0.00194
2257.29493,0.00182
2256.26468,0.00200
2255.23442,0.00155
2254.20416,0.00085
2253.17390,0.00093
2252.14364,0.00206
2251.11339,0.00302
2250.08313,0.00288
2249.05287,0.00220
2248.02261,0.00200
2246.99235,0.00240
2245.96210,0.00261
2244.93184,0.00233
2243.90158,0.00187
2242.87132,0.00149
2241.84107,0.00118
2240.81081,0.00113
2239.78055,0.00176
2238.75029,0.00302
2237.72003,0.00357
2236.68978,0.00301
2235.65952,0.00275
2234.62926,0.00334
2233.59900,0.00378
2232.56874,0.00352
2231.53849,0.00327
2230.50823,0.00317
2229.47797,0.00268
2228.44771,0.00259
2227.41746,0.00327
2226.38720,0.00337
2225.35694,0.00251
2224.32668,0.00131
2223.29642,0.00061
2222.26617,0.00148
2221.23591,0.00321
2220.20565,0.00389
2219.17539,0.00312
2218.14514,0.00194
2217.11488,0.00155
2216.08462,0.00230
2215.05436,0.00285
2214.02410,0.00229
2212.99385,0.00220
2211.96359,0.00279
2210.93333,0.00248
2209.90307,0.00159
2208.87281,0.00125
2207.84256,0.00157
2206.81230,0.00194
2205.78204,0.00253
2204.75178,0.00305
2203.72153,0.00258
2202.69127,0.00249
2201.66101,0.00309
2200.63075,0.00260
2199.60049,0.00181
2198.57024,0.00180
2197.53998,0.00160
2196.50972,0.00119
2195.47946,0.00108
2194.44920,0.00121
2193.41895,0.00104
2192.38869,0.00057
2191.35843,0.00080
2190.32817,0.00207
2189.29792,0.00375
2188.26766,0.00427
2187.23740,0.00298
2186.20714,0.00171
2185.17688,0.00211
2184.14663,0.00341
2183.11637,0.00487
2182.08611,0.00552
2181.05585,0.00426
2180.02559,0.00321
2178.99534,0.00388
2177.96508,0.00463
2176.93482,0.00452
2175.90456,0.00459
2174.87431,0.00450
2173.84405,0.00322
2172.81379,0.00111
2171.78353,-0.00039
2170.75327,0.00053
2169.72302,0.00191
2168.69276,0.00182
2167.66250,0.00211
2166.63224,0.00261
2165.60199,0.00229
2164.57173,0.00250
2163.54147,0.00363
2162.51121,0.00395
2161.48095,0.00289
2160.45070,0.00148
2159.42044,0.00124
2158.39018,0.00252
2157.35992,0.00321
2156.32966,0.00289
2155.29941,0.00244
2154.26915,0.00226
2153.23889,0.00249
2152.20863,0.00289
2151.17838,0.00395
2150.14812,0.00551
2149.11786,0.00583
2148.08760,0.00432
2147.05734,0.00331
2146.02709,0.00454
2144.99683,0.00571
2143.96657,0.00558
2142.93631,0.00599
2141.90605,0.00650
2140.87580,0.00556
2139.84554,0.00460
2138.81528,0.00522
2137.78502,0.00577
2136.75477,0.00453
2135.72451,0.00272
2134.69425,0.00214
2133.66399,0.00295
2132.63373,0.00380
2131.60348,0.00433
2130.57322,0.00551
2129.54296,0.00653
2128.51270,0.00626
2127.48244,0.00578
2126.45219,0.00587
2125.42193,0.00618
2124.39167,0.00667
2123.36141,0.00697
2122.33116,0.00679
2121.30090,0.00651
2120.27064,0.00635
2119.24038,0.00647
2118.21012,0.00746
2117.17987,0.00872
2116.14961,0.00869
2115.11935,0.00752
2114.08909,0.00668
2113.05884,0.00669
2112.02858,0.00693
2110.99832,0.00683
2109.96806,0.00607
2108.93780,0.00535
2107.90755,0.00559
2106.87729,0.00577
2105.84703,0.00553
2104.81677,0.00569
2103.78651,0.00589
2102.75626,0.00586
2101.72600,0.00620
2100.69574,0.00705
2099.66548,0.00763
2098.63523,0.00726
2097.60497,0.00710
2096.57471,0.00793
2095.54445,0.00790
2094.51419,0.00693
2093.48394,0.00686
2092.45368,0.00727
2091.42342,0.00702
2090.39316,0.00641
2089.36290,0.00582
2088.33265,0.00561
2087.30239,0.00589
2086.27213,0.00559
2085.24187,0.00501
2084.21162,0.00530
2083.18136,0.00580
2082.15110,0.00621
2081.12084,0.00705
2080.09058,0.00793
2079.06033,0.00802
2078.03007,0.00746
2076.99981,0.00702
2075.96955,0.00695
2074.93930,0.00686
2073.90904,0.00675
2072.87878,0.00687
2071.84852,0.00666
2070.81826,0.00632
2069.78801,0.00626
2068.75775,0.00601
2067.72749,0.00539
2066.69723,0.00454
2065.66697,0.00442
2064.63672,0.00500
2063.60646,0.00536
2062.57620,0.00557
2061.54594,0.00604
2060.51569,0.00700
2059.48543,0.00733
2058.45517,0.00716
2057.42491,0.00771
2056.39465,0.00740
2055.36440,0.00655
2054.33414,0.00696
2053.30388,0.00689
2052.27362,0.00575
2051.24336,0.00540
2050.21311,0.00609
2049.18285,0.00625
2048.15259,0.00596
2047.12233,0.00623
2046.09208,0.00553
2045.06182,0.00395
2044.03156,0.00433
2043.00130,0.00594
2041.97104,0.00634
2040.94079,0.00579
2039.91053,0.00539
2038.88027,0.00542
2037.85001,0.00481
2036.81975,0.00306
2035.78950,0.00208
2034.75924,0.00259
2033.72898,0.00326
2032.69872,0.00378
2031.66847,0.00453
2030.63821,0.00547
2029.60795,0.00613
2028.57769,0.00601
2027.54743,0.00519
2026.51718,0.00506
2025.48692,0.00546
2024.45666,0.00428
2023.42640,0.00293
2022.39615,0.00348
2021.36589,0.00380
2020.33563,0.00232
2019.30537,0.00067
2018.27511,-0.00004
2017.24486,-0.00008
2016.21460,0.00052
2015.18434,0.00131
2014.15408,0.00203
2013.12382,0.00307
2012.09357,0.00443
2011.06331,0.00523
2010.03305,0.00440
2009.00279,0.00318
2007.97254,0.00405
2006.94228,0.00636
2005.91202,0.00747
2004.88176,0.00724
2003.85150,0.00670
2002.82125,0.00595
2001.79099,0.00539
2000.76073,0.00512
1999.73047,0.00512
1998.70021,0.00571
1997.66996,0.00532
1996.63970,0.00362
1995.60944,0.00320
1994.57918,0.00411
1993.54893,0.00409
1992.51867,0.00371
1991.48841,0.00493
1990.45815,0.00596
1989.42789,0.00549
1988.39764,0.00564
1987.36738,0.00653
1986.33712,0.00648
1985.30686,0.00592
1984.27660,0.00594
1983.24635,0.00673
1982.21609,0.00780
1981.18583,0.00712
1980.15557,0.00468
1979.12532,0.00342
1978.09506,0.00426
1977.06480,0.00566
1976.03454,0.00593
1975.00428,0.00507
1973.97403,0.00541
1972.94377,0.00706
1971.91351,0.00836
1970.88325,0.00902
1969.85300,0.00853
1968.82274,0.00724
1967.79248,0.00639
1966.76222,0.00592
1965.73196,0.00536
1964.70171,0.00526
1963.67145,0.00598
1962.64119,0.00746
1961.61093,0.00934
1960.58067,0.01044
1959.55042,0.01031
1958.52016,0.00950
1957.48990,0.00832
1956.45964,0.00629
1955.42939,0.00428
1954.39913,0.00418
1953.36887,0.00549
1952.33861,0.00602
1951.30835,0.00571
1950.27810,0.00575
1949.24784,0.00582
1948.21758,0.00578
1947.18732,0.00617
1946.15706,0.00675
1945.12681,0.00742
1944.09655,0.00801
1943.06629,0.00764
1942.03603,0.00676
1941.00578,0.00644
1939.97552,0.00630
1938.94526,0.00614
1937.91500,0.00639
1936.88474,0.00692
1935.85449,0.00707
1934.82423,0.00680
1933.79397,0.00636
1932.76371,0.00601
1931.73345,0.00600
1930.70320,0.00625
1929.67294,0.00647
1928.64268,0.00630
1927.61242,0.00607
1926.58217,0.00655
1925.55191,0.00707
1924.52165,0.00667
1923.49139,0.00611
1922.46113,0.00607
1921.43088,0.00600
1920.40062,0.00555
1919.37036,0.00508
1918.34010,0.00522
1917.30985,0.00598
1916.27959,0.00623
1915.24933,0.00597
1914.21907,0.00577
1913.18881,0.00504
1912.15856,0.00413
1911.12830,0.00423
1910.09804,0.00496
1909.06778,0.00523
1908.03752,0.00507
1907.00727,0.00522
1905.97701,0.00540
1904.94675,0.00506
1903.91649,0.00441
1902.88624,0.00373
1901.85598,0.00322
1900.82572,0.00285
1899.79546,0.00269
1898.76520,0.00289
1897.73495,0.00324
1896.70469,0.00356
1895.67443,0.00394
1894.64417,0.00416
1893.61391,0.00399
1892.58366,0.00394
1891.55340,0.00405
1890.52314,0.00385
1889.49288,0.00359
1888.46263,0.00351
1887.43237,0.00348
1886.40211,0.00352
1885.37185,0.00342
1884.34159,0.00307
1883.31134,0.00282
1882.28108,0.00278
1881.25082,0.00293
1880.22056,0.00375
1879.19030,0.00465
1878.16005,0.00432
1877.12979,0.00317
1876.09953,0.00249
1875.06927,0.00251
1874.03902,0.00272
1873.00876,0.00275
1871.97850,0.00251
1870.94824,0.00246
1869.91798,0.00282
1868.88773,0.00263
1867.85747,0.00203
1866.82721,0.00222
1865.79695,0.00281
1864.76670,0.00306
1863.73644,0.00318
1862.70618,0.00346
1861.67592,0.00369
1860.64566,0.00356
1859.61541,0.00348
1858.58515,0.00356
1857.55489,0.00346
1856.52463,0.00327
1855.49437,0.00318
1854.46412,0.00321
1853.43386,0.00323
1852.40360,0.00352
1851.37334,0.00374
1850.34309,0.00321
1849.31283,0.00266
1848.28257,0.00248
1847.25231,0.00229
1846.22205,0.00238
1845.19180,0.00267
1844.16154,0.00304
1843.13128,0.00363
1842.10102,0.00361
1841.07076,0.00297
1840.04051,0.00251
1839.01025,0.00250
1837.97999,0.00255
1836.94973,0.00227
1835.91948,0.00222
1834.88922,0.00273
1833.85896,0.00318
1832.82870,0.00324
1831.79844,0.00324
1830.76819,0.00311
1829.73793,0.00274
1828.70767,0.00265
1827.67741,0.00312
1826.64715,0.00361
1825.61690,0.00360
1824.58664,0.00346
1823.55638,0.00358
1822.52612,0.00360
1821.49587,0.00360
1820.46561,0.00363
1819.43535,0.00356
1818.40509,0.00357
1817.37483,0.00372
1816.34458,0.00379
1815.31432,0.00368
1814.28406,0.00370
1813.25380,0.00382
1812.22355,0.00368
1811.19329,0.00355
1810.16303,0.00369
1809.13277,0.00380
1808.10251,0.00397
1807.07226,0.00428
1806.04200,0.00447
1805.01174,0.00471
1803.98148,0.00507
1802.95122,0.00485
1801.92097,0.00409
1800.89071,0.00388
1799.86045,0.00436
1798.83019,0.00467
1797.79994,0.00450
1796.76968,0.00442
1795.73942,0.00499
1794.70916,0.00544
1793.67890,0.00503
1792.64865,0.00449
1791.61839,0.00470
1790.58813,0.00501
1789.55787,0.00474
1788.52761,0.00432
1787.49736,0.00436
1786.46710,0.00480
1785.43684,0.00496
1784.40658,0.00459
1783.37633,0.00440
1782.34607,0.00471
1781.31581,0.00519
1780.28555,0.00552
1779.25529,0.00562
1778.22504,0.00557
1777.19478,0.00534
1776.16452,0.00514
1775.13426,0.00543
1774.10400,0.00599
1773.07375,0.00628
1772.04349,0.00608
1771.01323,0.00558
1769.98297,0.00527
1768.95272,0.00517
1767.92246,0.00523
1766.89220,0.00562
1765.86194,0.00616
1764.83168,0.00651
1763.80143,0.00645
1762.77117,0.00607
1761.74091,0.00599
1760.71065,0.00660
1759.68040,0.00719
1758.65014,0.00738
1757.61988,0.00736
1756.58962,0.00736
1755.55936,0.00742
1754.52911,0.00750
1753.49885,0.00751
1752.46859,0.00743
1751.43833,0.00740
1750.40807,0.00753
1749.37782,0.00762
1748.34756,0.00757
1747.31730,0.00749
1746.28704,0.00768
1745.25679,0.00818
1744.22653,0.00857
1743.19627,0.00856
1742.16601,0.00847
1741.13575,0.00850
1740.10550,0.00841
1739.07524,0.00840
1738.04498,0.00876
1737.01472,0.00908
1735.98446,0.00918
1734.95421,0.00894
1733.92395,0.00854
1732.89369,0.00910
1731.86343,0.00996
1730.83318,0.01046
1729.80292,0.01052
1728.77266,0.01044
1727.74240,0.01056
1726.71214,0.01079
1725.68189,0.01120
1724.65163,0.01171
1723.62137,0.01211
1722.59111,0.01242
1721.56085,0.01256
1720.53060,0.01256
1719.50034,0.01262
1718.47008,0.01264
1717.43982,0.01274
1716.40957,0.01304
1715.37931,0.01342
1714.34905,0.01403
1713.31879,0.01445
1712.28853,0.01463
1711.25828,0.01488
1710.22802,0.01505
1709.19776,0.01516
1708.16750,0.01563
1707.13725,0.01637
1706.10699,0.01704
1705.07673,0.01762
1704.04647,0.01820
1703.01621,0.01870
1701.98596,0.01920
1700.95570,0.01966
1699.92544,0.01973
1698.89518,0.02017
1697.86492,0.02093
1696.83467,0.02144
1695.80441,0.02191
1694.77415,0.02298
1693.74389,0.02405
1692.71364,0.02495
1691.68338,0.02582
1690.65312,0.02676
1689.62286,0.02780
1688.59260,0.02889
1687.56235,0.03013
1686.53209,0.03125
1685.50183,0.03205
1684.47157,0.03309
1683.44131,0.03466
1682.41106,0.03598
1681.38080,0.03732
1680.35054,0.03876
1679.32028,0.03997
1678.29003,0.04112
1677.25977,0.04247
1676.22951,0.04373
1675.19925,0.04503
1674.16899,0.04664
1673.13874,0.04814
1672.10848,0.04961
1671.07822,0.05133
1670.04796,0.05325
1669.01771,0.05527
1667.98745,0.05692
1666.95719,0.05818
1665.92693,0.05964
1664.89667,0.06148
1663.86642,0.06340
1662.83616,0.06506
1661.80590,0.06653
1660.77564,0.06814
1659.74538,0.06982
1658.71513,0.07131
1657.68487,0.07271
1656.65461,0.07413
1655.62435,0.07536
1654.59410,0.07642
1653.56384,0.07759
1652.53358,0.07851
1651.50332,0.07938
1650.47306,0.08059
1649.44281,0.08156
1648.41255,0.08181
1647.38229,0.08152
1646.35203,0.08144
1645.32177,0.08193
1644.29152,0.08257
1643.26126,0.08267
1642.23100,0.08225
1641.20074,0.08193
1640.17049,0.08182
1639.14023,0.08141
1638.10997,0.08043
1637.07971,0.07943
1636.04945,0.07871
1635.01920,0.07734
1633.98894,0.07599
1632.95868,0.07513
1631.92842,0.07402
1630.89816,0.07274
1629.86791,0.07147
1628.83765,0.06997
1627.80739,0.06811
1626.77713,0.06634
1625.74688,0.06496
1624.71662,0.06354
1623.68636,0.06116
1622.65610,0.05823
1621.62584,0.05642
1620.59559,0.05509
1619.56533,0.05370
1618.53507,0.05252
1617.50481,0.05112
1616.47456,0.04842
1615.44430,0.04617
1614.41404,0.04495
1613.38378,0.04369
1612.35352,0.04230
1611.32327,0.04095
1610.29301,0.03963
1609.26275,0.03820
1608.23249,0.03684
1607.20223,0.03546
1606.17198,0.03397
1605.14172,0.03274
1604.11146,0.03178
1603.08120,0.03071
1602.05095,0.02959
1601.02069,0.02874
1599.99043,0.02812
1598.96017,0.02762
1597.92991,0.02707
1596.89966,0.02629
1595.86940,0.02539
1594.83914,0.02461
1593.80888,0.02414
1592.77862,0.02375
1591.74837,0.02316
1590.71811,0.02251
1589.68785,0.02202
1588.65759,0.02172
1587.62734,0.02128
1586.59708,0.02057
1585.56682,0.01999
1584.53656,0.01983
1583.50630,0.01986
1582.47605,0.01973
1581.44579,0.01931
1580.41553,0.01892
1579.38527,0.01870
1578.35501,0.01835
1577.32476,0.01795
1576.29450,0.01753
1575.26424,0.01709
1574.23398,0.01688
1573.20373,0.01669
1572.17347,0.01648
1571.14321,0.01633
1570.11295,0.01604
1569.08269,0.01552
1568.05244,0.01538
1567.02218,0.01549
1565.99192,0.01561
1564.96166,0.01555
1563.93141,0.01526
1562.90115,0.01507
1561.87089,0.01503
1560.84063,0.01501
1559.81037,0.01486
1558.78012,0.01413
1557.74986,0.01348
1556.71960,0.01370
1555.68934,0.01416
1554.65908,0.01453
1553.62883,0.01446
1552.59857,0.01401
1551.56831,0.01371
1550.53805,0.01380
1549.50780,0.01414
1548.47754,0.01427
1547.44728,0.01411
1546.41702,0.01378
1545.38676,0.01346
1544.35651,0.01345
1543.32625,0.01373
1542.29599,0.01394
1541.26573,0.01378
1540.23547,0.01328
1539.20522,0.01311
1538.17496,0.01344
1537.14470,0.01351
1536.11444,0.01336
1535.08419,0.01312
1534.05393,0.01287
1533.02367,0.01290
1531.99341,0.01309
1530.96315,0.01317
1529.93290,0.01331
1528.90264,0.01351
1527.87238,0.01367
1526.84212,0.01380
1525.81186,0.01374
1524.78161,0.01353
1523.75135,0.01349
1522.72109,0.01341
1521.69083,0.01313
1520.66058,0.01303
1519.63032,0.01326
1518.60006,0.01353
1517.56980,0.01351
1516.53954,0.01338
1515.50929,0.01358
1514.47903,0.01381
1513.44877,0.01400
1512.41851,0.01413
1511.38826,0.01410
1510.35800,0.01401
1509.32774,0.01399
1508.29748,0.01418
1507.26722,0.01459
1506.23697,0.01489
1505.20671,0.01512
1504.17645,0.01540
1503.14619,0.01567
1502.11593,0.01597
1501.08568,0.01633
1500.05542,0.01664
1499.02516,0.01706
1497.99490,0.01780
1496.96465,0.01867
1495.93439,0.01974
1494.90413,0.02095
1493.87387,0.02228
1492.84361,0.02387
1491.81336,0.02552
1490.78310,0.02715
1489.75284,0.02873
1488.72258,0.02988
1487.69232,0.03073
1486.66207,0.03166
1485.63181,0.03272
1484.60155,0.03387
1483.57129,0.03514
1482.54104,0.03667
1481.51078,0.03846
1480.48052,0.04065
1479.45026,0.04342
1478.42000,0.04660
1477.38975,0.04980
1476.35949,0.05341
1475.32923,0.05720
1474.29897,0.06046
1473.26871,0.06355
1472.23846,0.06597
1471.20820,0.06732
1470.17794,0.06807
1469.14768,0.06854
1468.11743,0.06889
1467.08717,0.06927
1466.05691,0.06964
1465.02665,0.07020
1463.99639,0.07122
1462.96614,0.07206
1461.93588,0.07252
1460.90562,0.07298
1459.87536,0.07365
1458.84511,0.07421
1457.81485,0.07461
1456.78459,0.07549
1455.75433,0.07666
1454.72407,0.07718
1453.69382,0.07713
1452.66356,0.07641
1451.63330,0.07480
1450.60304,0.07261
1449.57278,0.07029
1448.54253,0.06766
1447.51227,0.06489
1446.48201,0.06304
1445.45175,0.06177
1444.42150,0.06042
1443.39124,0.05882
1442.36098,0.05694
1441.33072,0.05495
1440.30046,0.05303
1439.27021,0.05111
1438.23995,0.04926
1437.20969,0.04685
1436.17943,0.04346
1435.14917,0.04130
1434.11892,0.03987
1433.08866,0.03834
1432.05840,0.03718
1431.02814,0.03640
1429.99789,0.03551
1428.96763,0.03464
1427.93737,0.03414
1426.90711,0.03398
1425.87685,0.03391
1424.84660,0.03361
1423.81634,0.03327
1422.78608,0.03320
1421.75582,0.03313
1420.72556,0.03304
1419.69531,0.03295
1418.66505,0.03267
1417.63479,0.03248
1416.60453,0.03249
1415.57428,0.03265
1414.54402,0.03286
1413.51376,0.03298
1412.48350,0.03295
1411.45324,0.03278
1410.42299,0.03266
1409.39273,0.03262
1408.36247,0.03266
1407.33221,0.03275
1406.30196,0.03280
1405.27170,0.03292
1404.24144,0.03315
1403.21118,0.03311
1402.18092,0.03279
1401.15067,0.03263
1400.12041,0.03269
1399.09015,0.03275
1398.05989,0.03292
1397.02963,0.03337
1395.99938,0.03372
1394.96912,0.03383
1393.93886,0.03394
1392.90860,0.03391
1391.87835,0.03389
1390.84809,0.03418
1389.81783,0.03458
1388.78757,0.03469
1387.75731,0.03464
1386.72706,0.03497
1385.69680,0.03558
1384.66654,0.03608
1383.63628,0.03657
1382.60602,0.03713
1381.57577,0.03770
1380.54551,0.03815
1379.51525,0.03852
1378.48499,0.03910
1377.45474,0.03979
1376.42448,0.04035
1375.39422,0.04095
1374.36396,0.04185
1373.33370,0.04311
1372.30345,0.04457
1371.27319,0.04594
1370.24293,0.04725
1369.21267,0.04890
1368.18241,0.05070
1367.15216,0.05232
1366.12190,0.05419
1365.09164,0.05649
1364.06138,0.05872
1363.03113,0.06111
1362.00087,0.06420
1360.97061,0.06776
1359.94035,0.07140
1358.91009,0.07517
1357.87984,0.07946
1356.84958,0.08437
1355.81932,0.08949
1354.78906,0.09460
1353.75881,0.09994
1352.72855,0.10550
1351.69829,0.11080
1350.66803,0.11529
1349.63777,0.11849
1348.60752,0.11972
1347.57726,0.11813
1346.54700,0.11308
1345.51674,0.10418
1344.48648,0.09241
1343.45623,0.08020
1342.42597,0.06982
1341.39571,0.06203
1340.36545,0.05650
1339.33520,0.05298
1338.30494,0.05100
1337.27468,0.05013
1336.24442,0.05004
1335.21416,0.05026
1334.18391,0.05050
1333.15365,0.05097
1332.12339,0.05191
1331.09313,0.05307
1330.06287,0.05402
1329.03262,0.05450
1328.00236,0.05450
1326.97210,0.05410
1325.94184,0.05344
1324.91159,0.05266
1323.88133,0.05153
1322.85107,0.05010
1321.82081,0.04889
1320.79055,0.04798
1319.76030,0.04721
1318.73004,0.04695
1317.69978,0.04745
1316.66952,0.04839
1315.63927,0.04954
1314.60901,0.05110
1313.57875,0.05321
1312.54849,0.05565
1311.51823,0.05817
1310.48798,0.06074
1309.45772,0.06354
1308.42746,0.06657
1307.39720,0.06929
1306.36694,0.07161
1305.33669,0.07370
1304.30643,0.07548
1303.27617,0.07705
1302.24591,0.07861
1301.21566,0.08004
1300.18540,0.08103
1299.15514,0.08146
1298.12488,0.08148
1297.09462,0.08132
1296.06437,0.08123
1295.03411,0.08124
1294.00385,0.08131
1292.97359,0.08114
1291.94333,0.08051
1290.91308,0.07999
1289.88282,0.07980
1288.85256,0.07957
1287.82230,0.07915
1286.79205,0.07873
1285.76179,0.07821
1284.73153,0.07723
1283.70127,0.07596
1282.67101,0.07475
1281.64076,0.07349
1280.61050,0.07210
1279.58024,0.07072
1278.54998,0.06921
1277.51972,0.06742
1276.48947,0.06561
1275.45921,0.06407
1274.42895,0.06282
1273.39869,0.06170
1272.36844,0.06070
1271.33818,0.06012
1270.30792,0.06001
1269.27766,0.05997
1268.24740,0.05988
1267.21715,0.06007
1266.18689,0.06070
1265.15663,0.06190
1264.12637,0.06386
1263.09612,0.06628
1262.06586,0.06883
1261.03560,0.07160
1260.00534,0.07456
1258.97508,0.07755
1257.94483,0.08055
1256.91457,0.08348
1255.88431,0.08624
1254.85405,0.08894
1253.82379,0.09145
1252.79354,0.09341
1251.76328,0.09487
1250.73302,0.09594
1249.70276,0.09647
1248.67251,0.09630
1247.64225,0.09561
1246.61199,0.09466
1245.58173,0.09318
1244.55147,0.09090
1243.52122,0.08810
1242.49096,0.08508
1241.46070,0.08199
1240.43044,0.07882
1239.40018,0.07554
1238.36993,0.07253
1237.33967,0.06990
1236.30941,0.06733
1235.27915,0.06468
1234.24890,0.06189
1233.21864,0.05912
1232.18838,0.05662
1231.15812,0.05425
1230.12786,0.05195
1229.09761,0.04995
1228.06735,0.04853
1227.03709,0.04743
1226.00683,0.04621
1224.97657,0.04506
1223.94632,0.04430
1222.91606,0.04359
1221.88580,0.04251
1220.85554,0.04135
1219.82529,0.04041
1218.79503,0.03965
1217.76477,0.03894
1216.73451,0.03830
1215.70425,0.03776
1214.67400,0.03691
1213.64374,0.03576
1212.61348,0.03503
1211.58322,0.03466
1210.55297,0.03431
1209.52271,0.03394
1208.49245,0.03342
1207.46219,0.03269
1206.43193,0.03209
1205.40168,0.03191
1204.37142,0.03201
1203.34116,0.03213
1202.31090,0.03205
1201.28064,0.03186
1200.25039,0.03174
1199.22013,0.03158
1198.18987,0.03139
1197.15961,0.03128
1196.12936,0.03122
1195.09910,0.03128
1194.06884,0.03153
1193.03858,0.03180
1192.00832,0.03200
1190.97807,0.03220
1189.94781,0.03245
1188.91755,0.03274
1187.88729,0.03311
1186.85703,0.03331
1185.82678,0.03336
1184.79652,0.03371
1183.76626,0.03426
1182.73600,0.03473
1181.70575,0.03525
1180.67549,0.03589
1179.64523,0.03670
1178.61497,0.03750
1177.58471,0.03806
1176.55446,0.03863
1175.52420,0.03944
1174.49394,0.04042
1173.46368,0.04145
1172.43342,0.04252
1171.40317,0.04387
1170.37291,0.04557
1169.34265,0.04728
1168.31239,0.04896
1167.28214,0.05103
1166.25188,0.05359
1165.22162,0.05645
1164.19136,0.05964
1163.16110,0.06319
1162.13085,0.06735
1161.10059,0.07232
1160.07033,0.07772
1159.04007,0.08349
1158.00982,0.08979
1156.97956,0.09656
1155.94930,0.10366
1154.91904,0.11111
1153.88878,0.11908
1152.85853,0.12743
1151.82827,0.13593
1150.79801,0.14452
1149.76775,0.15310
1148.73749,0.16141
1147.70724,0.16950
1146.67698,0.17750
1145.64672,0.18534
1144.61646,0.19307
1143.58621,0.20044
1142.55595,0.20733
1141.52569,0.21371
1140.49543,0.21946
1139.46517,0.22485
1138.43492,0.23027
1137.40466,0.23549
1136.37440,0.23994
1135.34414,0.24393
1134.31388,0.24787
1133.28363,0.25152
1132.25337,0.25500
1131.22311,0.25871
1130.19285,0.26252
1129.16260,0.26644
1128.13234,0.27080
1127.10208,0.27557
1126.07182,0.28050
1125.04156,0.28541
1124.01131,0.29020
1122.98105,0.29531
1121.95079,0.30134
1120.92053,0.30794
1119.89027,0.31432
1118.86002,0.32062
1117.82976,0.32736
1116.79950,0.33428
1115.76924,0.34065
1114.73899,0.34662
1113.70873,0.35321
1112.67847,0.36034
1111.64821,0.36763
1110.61795,0.37516
1109.58770,0.38270
1108.55744,0.39021
1107.52718,0.39802
1106.49692,0.40616
1105.46667,0.41435
1104.43641,0.42244
1103.40615,0.43063
1102.37589,0.43880
1101.34563,0.44645
1100.31538,0.45368
1099.28512,0.46091
1098.25486,0.46839
1097.22460,0.47568
1096.19434,0.48250
1095.16409,0.48879
1094.13383,0.49411
1093.10357,0.49819
1092.07331,0.50199
1091.04306,0.50629
1090.01280,0.50960
1088.98254,0.51104
1087.95228,0.51177
1086.92202,0.51283
1085.89177,0.51361
1084.86151,0.51307
1083.83125,0.51150
1082.80099,0.50928
1081.77073,0.50605
1080.74048,0.50224
1079.71022,0.49835
1078.67996,0.49415
1077.64970,0.48995
1076.61945,0.48567
1075.58919,0.48104
1074.55893,0.47635
1073.52867,0.47176
1072.49841,0.46740
1071.46816,0.46315
1070.43790,0.45863
1069.40764,0.45380
1068.37738,0.44887
1067.34712,0.44379
1066.31687,0.43793
1065.28661,0.43080
1064.25635,0.42312
1063.22609,0.41495
1062.19584,0.40580
1061.16558,0.39569
1060.13532,0.38445
1059.10506,0.37225
1058.07480,0.35977
1057.04455,0.34752
1056.01429,0.33527
1054.98403,0.32272
1053.95377,0.31034
1052.92352,0.29848
1051.89326,0.28719
1050.86300,0.27709
1049.83274,0.26851
1048.80248,0.26080
1047.77223,0.25399
1046.74197,0.24869
1045.71171,0.24448
1044.68145,0.24106
1043.65119,0.23866
1042.62094,0.23697
1041.59068,0.23612
1040.56042,0.23589
1039.53016,0.23516
1038.49991,0.23384
1037.46965,0.23264
1036.43939,0.23168
1035.40913,0.23049
1034.37887,0.22871
1033.34862,0.22671
1032.31836,0.22416
1031.28810,0.22021
1030.25784,0.21561
1029.22758,0.21120
1028.19733,0.20630
1027.16707,0.20058
1026.13681,0.19462
1025.10655,0.18855
1024.07630,0.18193
1023.04604,0.17479
1022.01578,0.16772
1020.98552,0.16111
1019.95526,0.15502
1018.92501,0.14933
1017.89475,0.14360
1016.86449,0.13767
1015.83423,0.13213
1014.80397,0.12716
1013.77372,0.12249
1012.74346,0.11811
1011.71320,0.11435
1010.68294,0.11125
1009.65269,0.10839
1008.62243,0.10559
1007.59217,0.10333
1006.56191,0.10180
1005.53165,0.10052
1004.50140,0.09913
1003.47114,0.09798
1002.44088,0.09727
1001.41062,0.09663
1000.38037,0.09630
999.35011,0.09644
998.31985,0.09632
997.28959,0.09573
996.25933,0.09520
995.22908,0.09511
994.19882,0.09499
993.16856,0.09437
992.13830,0.09354
991.10804,0.09262
990.07779,0.09136
989.04753,0.08994
988.01727,0.08852
986.98701,0.08702
985.95676,0.08568
984.92650,0.08429
983.89624,0.08274
982.86598,0.08133
981.83572,0.07994
980.80547,0.07848
979.77521,0.07707
978.74495,0.07600
977.71469,0.07543
976.68443,0.07490
975.65418,0.07433
974.62392,0.07406
973.59366,0.07413
972.56340,0.07463
971.53315,0.07555
970.50289,0.07667
969.47263,0.07803
968.44237,0.07995
967.41211,0.08248
966.38186,0.08567
965.35160,0.08980
964.32134,0.09469
963.29108,0.09988
962.26082,0.10558
961.23057,0.11223
960.20031,0.11948
959.17005,0.12694
958.13979,0.13455
957.10954,0.14222
956.07928,0.14989
955.04902,0.15753
954.01876,0.16492
952.98850,0.17185
951.95825,0.17809
950.92799,0.18319
949.89773,0.18690
948.86747,0.18963
947.83722,0.19189
946.80696,0.19362
945.77670,0.19439
944.74644,0.19417
943.71618,0.19303
942.68593,0.19090
941.65567,0.18815
940.62541,0.18545
939.59515,0.18299
938.56489,0.18015
937.53464,0.17687
936.50438,0.17380
935.47412,0.17084
934.44386,0.16759
933.41361,0.16424
932.38335,0.16092
931.35309,0.15752
930.32283,0.15415
929.29257,0.15086
928.26232,0.14759
927.23206,0.14438
926.20180,0.14153
925.17154,0.13897
924.14128,0.13632
923.11103,0.13363
922.08077,0.13145
921.05051,0.12984
920.02025,0.12803
918.99000,0.12572
917.95974,0.12357
916.92948,0.12162
915.89922,0.11931
914.86896,0.11699
913.83871,0.11502
912.80845,0.11315
911.77819,0.11124
910.74793,0.10898
909.71768,0.10636
908.68742,0.10390
907.65716,0.10184
906.62690,0.09970
905.59664,0.09723
904.56639,0.09496
903.53613,0.09329
902.50587,0.09181
901.47561,0.09026
900.44535,0.08928
899.41510,0.08931
898.38484,0.08966
897.35458,0.08994
896.32432,0.09092
895.29407,0.09258
894.26381,0.09419
893.23355,0.09609
892.20329,0.09871
891.17303,0.10167
890.14278,0.10458
889.11252,0.10725
888.08226,0.10945
887.05200,0.11119
886.02174,0.11238
884.99149,0.11294
883.96123,0.11308
882.93097,0.11284
881.90071,0.11174
880.87046,0.10994
879.84020,0.10808
878.80994,0.10626
877.77968,0.10459
876.74942,0.10339
875.71917,0.10268
874.68891,0.10215
873.65865,0.10165
872.62839,0.10133
871.59813,0.10149
870.56788,0.10244
869.53762,0.10422
868.50736,0.10604
867.47710,0.10728
866.44685,0.10833
865.41659,0.10945
864.38633,0.11054
863.35607,0.11168
862.32581,0.11295
861.29556,0.11424
860.26530,0.11541
859.23504,0.11668
858.20478,0.11854
857.17453,0.12050
856.14427,0.12193
855.11401,0.12365
854.08375,0.12618
853.05349,0.12856
852.02324,0.13065
850.99298,0.13285
849.96272,0.13487
848.93246,0.13687
847.90220,0.13888
846.87195,0.14065
845.84169,0.14215
844.81143,0.14330
843.78117,0.14403
842.75092,0.14470
841.72066,0.14561
840.69040,0.14648
839.66014,0.14731
838.62988,0.14823
837.59963,0.14890
836.56937,0.14881
835.53911,0.14796
834.50885,0.14687
833.47859,0.14549
832.44834,0.14349
831.41808,0.14127
830.38782,0.13921
829.35756,0.13767
828.32731,0.13646
827.29705,0.13458
826.26679,0.13244
825.23653,0.13088
824.20627,0.12926
823.17602,0.12703
822.14576,0.12510
821.11550,0.12431
820.08524,0.12421
819.05498,0.12368
818.02473,0.12283
816.99447,0.12235
815.96421,0.12192
814.93395,0.12136
813.90370,0.12096
812.87344,0.12070
811.84318,0.12028
810.81292,0.11976
809.78266,0.11929
808.75241,0.11867
807.72215,0.11818
806.69189,0.11811
805.66163,0.11808
804.63138,0.11807
803.60112,0.11824
802.57086,0.11798
801.54060,0.11724
800.51034,0.11682
799.48009,0.11654
798.44983,0.11572
797.41957,0.11514
796.38931,0.11519
795.35905,0.11484
794.32880,0.11409
793.29854,0.11386
792.26828,0.11440
791.23802,0.11458
790.20777,0.11393
789.17751,0.11380
788.14725,0.11416
787.11699,0.11428
786.08673,0.11461
785.05648,0.11502
784.02622,0.11512
782.99596,0.11510
781.96570,0.11500
780.93544,0.11502
779.90519,0.11551
778.87493,0.11644
777.84467,0.11725
776.81441,0.11748
775.78416,0.11747
774.75390,0.11754
773.72364,0.11748
772.69338,0.11749
771.66312,0.11805
770.63287,0.11890
769.60261,0.11943
768.57235,0.11960
767.54209,0.12017
766.51183,0.12122
765.48158,0.12191
764.45132,0.12267
763.42106,0.12398
762.39080,0.12508
761.36055,0.12578
760.33029,0.12661
759.30003,0.12756
758.26977,0.12820
757.23951,0.12887
756.20926,0.13009
755.17900,0.13153
754.14874,0.13243
753.11848,0.13299
752.08823,0.13391
751.05797,0.13494
750.02771,0.13579
748.99745,0.13658
747.96719,0.13719
746.93694,0.13760
745.90668,0.13802
744.87642,0.13876
743.84616,0.14038
742.81590,0.14243
741.78565,0.14371
740.75539,0.14454
739.72513,0.14551
738.69487,0.14630
737.66462,0.14684
736.63436,0.14735
735.60410,0.14824
734.57384,0.14954
733.54358,0.15037
732.51333,0.15111
731.48307,0.15233
730.45281,0.15353
729.42255,0.15471
728.39229,0.15562
727.36204,0.15624
726.33178,0.15745
725.30152,0.15876
724.27126,0.15932
723.24101,0.15982
722.21075,0.16102
721.18049,0.16246
720.15023,0.16358
719.11997,0.16479
718.08972,0.16634
717.05946,0.16762
716.02920,0.16821
714.99894,0.16867
713.96868,0.16943
712.93843,0.17050
711.90817,0.17172
710.87791,0.17247
709.84765,0.17251
708.81740,0.17285
707.78714,0.17422
706.75688,0.17568
705.72662,0.17699
704.69636,0.17836
703.66611,0.17889
702.63585,0.17872
701.60559,0.17909
700.57533,0.18031
699.54508,0.18174
698.51482,0.18316
697.48456,0.18506
696.45430,0.18669
695.42404,0.18694
694.39379,0.18701
693.36353,0.18825
692.33327,0.18974
691.30301,0.19084
690.27275,0.19193
689.24250,0.19253
688.21224,0.19252
687.18198,0.19300
686.15172,0.19429
685.12147,0.19539
684.09121,0.19615
683.06095,0.19699
682.03069,0.19794
681.00043,0.19930
679.97018,0.20065
678.93992,0.20187
677.90966,0.20369
676.87940,0.20541
675.84914,0.20580
674.81889,0.20545
673.78863,0.20564
672.75837,0.20687
671.72811,0.20856
670.69786,0.20982
669.66760,0.21090
668.63734,0.21218
667.60708,0.21228
666.57682,0.21189
665.54657,0.21205
664.51631,0.21221
663.48605,0.21332
662.45579,0.21595
661.42553,0.21832
660.39528,0.21928
659.36502,0.21914
658.33476,0.21886
657.30450,0.21937
656.27425,0.22086
655.24399,0.22275
654.21373,0.22348
653.18347,0.22269
652.15321,0.22267
651.12296,0.22403
650.09270,0.22541
649.06244,0.22682
648.03218,0.22784
647.00193,0.22806
645.97167,0.22854
644.94141,0.22957
643.91115,0.23013
642.88089,0.23023
641.85064,0.23071
640.82038,0.23130
639.79012,0.23159
638.75986,0.23245
637.72960,0.23403
636.69935,0.23549
635.66909,0.23636
634.63883,0.23673
633.60857,0.23751
632.57832,0.23884
631.54806,0.23999
630.51780,0.24113
629.48754,0.24186
628.45728,0.24107
627.42703,0.24020
626.39677,0.24117
625.36651,0.24298
624.33625,0.24429
623.30599,0.24498
622.27574,0.24556
621.24548,0.24622
620.21522,0.24631
619.18496,0.24647
618.15471,0.24780
617.12445,0.24941
616.09419,0.25019
615.06393,0.24992
614.03367,0.24937
613.00342,0.24975
611.97316,0.25123
610.94290,0.25377
609.91264,0.25690
608.88238,0.25879
607.85213,0.25814
606.82187,0.25644
605.79161,0.25627
604.76135,0.25800
603.73110,0.26000
602.70084,0.26114
601.67058,0.26244
600.64032,0.26408
599.61006,0.26385
598.57981,0.26246
597.54955,0.26282
596.51929,0.26442
595.48903,0.26501
594.45878,0.26516
593.42852,0.26699
592.39826,0.27004
591.36800,0.27222
590.33774,0.27271
589.30749,0.27295
588.27723,0.27438
587.24697,0.27621
586.21671,0.27682
585.18645,0.27610
584.15620,0.27644
583.12594,0.27794
582.09568,0.27870
581.06542,0.27928
580.03517,0.28062
579.00491,0.28183
577.97465,0.28206
576.94439,0.28252
575.91413,0.28398
574.88388,0.28567
573.85362,0.28774
572.82336,0.28994
571.79310,0.29042
570.76284,0.28870
569.73259,0.28736
568.70233,0.28803
567.67207,0.28911
566.64181,0.28994
565.61156,0.29111
564.58130,0.29253
563.55104,0.29383
562.52078,0.29488
561.49052,0.29600
560.46027,0.29585
559.43001,0.29444
558.39975,0.29409
557.36949,0.29485
556.33924,0.29571
555.30898,0.29703
554.27872,0.29896
553.24846,0.29952
552.21820,0.29840
551.18795,0.29777
550.15769,0.29740
549.12743,0.29824
548.09717,0.30216
547.06691,0.30558
546.03666,0.30624
545.00640,0.30549
543.97614,0.30401
542.94588,0.30354
541.91563,0.30387
540.88537,0.30424
539.85511,0.30602
538.82485,0.30823
537.79459,0.30935
536.76434,0.30966
535.73408,0.30993
534.70382,0.31151
533.67356,0.31335
532.64330,0.31440
531.61305,0.31597
530.58279,0.31646
529.55253,0.31538
528.52227,0.31517
527.49202,0.31546
526.46176,0.31559
525.43150,0.31737
524.40124,0.31915
523.37098,0.31838
522.34073,0.31766
521.31047,0.31924
520.28021,0.32128
519.24995,0.32146
518.21969,0.32103
517.18944,0.32212
516.15918,0.32360
515.12892,0.32293
514.09866,0.32149
513.06841,0.32167
512.03815,0.32038
511.00789,0.31759
509.97763,0.31791
508.94737,0.31943
507.91712,0.31830
506.88686,0.31613
505.85660,0.31606
504.82634,0.31845
503.79609,0.32033
502.76583,0.32070
501.73557,0.32061
500.70531,0.31873
499.67505,0.31667
498.64480,0.31745
497.61454,0.31832
496.58428,0.31613
495.55402,0.31443
494.52376,0.31515
493.49351,0.31579
492.46325,0.31730
491.43299,0.31996
490.40273,0.32085
489.37248,0.31956
488.34222,0.31820
487.31196,0.31794
486.28170,0.31613
485.25144,0.31354
484.22119,0.31345
483.19093,0.31392
482.16067,0.31353
481.13041,0.31349
480.10015,0.31444
479.06990,0.31482
478.03964,0.31338
477.00938,0.31143
475.97912,0.31034
474.94887,0.31022
473.91861,0.30989
472.88835,0.30995
471.85809,0.31130
470.82783,0.31084
469.79758,0.30890
468.76732,0.30865
467.73706,0.30831
466.70680,0.30865
465.67654,0.31308
464.64629,0.31650
463.61603,0.31469
462.58577,0.31138
461.55551,0.31054
460.52526,0.31167
459.49500,0.31207
458.46474,0.31182
457.43448,0.31169
456.40422,0.31006
455.37397,0.30967
454.34371,0.31327
453.31345,0.31625
452.28319,0.31411
451.25294,0.30947
450.22268,0.30471
449.19242,0.29970
448.16216,0.29752
447.13190,0.30154
446.10165,0.30815
445.07139,0.31034
444.04113,0.30800
443.01087,0.30414
441.98061,0.30034
440.95036,0.30002
439.92010,0.30360
438.88984,0.30666
437.85958,0.30748
436.82933,0.30440
435.79907,0.29985
434.76881,0.30132
433.73855,0.30421
432.70829,0.30295
431.67804,0.29893
430.64778,0.29281
429.61752,0.28944
428.58726,0.29047
427.55700,0.29254
426.52675,0.29516
425.49649,0.29583
424.46623,0.29018
423.43597,0.28419
422.40572,0.28988
421.37546,0.30173
420.34520,0.30520
419.31494,0.29833
418.28468,0.29238
417.25443,0.29307
416.22417,0.29665
415.19391,0.29928
414.16365,0.30002
413.13339,0.29977
412.10314,0.29658
411.07288,0.29156
410.04262,0.28945
409.01236,0.29213
407.98211,0.29621
406.95185,0.29818
405.92159,0.29779
404.89133,0.29587
403.86107,0.29154
402.83082,0.28526
401.80056,0.27852
400.77030,0.27079
399.74004,0.26792
