4998.81105,-0.00075
4997.78079,-0.00036
4996.75054,0.00069
4995.72028,0.00100
4994.69002,0.00081
4993.65976,0.00032
4992.62951,-0.00040
4991.59925,-0.00030
4990.56899,-0.00026
4989.53873,-0.00055
4988.50847,-0.00039
4987.47822,-0.00104
4986.44796,-0.00217
4985.41770,-0.00164
4984.38744,-0.00028
4983.35718,0.00043
4982.32693,0.00079
4981.29667,0.00098
4980.26641,0.00126
4979.23615,0.00157
4978.20590,0.00142
4977.17564,0.00095
4976.14538,0.00027
4975.11512,-0.00063
4974.08486,-0.00116
4973.05461,-0.00122
4972.02435,-0.00094
4970.99409,0.00003
4969.96383,0.00097
4968.93357,0.00091
4967.90332,0.00031
4966.87306,-0.00017
4965.84280,-0.00035
4964.81254,0.00019
4963.78229,0.00081
4962.75203,0.00028
4961.72177,-0.00035
4960.69151,0.00000
4959.66125,0.00018
4958.63100,-0.00001
4957.60074,0.00050
4956.57048,0.00104
4955.54022,0.00087
4954.50997,0.00050
4953.47971,-0.00018
4952.44945,-0.00101
4951.41919,-0.00088
4950.38893,-0.00017
4949.35868,-0.00030
4948.32842,-0.00100
4947.29816,-0.00094
4946.26790,0.00019
4945.23764,0.00085
4944.20739,0.00037
4943.17713,0.00040
4942.14687,0.00114
4941.11661,0.00100
4940.08636,-0.00033
4939.05610,-0.00159
4938.02584,-0.00197
4936.99558,-0.00163
4935.96532,-0.00099
4934.93507,-0.00085
4933.90481,-0.00102
4932.87455,-0.00009
4931.84429,0.00096
4930.81403,0.00056
4929.78378,-0.00025
4928.75352,-0.00032
4927.72326,-0.00012
4926.69300,-0.00014
4925.66275,0.00029
4924.63249,0.00127
4923.60223,0.00158
4922.57197,0.00096
4921.54171,0.00044
4920.51146,-0.00020
4919.48120,-0.00083
4918.45094,-0.00016
4917.42068,0.00080
4916.39042,0.00058
4915.36017,-0.00008
4914.32991,-0.00001
4913.29965,0.00063
4912.26939,0.00053
4911.23914,-0.00025
4910.20888,-0.00083
4909.17862,-0.00133
4908.14836,-0.00138
4907.11810,-0.00104
4906.08785,-0.00087
4905.05759,-0.00078
4904.02733,-0.00118
4902.99707,-0.00201
4901.96682,-0.00199
4900.93656,-0.00095
4899.90630,-0.00035
4898.87604,-0.00063
4897.84578,-0.00061
4896.81553,0.00003
4895.78527,0.00024
4894.75501,-0.00016
4893.72475,-0.00026
4892.69449,-0.00027
4891.66424,-0.00095
4890.63398,-0.00155
4889.60372,-0.00174
4888.57346,-0.00189
4887.54321,-0.00171
4886.51295,-0.00126
4885.48269,-0.00055
4884.45243,0.00024
4883.42217,0.00084
4882.39192,0.00122
4881.36166,0.00115
4880.33140,0.00086
4879.30114,0.00062
4878.27088,0.00037
4877.24063,-0.00008
4876.21037,-0.00060
4875.18011,-0.00053
4874.14985,-0.00013
4873.11960,-0.00031
4872.08934,-0.00096
4871.05908,-0.00134
4870.02882,-0.00092
4868.99856,-0.00014
4867.96831,0.00022
4866.93805,0.00062
4865.90779,0.00082
4864.87753,0.00019
4863.84727,-0.00008
4862.81702,0.00048
4861.78676,0.00070
4860.75650,0.00057
4859.72624,0.00055
4858.69599,0.00076
4857.66573,0.00097
4856.63547,0.00114
4855.60521,0.00147
4854.57495,0.00115
4853.54470,0.00011
4852.51444,-0.00037
4851.48418,-0.00025
4850.45392,-0.00027
4849.42367,-0.00044
4848.39341,-0.00043
4847.36315,-0.00029
4846.33289,0.00016
4845.30263,0.00092
4844.27238,0.00117
4843.24212,0.00050
4842.21186,-0.00017
4841.18160,0.00011
4840.15134,0.00083
4839.12109,0.00069
4838.09083,-0.00031
4837.06057,-0.00134
4836.03031,-0.00230
4835.00006,-0.00256
4833.96980,-0.00213
4832.93954,-0.00216
4831.90928,-0.00233
4830.87902,-0.00151
4829.84877,-0.00004
4828.81851,0.00075
4827.78825,0.00050
4826.75799,0.00011
4825.72773,0.00063
4824.69748,0.00100
4823.66722,-0.00014
4822.63696,-0.00081
4821.60670,0.00033
4820.57645,0.00116
4819.54619,0.00041
4818.51593,-0.00058
4817.48567,-0.00068
4816.45541,-0.00024
4815.42516,0.00025
4814.39490,0.00076
4813.36464,0.00110
4812.33438,0.00113
4811.30412,0.00074
4810.27387,0.00013
4809.24361,-0.00024
4808.21335,-0.00019
4807.18309,0.00029
4806.15284,0.00051
4805.12258,-0.00006
4804.09232,-0.00053
4803.06206,-0.00018
4802.03180,0.00045
4801.00155,0.00034
4799.97129,-0.00025
4798.94103,-0.00005
4797.91077,0.00051
4796.88052,0.00058
4795.85026,0.00102
4794.82000,0.00148
4793.78974,0.00029
4792.75948,-0.00106
4791.72923,-0.00057
4790.69897,0.00008
4789.66871,-0.00022
4788.63845,-0.00021
4787.60819,0.00024
4786.57794,0.00005
4785.54768,-0.00023
4784.51742,0.00018
4783.48716,0.00034
4782.45691,0.00056
4781.42665,0.00106
4780.39639,0.00074
4779.36613,-0.00046
4778.33587,-0.00128
4777.30562,-0.00065
4776.27536,0.00015
4775.24510,0.00002
4774.21484,-0.00012
4773.18458,-0.00006
4772.15433,0.00002
4771.12407,0.00018
4770.09381,-0.00023
4769.06355,-0.00072
4768.03330,-0.00060
4767.00304,-0.00055
4765.97278,-0.00051
4764.94252,-0.00048
4763.91226,-0.00032
4762.88201,0.00047
4761.85175,0.00094
4760.82149,0.00041
4759.79123,-0.00055
4758.76098,-0.00102
4757.73072,-0.00063
4756.70046,-0.00007
4755.67020,0.00039
4754.63994,0.00087
4753.60969,0.00082
4752.57943,0.00041
4751.54917,0.00030
4750.51891,0.00038
4749.48865,0.00042
4748.45840,0.00028
4747.42814,0.00030
4746.39788,0.00064
4745.36762,0.00097
4744.33737,0.00096
4743.30711,0.00086
4742.27685,0.00103
4741.24659,0.00073
4740.21633,-0.00007
4739.18608,-0.00028
4738.15582,-0.00063
4737.12556,-0.00158
4736.09530,-0.00147
4735.06504,-0.00016
4734.03479,0.00089
4733.00453,0.00074
4731.97427,-0.00041
4730.94401,-0.00110
4729.91376,-0.00095
4728.88350,-0.00048
4727.85324,0.00013
4726.82298,0.00007
4725.79272,-0.00086
4724.76247,-0.00164
4723.73221,-0.00150
4722.70195,-0.00070
4721.67169,-0.00010
4720.64143,0.00009
4719.61118,0.00025
4718.58092,0.00046
4717.55066,0.00053
4716.52040,0.00040
4715.49015,0.00053
4714.45989,0.00068
4713.42963,0.00013
4712.39937,-0.00068
4711.36911,-0.00085
4710.33886,-0.00058
4709.30860,-0.00048
4708.27834,-0.00034
4707.24808,-0.00021
4706.21783,-0.00018
4705.18757,0.00001
4704.15731,0.00011
4703.12705,-0.00010
4702.09679,-0.00011
4701.06654,0.00016
4700.03628,0.00019
4699.00602,0.00051
4697.97576,0.00116
4696.94550,0.00087
4695.91525,-0.00000
4694.88499,-0.00041
4693.85473,-0.00060
4692.82447,-0.00061
4691.79422,-0.00026
4690.76396,0.00015
4689.73370,0.00031
4688.70344,0.00011
4687.67318,0.00007
4686.64293,0.00015
4685.61267,-0.00004
4684.58241,0.00004
4683.55215,0.00026
4682.52189,0.00023
4681.49164,-0.00005
4680.46138,-0.00090
4679.43112,-0.00157
4678.40086,-0.00087
4677.37061,0.00006
4676.34035,0.00016
4675.31009,0.00037
4674.27983,0.00061
4673.24957,0.00057
4672.21932,0.00084
4671.18906,0.00098
4670.15880,0.00061
4669.12854,0.00086
4668.09828,0.00161
4667.06803,0.00148
4666.03777,0.00094
4665.00751,0.00064
4663.97725,0.00035
4662.94700,0.00027
4661.91674,0.00051
4660.88648,0.00030
4659.85622,-0.00030
4658.82596,-0.00069
4657.79571,-0.00106
4656.76545,-0.00090
4655.73519,-0.00016
4654.70493,0.00010
4653.67468,0.00019
4652.64442,0.00047
4651.61416,0.00012
4650.58390,-0.00076
4649.55364,-0.00103
4648.52339,-0.00027
4647.49313,0.00061
4646.46287,0.00064
4645.43261,0.00025
4644.40235,0.00029
4643.37210,0.00072
4642.34184,0.00063
4641.31158,0.00012
4640.28132,0.00042
4639.25107,0.00115
4638.22081,0.00113
4637.19055,0.00054
4636.16029,0.00020
4635.13003,0.00019
4634.09978,-0.00013
4633.06952,-0.00063
4632.03926,-0.00039
4631.00900,0.00024
4629.97874,0.00047
4628.94849,0.00061
4627.91823,0.00070
4626.88797,0.00047
4625.85771,0.00001
4624.82746,-0.00044
4623.79720,-0.00037
4622.76694,0.00028
4621.73668,0.00073
4620.70642,0.00046
4619.67617,-0.00002
4618.64591,0.00007
4617.61565,0.00022
4616.58539,-0.00035
4615.55513,-0.00105
4614.52488,-0.00067
4613.49462,0.00045
4612.46436,0.00078
4611.43410,0.00011
4610.40385,-0.00052
4609.37359,-0.00050
4608.34333,-0.00034
4607.31307,-0.00046
4606.28281,-0.00075
4605.25256,-0.00110
4604.22230,-0.00143
4603.19204,-0.00171
4602.16178,-0.00159
4601.13153,-0.00119
4600.10127,-0.00075
4599.07101,0.00016
4598.04075,0.00075
4597.01049,0.00034
4595.98024,-0.00018
4594.94998,-0.00031
4593.91972,0.00008
4592.88946,0.00080
4591.85920,0.00083
4590.82895,0.00006
4589.79869,-0.00024
4588.76843,0.00022
4587.73817,0.00075
4586.70792,0.00058
4585.67766,-0.00044
4584.64740,-0.00118
4583.61714,-0.00087
4582.58688,-0.00026
4581.55663,-0.00013
4580.52637,-0.00012
4579.49611,0.00004
4578.46585,0.00043
4577.43559,0.00087
4576.40534,0.00064
4575.37508,0.00021
4574.34482,0.00007
4573.31456,0.00008
4572.28431,0.00015
4571.25405,-0.00014
4570.22379,-0.00077
4569.19353,-0.00096
4568.16327,-0.00064
4567.13302,-0.00036
4566.10276,-0.00046
4565.07250,-0.00082
4564.04224,-0.00101
4563.01198,-0.00106
4561.98173,-0.00108
4560.95147,-0.00095
4559.92121,-0.00089
4558.89095,-0.00092
4557.86070,-0.00031
4556.83044,0.00083
4555.80018,0.00101
4554.76992,0.00022
4553.73966,-0.00019
4552.70941,0.00011
4551.67915,0.00030
4550.64889,-0.00012
4549.61863,-0.00013
4548.58838,0.00053
4547.55812,0.00055
4546.52786,0.00029
4545.49760,0.00073
4544.46734,0.00100
4543.43709,0.00093
4542.40683,0.00106
4541.37657,0.00088
4540.34631,0.00064
4539.31605,0.00049
4538.28580,0.00018
4537.25554,0.00017
4536.22528,0.00038
4535.19502,0.00023
4534.16477,-0.00008
4533.13451,-0.00004
4532.10425,0.00028
4531.07399,0.00025
4530.04373,0.00015
4529.01348,0.00031
4527.98322,0.00031
4526.95296,0.00005
4525.92270,-0.00072
4524.89244,-0.00125
4523.86219,-0.00050
4522.83193,0.00040
4521.80167,0.00016
4520.77141,-0.00055
4519.74116,-0.00066
4518.71090,-0.00035
4517.68064,-0.00002
4516.65038,0.00043
4515.62012,0.00088
4514.58987,0.00072
4513.55961,-0.00005
4512.52935,-0.00048
4511.49909,-0.00027
4510.46883,0.00011
4509.43858,0.00015
4508.40832,-0.00004
4507.37806,-0.00001
4506.34780,0.00022
4505.31755,0.00078
4504.28729,0.00148
4503.25703,0.00160
4502.22677,0.00124
4501.19651,0.00104
4500.16626,0.00105
4499.13600,0.00089
4498.10574,0.00045
4497.07548,0.00019
4496.04523,0.00036
4495.01497,0.00036
4493.98471,-0.00010
4492.95445,-0.00055
4491.92419,-0.00072
4490.89394,-0.00040
4489.86368,0.00035
4488.83342,0.00069
4487.80316,0.00061
4486.77290,0.00052
4485.74265,0.00016
4484.71239,0.00000
4483.68213,0.00035
4482.65187,0.00037
4481.62162,-0.00007
4480.59136,-0.00031
4479.56110,-0.00031
4478.53084,-0.00050
4477.50058,-0.00076
4476.47033,-0.00082
4475.44007,-0.00101
4474.40981,-0.00134
4473.37955,-0.00120
4472.34929,-0.00076
4471.31904,-0.00055
4470.28878,-0.00036
4469.25852,-0.00003
4468.22826,0.00040
4467.19801,0.00068
4466.16775,0.00036
4465.13749,0.00005
4464.10723,0.00061
4463.07697,0.00099
4462.04672,0.00030
4461.01646,-0.00023
4459.98620,-0.00019
4458.95594,-0.00003
4457.92568,0.00029
4456.89543,0.00019
4455.86517,-0.00025
4454.83491,-0.00030
4453.80465,-0.00031
4452.77440,-0.00038
4451.74414,-0.00002
4450.71388,0.00037
4449.68362,-0.00000
4448.65336,-0.00081
4447.62311,-0.00084
4446.59285,-0.00017
4445.56259,0.00016
4444.53233,0.00003
4443.50208,-0.00051
4442.47182,-0.00104
4441.44156,-0.00093
4440.41130,-0.00023
4439.38104,0.00058
4438.35079,0.00108
4437.32053,0.00124
4436.29027,0.00111
4435.26001,0.00068
4434.22975,0.00026
4433.19950,-0.00014
4432.16924,-0.00050
4431.13898,-0.00046
4430.10872,-0.00034
4429.07847,-0.00013
4428.04821,0.00066
4427.01795,0.00104
4425.98769,0.00028
4424.95743,-0.00044
4423.92718,-0.00041
4422.89692,-0.00007
4421.86666,-0.00009
4420.83640,-0.00063
4419.80614,-0.00052
4418.77589,0.00028
4417.74563,0.00021
4416.71537,-0.00039
4415.68511,-0.00026
4414.65486,0.00043
4413.62460,0.00101
4412.59434,0.00098
4411.56408,0.00026
4410.53382,-0.00045
4409.50357,-0.00033
4408.47331,0.00015
4407.44305,-0.00011
4406.41279,-0.00086
4405.38253,-0.00098
4404.35228,-0.00044
4403.32202,-0.00031
4402.29176,-0.00048
4401.26150,-0.00024
4400.23125,-0.00020
4399.20099,-0.00079
4398.17073,-0.00100
4397.14047,-0.00050
4396.11021,-0.00025
4395.07996,-0.00047
4394.04970,-0.00050
4393.01944,-0.00027
4391.98918,0.00001
4390.95893,0.00010
4389.92867,-0.00020
4388.89841,-0.00045
4387.86815,-0.00051
4386.83789,-0.00047
4385.80764,-0.00014
4384.77738,0.00023
4383.74712,0.00027
4382.71686,0.00034
4381.68660,0.00064
4380.65635,0.00038
4379.62609,-0.00024
4378.59583,-0.00015
4377.56557,0.00033
4376.53532,0.00022
4375.50506,-0.00034
4374.47480,-0.00056
4373.44454,-0.00014
4372.41428,0.00018
4371.38403,-0.00034
4370.35377,-0.00110
4369.32351,-0.00112
4368.29325,-0.00036
4367.26299,0.00072
4366.23274,0.00133
4365.20248,0.00083
4364.17222,-0.00017
4363.14196,-0.00084
4362.11171,-0.00107
4361.08145,-0.00105
4360.05119,-0.00115
4359.02093,-0.00105
4357.99067,-0.00063
4356.96042,-0.00041
4355.93016,-0.00024
4354.89990,-0.00028
4353.86964,-0.00056
4352.83939,-0.00032
4351.80913,0.00021
4350.77887,0.00046
4349.74861,0.00059
4348.71835,0.00080
4347.68810,0.00056
4346.65784,-0.00049
4345.62758,-0.00149
4344.59732,-0.00186
4343.56706,-0.00150
4342.53681,-0.00058
4341.50655,-0.00030
4340.47629,-0.00075
4339.44603,-0.00084
4338.41578,-0.00049
4337.38552,0.00016
4336.35526,0.00074
4335.32500,0.00069
4334.29474,0.00032
4333.26449,0.00011
4332.23423,0.00000
4331.20397,-0.00008
4330.17371,-0.00014
4329.14345,0.00012
4328.11320,0.00042
4327.08294,-0.00015
4326.05268,-0.00076
4325.02242,-0.00061
4323.99217,-0.00047
4322.96191,-0.00024
4321.93165,0.00048
4320.90139,0.00107
4319.87113,0.00107
4318.84088,0.00092
4317.81062,0.00087
4316.78036,0.00087
4315.75010,0.00075
4314.71984,0.00064
4313.68959,0.00109
4312.65933,0.00152
4311.62907,0.00131
4310.59881,0.00102
4309.56856,0.00079
4308.53830,0.00039
4307.50804,0.00010
4306.47778,0.00008
4305.44752,0.00025
4304.41727,0.00053
4303.38701,0.00066
4302.35675,0.00052
4301.32649,0.00029
4300.29624,0.00013
4299.26598,-0.00000
4298.23572,-0.00007
4297.20546,-0.00007
4296.17520,-0.00035
4295.14495,-0.00060
4294.11469,-0.00054
4293.08443,-0.00044
4292.05417,0.00007
4291.02391,0.00062
4289.99366,0.00051
4288.96340,0.00074
4287.93314,0.00158
4286.90288,0.00154
4285.87263,0.00066
4284.84237,0.00017
4283.81211,0.00028
4282.78185,0.00042
4281.75159,0.00001
4280.72134,-0.00059
4279.69108,-0.00066
4278.66082,-0.00045
4277.63056,-0.00022
4276.60030,-0.00014
4275.57005,-0.00045
4274.53979,-0.00074
4273.50953,-0.00083
4272.47927,-0.00027
4271.44902,0.00079
4270.41876,0.00112
4269.38850,0.00083
4268.35824,0.00075
4267.32798,0.00074
4266.29773,0.00015
4265.26747,-0.00049
4264.23721,-0.00024
4263.20695,0.00027
4262.17669,0.00036
4261.14644,0.00039
4260.11618,0.00065
4259.08592,0.00087
4258.05566,0.00077
4257.02541,0.00082
4255.99515,0.00107
4254.96489,0.00095
4253.93463,0.00058
4252.90437,0.00057
4251.87412,0.00103
4250.84386,0.00136
4249.81360,0.00124
4248.78334,0.00088
4247.75309,0.00050
4246.72283,0.00025
4245.69257,0.00011
4244.66231,0.00009
4243.63205,0.00028
4242.60180,0.00047
4241.57154,0.00053
4240.54128,0.00069
4239.51102,0.00075
4238.48076,0.00045
4237.45051,0.00028
4236.42025,0.00044
4235.38999,0.00051
4234.35973,0.00030
4233.32948,0.00019
4232.29922,0.00033
4231.26896,0.00020
4230.23870,0.00001
4229.20844,0.00020
4228.17819,0.00024
4227.14793,-0.00001
4226.11767,0.00001
4225.08741,0.00009
4224.05715,-0.00021
4223.02690,-0.00037
4221.99664,-0.00010
4220.96638,0.00013
4219.93612,0.00031
4218.90587,0.00057
4217.87561,0.00050
4216.84535,0.00023
4215.81509,0.00017
4214.78483,0.00030
4213.75458,0.00029
4212.72432,-0.00014
4211.69406,-0.00065
4210.66380,-0.00057
4209.63354,0.00025
4208.60329,0.00112
4207.57303,0.00110
4206.54277,0.00028
4205.51251,-0.00023
4204.48226,-0.00009
4203.45200,0.00017
4202.42174,0.00014
4201.39148,-0.00052
4200.36122,-0.00111
4199.33097,-0.00106
4198.30071,-0.00093
4197.27045,-0.00090
4196.24019,-0.00086
4195.20994,-0.00097
4194.17968,-0.00093
4193.14942,-0.00045
4192.11916,-0.00019
4191.08890,-0.00028
4190.05865,-0.00022
4189.02839,-0.00025
4187.99813,-0.00026
4186.96787,-0.00019
4185.93761,0.00000
4184.90736,0.00033
4183.87710,0.00009
4182.84684,-0.00028
4181.81658,-0.00021
4180.78633,-0.00023
4179.75607,-0.00017
4178.72581,-0.00004
4177.69555,-0.00013
4176.66529,-0.00025
4175.63504,-0.00051
4174.60478,-0.00046
4173.57452,-0.00006
4172.54426,-0.00010
4171.51400,-0.00025
4170.48375,-0.00013
4169.45349,-0.00011
4168.42323,-0.00035
4167.39297,-0.00081
4166.36272,-0.00088
4165.33246,-0.00056
4164.30220,-0.00062
4163.27194,-0.00077
4162.24168,-0.00054
4161.21143,-0.00012
4160.18117,0.00007
4159.15091,-0.00017
4158.12065,-0.00038
4157.09039,-0.00036
4156.06014,-0.00052
4155.02988,-0.00066
4153.99962,-0.00075
4152.96936,-0.00095
4151.93911,-0.00087
4150.90885,-0.00050
4149.87859,-0.00001
4148.84833,0.00054
4147.81807,0.00083
4146.78782,0.00070
4145.75756,0.00014
4144.72730,-0.00052
4143.69704,-0.00069
4142.66679,-0.00036
4141.63653,-0.00007
4140.60627,-0.00015
4139.57601,-0.00004
4138.54575,0.00047
4137.51550,0.00067
4136.48524,0.00035
4135.45498,0.00007
4134.42472,0.00027
4133.39446,0.00048
4132.36421,0.00031
4131.33395,0.00049
4130.30369,0.00095
4129.27343,0.00055
4128.24318,-0.00067
4127.21292,-0.00124
4126.18266,-0.00089
4125.15240,-0.00065
4124.12214,-0.00052
4123.09189,-0.00036
4122.06163,-0.00048
4121.03137,-0.00051
4120.00111,-0.00022
4118.97085,0.00009
4117.94060,0.00052
4116.91034,0.00073
4115.88008,0.00030
4114.84982,0.00002
4113.81957,-0.00008
4112.78931,-0.00038
4111.75905,-0.00025
4110.72879,0.00040
4109.69853,0.00116
4108.66828,0.00144
4107.63802,0.00094
4106.60776,0.00033
4105.57750,0.00013
4104.54724,0.00009
4103.51699,-0.00029
4102.48673,-0.00079
4101.45647,-0.00077
4100.42621,-0.00032
4099.39596,0.00007
4098.36570,0.00009
4097.33544,-0.00018
4096.30518,-0.00013
4095.27492,0.00020
4094.24467,0.00029
4093.21441,-0.00007
4092.18415,-0.00045
4091.15389,-0.00025
4090.12364,0.00004
4089.09338,-0.00009
4088.06312,-0.00020
4087.03286,-0.00023
4086.00260,-0.00053
4084.97235,-0.00073
4083.94209,-0.00038
4082.91183,0.00022
4081.88157,0.00039
4080.85131,0.00022
4079.82106,0.00022
4078.79080,0.00004
4077.76054,-0.00030
4076.73028,-0.00041
4075.70003,-0.00035
4074.66977,-0.00010
4073.63951,0.00003
4072.60925,-0.00009
4071.57899,0.00013
4070.54874,0.00040
4069.51848,0.00002
4068.48822,-0.00037
4067.45796,-0.00039
4066.42770,-0.00063
4065.39745,-0.00075
4064.36719,-0.00026
4063.33693,0.00008
4062.30667,-0.00006
4061.27642,-0.00035
4060.24616,-0.00056
4059.21590,-0.00034
4058.18564,0.00019
4057.15538,0.00089
4056.12513,0.00119
4055.09487,0.00059
4054.06461,0.00001
4053.03435,0.00038
4052.00409,0.00076
4050.97384,0.00043
4049.94358,0.00006
4048.91332,-0.00009
4047.88306,-0.00019
4046.85281,-0.00003
4045.82255,0.00044
4044.79229,0.00060
4043.76203,0.00011
4042.73177,-0.00030
4041.70152,-0.00040
4040.67126,-0.00067
4039.64100,-0.00088
4038.61074,-0.00065
4037.58049,-0.00028
4036.55023,-0.00019
4035.51997,-0.00043
4034.48971,-0.00073
4033.45945,-0.00054
4032.42920,0.00007
4031.39894,0.00023
4030.36868,-0.00026
4029.33842,-0.00063
4028.30816,-0.00063
4027.27791,-0.00051
4026.24765,-0.00035
4025.21739,-0.00021
4024.18713,-0.00008
4023.15688,0.00007
4022.12662,0.00004
4021.09636,-0.00007
4020.06610,0.00009
4019.03584,0.00030
4018.00559,0.00018
4016.97533,-0.00020
4015.94507,-0.00056
4014.91481,-0.00082
4013.88455,-0.00101
4012.85430,-0.00088
4011.82404,-0.00046
4010.79378,-0.00030
4009.76352,-0.00022
4008.73327,0.00026
4007.70301,0.00058
4006.67275,0.00041
4005.64249,0.00027
4004.61223,0.00020
4003.58198,-0.00003
4002.55172,-0.00022
4001.52146,-0.00010
4000.49120,0.00014
3999.46095,0.00017
3998.43069,0.00010
3997.40043,0.00017
3996.37017,0.00051
3995.33991,0.00080
3994.30966,0.00062
3993.27940,0.00041
3992.24914,0.00026
3991.21888,-0.00007
3990.18862,-0.00019
3989.15837,-0.00015
3988.12811,-0.00014
3987.09785,0.00004
3986.06759,0.00027
3985.03734,0.00022
3984.00708,-0.00008
3982.97682,-0.00049
3981.94656,-0.00079
3980.91630,-0.00043
3979.88605,0.00022
3978.85579,0.00022
3977.82553,-0.00009
3976.79527,0.00005
3975.76501,0.00030
3974.73476,0.00042
3973.70450,0.00041
3972.67424,0.00002
3971.64398,-0.00032
3970.61373,-0.00041
3969.58347,-0.00063
3968.55321,-0.00084
3967.52295,-0.00063
3966.49269,-0.00018
3965.46244,0.00002
3964.43218,-0.00015
3963.40192,-0.00049
3962.37166,-0.00064
3961.34140,-0.00052
3960.31115,-0.00007
3959.28089,0.00065
3958.25063,0.00102
3957.22037,0.00091
3956.19012,0.00066
3955.15986,0.00028
3954.12960,-0.00003
3953.09934,-0.00006
3952.06908,-0.00000
3951.03883,0.00002
3950.00857,0.00006
3948.97831,-0.00005
3947.94805,-0.00024
3946.91780,0.00019
3945.88754,0.00100
3944.85728,0.00123
3943.82702,0.00083
3942.79676,0.00034
3941.76651,0.00016
3940.73625,0.00033
3939.70599,0.00054
3938.67573,0.00067
3937.64547,0.00084
3936.61522,0.00078
3935.58496,0.00032
3934.55470,-0.00024
3933.52444,-0.00077
3932.49419,-0.00122
3931.46393,-0.00106
3930.43367,-0.00021
3929.40341,0.00063
3928.37315,0.00106
3927.34290,0.00091
3926.31264,0.00028
3925.28238,-0.00020
3924.25212,-0.00013
3923.22186,0.00007
3922.19161,0.00003
3921.16135,-0.00005
3920.13109,-0.00012
3919.10083,-0.00015
3918.07058,0.00017
3917.04032,0.00070
3916.01006,0.00052
3914.97980,-0.00006
3913.94954,-0.00007
3912.91929,0.00017
3911.88903,0.00018
3910.85877,0.00010
3909.82851,0.00012
3908.79825,0.00033
3907.76800,0.00034
3906.73774,0.00001
3905.70748,-0.00029
3904.67722,-0.00029
3903.64697,-0.00001
3902.61671,0.00038
3901.58645,0.00086
3900.55619,0.00073
3899.52593,-0.00006
3898.49568,-0.00032
3897.46542,0.00006
3896.43516,0.00023
3895.40490,0.00021
3894.37465,-0.00004
3893.34439,-0.00047
3892.31413,-0.00046
3891.28387,0.00009
3890.25361,0.00032
3889.22336,0.00006
3888.19310,-0.00004
3887.16284,0.00019
3886.13258,0.00069
3885.10232,0.00103
3884.07207,0.00072
3883.04181,0.00022
3882.01155,-0.00012
3880.98129,-0.00030
3879.95104,-0.00041
3878.92078,-0.00047
3877.89052,-0.00036
3876.86026,0.00012
3875.83000,0.00059
3874.79975,0.00038
3873.76949,-0.00000
3872.73923,0.00001
3871.70897,-0.00024
3870.67871,-0.00064
3869.64846,-0.00018
3868.61820,0.00050
3867.58794,0.00051
3866.55768,0.00032
3865.52743,0.00023
3864.49717,0.00035
3863.46691,0.00054
3862.43665,0.00043
3861.40639,-0.00015
3860.37614,-0.00061
3859.34588,-0.00029
3858.31562,0.00022
3857.28536,0.00039
3856.25510,0.00040
3855.22485,-0.00008
3854.19459,-0.00093
3853.16433,-0.00124
3852.13407,-0.00125
3851.10382,-0.00134
3850.07356,-0.00120
3849.04330,-0.00062
3848.01304,-0.00006
3846.98278,0.00011
3845.95253,-0.00001
3844.92227,0.00008
3843.89201,0.00053
3842.86175,0.00066
3841.83150,0.00027
3840.80124,-0.00030
3839.77098,-0.00051
3838.74072,-0.00003
3837.71046,0.00049
3836.68021,0.00046
3835.64995,0.00048
3834.61969,0.00067
3833.58943,0.00071
3832.55917,0.00056
3831.52892,0.00026
3830.49866,0.00003
3829.46840,0.00002
3828.43814,0.00001
3827.40789,0.00015
3826.37763,0.00054
3825.34737,0.00052
3824.31711,0.00007
3823.28685,-0.00043
3822.25660,-0.00089
3821.22634,-0.00082
3820.19608,-0.00014
3819.16582,0.00030
3818.13556,0.00029
3817.10531,0.00005
3816.07505,0.00011
3815.04479,0.00052
3814.01453,0.00069
3812.98428,0.00070
3811.95402,0.00067
3810.92376,0.00050
3809.89350,0.00025
3808.86324,-0.00001
3807.83299,-0.00042
3806.80273,-0.00054
3805.77247,-0.00018
3804.74221,-0.00018
3803.71195,-0.00022
3802.68170,0.00017
3801.65144,0.00080
3800.62118,0.00090
3799.59092,0.00056
3798.56067,0.00030
3797.53041,0.00018
3796.50015,0.00004
3795.46989,-0.00020
3794.43963,-0.00028
3793.40938,-0.00051
3792.37912,-0.00085
3791.34886,-0.00067
3790.31860,-0.00008
3789.28835,0.00019
3788.25809,0.00004
3787.22783,-0.00024
3786.19757,-0.00051
3785.16731,-0.00041
3784.13706,-0.00000
3783.10680,-0.00017
3782.07654,-0.00046
3781.04628,0.00001
3780.01602,0.00063
3778.98577,0.00047
3777.95551,0.00024
3776.92525,0.00039
3775.89499,0.00030
3774.86474,0.00010
3773.83448,0.00028
3772.80422,0.00058
3771.77396,0.00082
3770.74370,0.00098
3769.71345,0.00074
3768.68319,0.00054
3767.65293,0.00057
3766.62267,0.00040
3765.59241,0.00017
3764.56216,0.00003
3763.53190,-0.00017
3762.50164,-0.00022
3761.47138,-0.00006
3760.44113,0.00015
3759.41087,0.00010
3758.38061,-0.00024
3757.35035,-0.00036
3756.32009,-0.00010
3755.28984,-0.00015
3754.25958,-0.00072
3753.22932,-0.00128
3752.19906,-0.00126
3751.16880,-0.00122
3750.13855,-0.00148
3749.10829,-0.00094
3748.07803,-0.00032
3747.04777,-0.00064
3746.01752,-0.00103
3744.98726,-0.00036
3743.95700,0.00148
3742.92674,0.00168
3741.89648,0.00061
3740.86623,-0.00025
3739.83597,-0.00035
3738.80571,-0.00039
3737.77545,-0.00068
3736.74520,-0.00079
3735.71494,-0.00050
3734.68468,-0.00006
3733.65442,0.00020
3732.62416,0.00009
3731.59391,0.00007
3730.56365,0.00049
3729.53339,0.00065
3728.50313,0.00045
3727.47287,0.00064
3726.44262,0.00086
3725.41236,0.00018
3724.38210,-0.00040
3723.35184,-0.00023
3722.32159,0.00013
3721.29133,0.00023
3720.26107,0.00006
3719.23081,-0.00004
3718.20055,0.00006
3717.17030,0.00003
3716.14004,0.00012
3715.10978,0.00057
3714.07952,0.00053
3713.04926,-0.00019
3712.01901,-0.00036
3710.98875,0.00008
3709.95849,-0.00018
3708.92823,-0.00066
3707.89798,-0.00032
3706.86772,0.00043
3705.83746,0.00071
3704.80720,0.00007
3703.77694,-0.00128
3702.74669,-0.00195
3701.71643,-0.00100
3700.68617,-0.00005
3699.65591,0.00007
3698.62565,0.00026
3697.59540,0.00058
3696.56514,0.00022
3695.53488,-0.00078
3694.50462,-0.00119
3693.47437,-0.00082
3692.44411,-0.00041
3691.41385,-0.00014
3690.38359,-0.00019
3689.35333,-0.00054
3688.32308,-0.00050
3687.29282,-0.00009
3686.26256,0.00025
3685.23230,0.00056
3684.20205,0.00087
3683.17179,0.00109
3682.14153,0.00095
3681.11127,0.00070
3680.08101,0.00079
3679.05076,0.00080
3678.02050,0.00008
3676.99024,-0.00065
3675.95998,0.00002
3674.92972,0.00132
3673.89947,0.00099
3672.86921,0.00013
3671.83895,-0.00004
3670.80869,0.00069
3669.77844,0.00120
3668.74818,0.00092
3667.71792,0.00064
3666.68766,0.00026
3665.65740,-0.00051
3664.62715,-0.00080
3663.59689,-0.00043
3662.56663,-0.00018
3661.53637,0.00006
3660.50611,0.00034
3659.47586,0.00029
3658.44560,-0.00001
3657.41534,-0.00045
3656.38508,-0.00018
3655.35483,0.00060
3654.32457,0.00024
3653.29431,-0.00058
3652.26405,-0.00094
3651.23379,-0.00092
3650.20354,-0.00078
3649.17328,-0.00066
3648.14302,-0.00022
3647.11276,0.00030
3646.08250,0.00004
3645.05225,-0.00048
3644.02199,-0.00094
3642.99173,-0.00122
3641.96147,-0.00055
3640.93122,0.00050
3639.90096,0.00078
3638.87070,0.00061
3637.84044,0.00034
3636.81018,-0.00014
3635.77993,-0.00052
3634.74967,-0.00061
3633.71941,-0.00031
3632.68915,0.00007
3631.65890,0.00005
3630.62864,-0.00033
3629.59838,-0.00095
3628.56812,-0.00065
3627.53786,0.00001
3626.50761,-0.00017
3625.47735,-0.00041
3624.44709,0.00002
3623.41683,0.00090
3622.38657,0.00132
3621.35632,0.00113
3620.32606,0.00084
3619.29580,0.00046
3618.26554,-0.00014
3617.23529,-0.00062
3616.20503,-0.00087
3615.17477,-0.00073
3614.14451,0.00023
3613.11425,0.00154
3612.08400,0.00220
3611.05374,0.00209
3610.02348,0.00155
3608.99322,0.00070
3607.96296,-0.00002
3606.93271,-0.00021
3605.90245,0.00030
3604.87219,0.00086
3603.84193,0.00070
3602.81168,-0.00006
3601.78142,-0.00067
3600.75116,-0.00084
3599.72090,-0.00052
3598.69064,-0.00000
3597.66039,-0.00001
3596.63013,-0.00032
3595.59987,-0.00030
3594.56961,-0.00021
3593.53936,-0.00018
3592.50910,0.00028
3591.47884,0.00089
3590.44858,0.00091
3589.41832,0.00002
3588.38807,-0.00115
3587.35781,-0.00113
3586.32755,-0.00029
3585.29729,0.00027
3584.26703,0.00038
3583.23678,0.00024
3582.20652,-0.00010
3581.17626,-0.00078
3580.14600,-0.00110
3579.11575,-0.00046
3578.08549,0.00029
3577.05523,0.00041
3576.02497,0.00004
3574.99471,-0.00049
3573.96446,-0.00063
3572.93420,-0.00049
3571.90394,-0.00071
3570.87368,-0.00096
3569.84342,-0.00102
3568.81317,-0.00125
3567.78291,-0.00129
3566.75265,-0.00060
3565.72239,-0.00013
3564.69214,-0.00051
3563.66188,-0.00069
3562.63162,-0.00020
3561.60136,0.00028
3560.57110,0.00039
3559.54085,0.00023
3558.51059,-0.00025
3557.48033,-0.00095
3556.45007,-0.00143
3555.41981,-0.00139
3554.38956,-0.00097
3553.35930,-0.00049
3552.32904,-0.00027
3551.29878,-0.00045
3550.26853,-0.00041
3549.23827,0.00009
3548.20801,0.00032
3547.17775,-0.00007
3546.14749,-0.00036
3545.11724,-0.00012
3544.08698,0.00025
3543.05672,0.00035
3542.02646,0.00013
3540.99621,-0.00030
3539.96595,-0.00076
3538.93569,-0.00057
3537.90543,0.00005
3536.87517,-0.00034
3535.84492,-0.00109
3534.81466,-0.00087
3533.78440,-0.00055
3532.75414,-0.00098
3531.72388,-0.00153
3530.69363,-0.00147
3529.66337,-0.00092
3528.63311,-0.00039
3527.60285,-0.00021
3526.57260,-0.00031
3525.54234,-0.00034
3524.51208,-0.00037
3523.48182,-0.00074
3522.45156,-0.00114
3521.42131,-0.00094
3520.39105,-0.00027
3519.36079,0.00013
3518.33053,-0.00009
3517.30027,-0.00048
3516.27002,-0.00049
3515.23976,-0.00030
3514.20950,-0.00028
3513.17924,-0.00040
3512.14899,-0.00034
3511.11873,-0.00010
3510.08847,-0.00011
3509.05821,-0.00034
3508.02795,-0.00025
3506.99770,0.00003
3505.96744,-0.00016
3504.93718,-0.00077
3503.90692,-0.00087
3502.87666,-0.00068
3501.84641,-0.00083
3500.81615,-0.00067
3499.78589,-0.00018
3498.75563,-0.00013
3497.72538,-0.00029
3496.69512,-0.00031
3495.66486,-0.00045
3494.63460,-0.00060
3493.60434,-0.00035
3492.57409,0.00014
3491.54383,0.00037
3490.51357,0.00007
3489.48331,-0.00054
3488.45306,-0.00102
3487.42280,-0.00099
3486.39254,-0.00046
3485.36228,-0.00003
3484.33202,-0.00017
3483.30177,-0.00032
3482.27151,0.00003
3481.24125,0.00019
3480.21099,-0.00018
3479.18073,-0.00056
3478.15048,-0.00058
3477.12022,-0.00036
3476.08996,-0.00020
3475.05970,-0.00038
3474.02945,-0.00048
3472.99919,-0.00012
3471.96893,0.00020
3470.93867,0.00009
3469.90841,-0.00020
3468.87816,-0.00047
3467.84790,-0.00046
3466.81764,0.00003
3465.78738,0.00023
3464.75712,0.00009
3463.72687,0.00030
3462.69661,0.00029
3461.66635,-0.00012
3460.63609,0.00003
3459.60584,0.00044
3458.57558,0.00014
3457.54532,-0.00033
3456.51506,-0.00033
3455.48480,-0.00042
3454.45455,-0.00077
3453.42429,-0.00095
3452.39403,-0.00095
3451.36377,-0.00077
3450.33351,-0.00031
3449.30326,0.00014
3448.27300,0.00014
3447.24274,-0.00002
3446.21248,0.00002
3445.18223,0.00004
3444.15197,-0.00004
3443.12171,0.00006
3442.09145,0.00030
3441.06119,0.00028
3440.03094,0.00005
3439.00068,-0.00048
3437.97042,-0.00122
3436.94016,-0.00155
3435.90991,-0.00111
3434.87965,-0.00023
3433.84939,0.00024
3432.81913,-0.00003
3431.78887,-0.00021
3430.75862,0.00010
3429.72836,0.00017
3428.69810,-0.00006
3427.66784,0.00001
3426.63758,0.00041
3425.60733,0.00071
3424.57707,0.00060
3423.54681,0.00040
3422.51655,0.00021
3421.48630,-0.00015
3420.45604,-0.00049
3419.42578,-0.00085
3418.39552,-0.00115
3417.36526,-0.00099
3416.33501,-0.00077
3415.30475,-0.00079
3414.27449,-0.00059
3413.24423,-0.00028
3412.21397,0.00005
3411.18372,0.00042
3410.15346,0.00046
3409.12320,0.00006
3408.09294,-0.00032
3407.06269,-0.00042
3406.03243,-0.00041
3405.00217,-0.00051
3403.97191,-0.00068
3402.94165,-0.00086
3401.91140,-0.00110
3400.88114,-0.00112
3399.85088,-0.00074
3398.82062,-0.00032
3397.79036,-0.00017
3396.76011,-0.00023
3395.72985,-0.00049
3394.69959,-0.00091
3393.66933,-0.00076
3392.63908,0.00003
3391.60882,0.00047
3390.57856,0.00045
3389.54830,0.00045
3388.51804,0.00032
3387.48779,-0.00014
3386.45753,-0.00055
3385.42727,-0.00055
3384.39701,-0.00027
3383.36676,-0.00001
3382.33650,-0.00018
3381.30624,-0.00063
3380.27598,-0.00058
3379.24572,-0.00005
3378.21547,0.00018
3377.18521,-0.00029
3376.15495,-0.00097
3375.12469,-0.00125
3374.09443,-0.00124
3373.06418,-0.00082
3372.03392,0.00001
3371.00366,0.00034
3369.97340,-0.00012
3368.94315,-0.00073
3367.91289,-0.00064
3366.88263,0.00036
3365.85237,0.00114
3364.82211,0.00096
3363.79186,0.00040
3362.76160,0.00009
3361.73134,-0.00005
3360.70108,-0.00013
3359.67082,-0.00005
3358.64057,0.00005
3357.61031,0.00005
3356.58005,-0.00007
3355.54979,-0.00025
3354.51954,-0.00033
3353.48928,-0.00032
3352.45902,-0.00025
3351.42876,-0.00036
3350.39850,-0.00048
3349.36825,-0.00014
3348.33799,0.00017
3347.30773,0.00008
3346.27747,-0.00012
3345.24721,-0.00024
3344.21696,-0.00011
3343.18670,0.00011
3342.15644,0.00021
3341.12618,0.00020
3340.09593,0.00015
3339.06567,0.00039
3338.03541,0.00048
3337.00515,0.00002
3335.97489,-0.00035
3334.94464,-0.00036
3333.91438,-0.00038
3332.88412,-0.00041
3331.85386,-0.00024
3330.82361,0.00000
3329.79335,0.00013
3328.76309,0.00003
3327.73283,-0.00048
3326.70257,-0.00109
3325.67232,-0.00138
3324.64206,-0.00136
3323.61180,-0.00107
3322.58154,-0.00065
3321.55128,-0.00036
3320.52103,-0.00018
3319.49077,-0.00005
3318.46051,0.00002
3317.43025,-0.00014
3316.40000,-0.00071
3315.36974,-0.00095
3314.33948,-0.00046
3313.30922,0.00002
3312.27896,0.00005
3311.24871,-0.00017
3310.21845,-0.00054
3309.18819,-0.00066
3308.15793,-0.00035
3307.12767,-0.00016
3306.09742,-0.00003
3305.06716,0.00027
3304.03690,0.00026
3303.00664,-0.00011
3301.97639,-0.00029
3300.94613,-0.00017
3299.91587,-0.00010
3298.88561,-0.00017
3297.85535,-0.00040
3296.82510,-0.00068
3295.79484,-0.00054
3294.76458,-0.00003
3293.73432,0.00018
3292.70406,0.00005
3291.67381,0.00019
3290.64355,0.00064
3289.61329,0.00049
3288.58303,-0.00033
3287.55278,-0.00075
3286.52252,-0.00066
3285.49226,-0.00057
3284.46200,-0.00047
3283.43174,-0.00044
3282.40149,-0.00050
3281.37123,-0.00016
3280.34097,0.00051
3279.31071,0.00065
3278.28046,0.00020
3277.25020,-0.00015
3276.21994,-0.00036
3275.18968,-0.00060
3274.15942,-0.00060
3273.12917,-0.00062
3272.09891,-0.00114
3271.06865,-0.00141
3270.03839,-0.00106
3269.00813,-0.00085
3267.97788,-0.00075
3266.94762,-0.00042
3265.91736,-0.00013
3264.88710,-0.00003
3263.85685,-0.00014
3262.82659,-0.00037
3261.79633,-0.00046
3260.76607,-0.00013
3259.73581,0.00052
3258.70556,0.00076
3257.67530,0.00016
3256.64504,-0.00059
3255.61478,-0.00073
3254.58452,-0.00050
3253.55427,-0.00044
3252.52401,-0.00051
3251.49375,-0.00042
3250.46349,-0.00011
3249.43324,0.00036
3248.40298,0.00081
3247.37272,0.00080
3246.34246,-0.00003
3245.31220,-0.00074
3244.28195,-0.00029
3243.25169,0.00042
3242.22143,0.00029
3241.19117,-0.00013
3240.16092,-0.00021
3239.13066,-0.00025
3238.10040,-0.00031
3237.07014,-0.00029
3236.03988,-0.00031
3235.00963,-0.00019
3233.97937,-0.00005
3232.94911,-0.00028
3231.91885,-0.00061
3230.88859,-0.00083
3229.85834,-0.00095
3228.82808,-0.00063
3227.79782,0.00009
3226.76756,0.00041
3225.73731,0.00011
3224.70705,-0.00017
3223.67679,0.00006
3222.64653,0.00026
3221.61627,-0.00002
3220.58602,-0.00031
3219.55576,-0.00036
3218.52550,-0.00030
3217.49524,-0.00008
3216.46498,0.00013
3215.43473,-0.00005
3214.40447,-0.00034
3213.37421,-0.00027
3212.34395,-0.00010
3211.31370,-0.00022
3210.28344,-0.00058
3209.25318,-0.00091
3208.22292,-0.00078
3207.19266,-0.00026
3206.16241,-0.00007
3205.13215,-0.00015
3204.10189,-0.00011
3203.07163,0.00001
3202.04137,0.00015
3201.01112,0.00028
3199.98086,0.00038
3198.95060,0.00035
3197.92034,0.00013
3196.89009,-0.00003
3195.85983,0.00023
3194.82957,0.00090
3193.79931,0.00112
3192.76905,0.00051
3191.73880,-0.00002
3190.70854,-0.00011
3189.67828,-0.00016
3188.64802,-0.00026
3187.61777,-0.00050
3186.58751,-0.00074
3185.55725,-0.00073
3184.52699,-0.00060
3183.49673,-0.00032
3182.46648,0.00023
3181.43622,0.00061
3180.40596,0.00060
3179.37570,0.00048
3178.34544,0.00037
3177.31519,0.00052
3176.28493,0.00076
3175.25467,0.00017
3174.22441,-0.00085
3173.19416,-0.00125
3172.16390,-0.00092
3171.13364,-0.00038
3170.10338,-0.00008
3169.07312,-0.00017
3168.04287,-0.00051
3167.01261,-0.00059
3165.98235,-0.00020
3164.95209,0.00018
3163.92183,0.00026
3162.89158,0.00028
3161.86132,0.00012
3160.83106,-0.00032
3159.80080,-0.00033
3158.77055,0.00022
3157.74029,0.00055
3156.71003,0.00041
3155.67977,0.00013
3154.64951,-0.00011
3153.61926,-0.00030
3152.58900,-0.00038
3151.55874,-0.00042
3150.52848,-0.00050
3149.49822,-0.00039
3148.46797,-0.00001
3147.43771,0.00029
3146.40745,0.00032
3145.37719,0.00024
3144.34694,0.00014
3143.31668,0.00003
3142.28642,0.00012
3141.25616,0.00053
3140.22590,0.00068
3139.19565,0.00027
3138.16539,0.00001
3137.13513,0.00034
3136.10487,0.00059
3135.07462,0.00034
3134.04436,0.00006
3133.01410,-0.00010
3131.98384,-0.00024
3130.95358,-0.00025
3129.92333,-0.00010
3128.89307,0.00003
3127.86281,0.00016
3126.83255,0.00012
3125.80229,-0.00023
3124.77204,-0.00029
3123.74178,0.00019
3122.71152,0.00059
3121.68126,0.00060
3120.65101,0.00065
3119.62075,0.00067
3118.59049,0.00035
3117.56023,0.00010
3116.52997,0.00014
3115.49972,0.00013
3114.46946,-0.00008
3113.43920,-0.00018
3112.40894,-0.00002
3111.37868,-0.00003
3110.34843,-0.00016
3109.31817,0.00003
3108.28791,0.00016
3107.25765,-0.00012
3106.22740,-0.00050
3105.19714,-0.00054
3104.16688,-0.00023
3103.13662,0.00009
3102.10636,0.00017
3101.07611,-0.00008
3100.04585,-0.00025
3099.01559,-0.00005
3097.98533,0.00005
3096.95507,0.00010
3095.92482,0.00049
3094.89456,0.00065
3093.86430,0.00029
3092.83404,-0.00003
3091.80379,-0.00014
3090.77353,-0.00023
3089.74327,-0.00031
3088.71301,-0.00030
3087.68275,-0.00035
3086.65250,-0.00054
3085.62224,-0.00041
3084.59198,0.00009
3083.56172,0.00033
3082.53147,0.00001
3081.50121,-0.00047
3080.47095,-0.00067
3079.44069,-0.00081
3078.41043,-0.00095
3077.38018,-0.00086
3076.34992,-0.00068
3075.31966,-0.00039
3074.28940,-0.00015
3073.25914,-0.00013
3072.22889,-0.00011
3071.19863,-0.00028
3070.16837,-0.00054
3069.13811,-0.00054
3068.10786,-0.00049
3067.07760,-0.00047
3066.04734,-0.00030
3065.01708,-0.00012
3063.98682,-0.00008
3062.95657,0.00002
3061.92631,0.00029
3060.89605,0.00057
3059.86579,0.00065
3058.83553,0.00048
3057.80528,0.00021
3056.77502,-0.00013
3055.74476,-0.00050
3054.71450,-0.00055
3053.68425,-0.00031
3052.65399,-0.00009
3051.62373,0.00007
3050.59347,0.00004
3049.56321,0.00001
3048.53296,0.00021
3047.50270,0.00006
3046.47244,-0.00057
3045.44218,-0.00097
3044.41192,-0.00090
3043.38167,-0.00049
3042.35141,0.00016
3041.32115,0.00085
3040.29089,0.00104
3039.26064,0.00064
3038.23038,0.00019
3037.20012,-0.00011
3036.16986,-0.00012
3035.13960,0.00005
3034.10935,0.00007
3033.07909,-0.00010
3032.04883,-0.00008
3031.01857,0.00037
3029.98832,0.00077
3028.95806,0.00059
3027.92780,0.00007
3026.89754,-0.00018
3025.86728,-0.00008
3024.83703,0.00015
3023.80677,0.00023
3022.77651,0.00005
3021.74625,-0.00004
3020.71599,-0.00017
3019.68574,-0.00039
3018.65548,-0.00027
3017.62522,0.00007
3016.59496,0.00021
3015.56471,0.00008
3014.53445,-0.00008
3013.50419,-0.00011
3012.47393,-0.00015
3011.44367,-0.00025
3010.41342,-0.00033
3009.38316,-0.00013
3008.35290,0.00045
3007.32264,0.00077
3006.29238,0.00055
3005.26213,0.00020
3004.23187,-0.00007
3003.20161,-0.00021
3002.17135,-0.00027
3001.14110,-0.00033
3000.11084,-0.00041
2999.08058,-0.00047
2998.05032,-0.00052
2997.02006,-0.00056
2995.98981,-0.00055
2994.95955,-0.00038
2993.92929,-0.00000
2992.89903,0.00038
2991.86877,0.00043
2990.83852,0.00011
2989.80826,-0.00007
2988.77800,-0.00001
2987.74774,-0.00016
2986.71749,-0.00029
2985.68723,-0.00021
2984.65697,-0.00015
2983.62671,-0.00008
2982.59645,-0.00010
2981.56620,-0.00018
2980.53594,-0.00013
2979.50568,0.00015
2978.47542,0.00040
2977.44517,0.00033
2976.41491,0.00033
2975.38465,0.00063
2974.35439,0.00080
2973.32413,0.00070
2972.29388,0.00046
2971.26362,0.00008
2970.23336,-0.00004
2969.20310,0.00026
2968.17284,0.00054
2967.14259,0.00051
2966.11233,0.00025
2965.08207,-0.00005
2964.05181,-0.00016
2963.02156,-0.00003
2961.99130,0.00000
2960.96104,-0.00019
2959.93078,-0.00026
2958.90052,-0.00015
2957.87027,-0.00004
2956.84001,0.00004
2955.80975,0.00029
2954.77949,0.00045
2953.74923,0.00031
2952.71898,0.00014
2951.68872,0.00010
2950.65846,0.00003
2949.62820,-0.00005
2948.59795,0.00017
2947.56769,0.00038
2946.53743,0.00034
2945.50717,0.00014
2944.47691,-0.00010
2943.44666,-0.00024
2942.41640,-0.00032
2941.38614,-0.00012
2940.35588,0.00030
2939.32562,0.00038
2938.29537,0.00025
2937.26511,0.00042
2936.23485,0.00060
2935.20459,0.00049
2934.17434,0.00036
2933.14408,0.00029
2932.11382,0.00029
2931.08356,0.00041
2930.05330,0.00067
2929.02305,0.00094
2927.99279,0.00083
2926.96253,0.00052
2925.93227,0.00048
2924.90202,0.00032
2923.87176,-0.00011
2922.84150,-0.00027
2921.81124,-0.00013
2920.78098,-0.00017
2919.75073,-0.00040
2918.72047,-0.00052
2917.69021,-0.00018
2916.65995,0.00056
2915.62969,0.00089
2914.59944,0.00063
2913.56918,0.00057
2912.53892,0.00074
2911.50866,0.00068
2910.47841,0.00050
2909.44815,0.00030
2908.41789,-0.00000
2907.38763,-0.00034
2906.35737,-0.00037
2905.32712,-0.00006
2904.29686,0.00013
2903.26660,0.00002
2902.23634,-0.00005
2901.20608,-0.00001
2900.17583,0.00006
2899.14557,0.00018
2898.11531,0.00029
2897.08505,0.00014
2896.05480,-0.00017
2895.02454,-0.00031
2893.99428,-0.00024
2892.96402,-0.00001
2891.93376,0.00031
2890.90351,0.00052
2889.87325,0.00034
2888.84299,-0.00011
2887.81273,-0.00016
2886.78247,0.00018
2885.75222,0.00026
2884.72196,0.00009
2883.69170,0.00005
2882.66144,0.00008
2881.63119,-0.00012
2880.60093,-0.00052
2879.57067,-0.00064
2878.54041,-0.00028
2877.51015,-0.00001
2876.47990,-0.00018
2875.44964,-0.00028
2874.41938,-0.00014
2873.38912,-0.00011
2872.35887,0.00002
2871.32861,0.00020
2870.29835,0.00003
2869.26809,-0.00020
2868.23783,-0.00025
2867.20758,-0.00040
2866.17732,-0.00051
2865.14706,-0.00036
2864.11680,-0.00006
2863.08654,0.00019
2862.05629,0.00039
2861.02603,0.00059
2859.99577,0.00061
2858.96551,0.00075
2857.93526,0.00082
2856.90500,0.00034
2855.87474,-0.00010
2854.84448,0.00006
2853.81422,0.00038
2852.78397,0.00054
2851.75371,0.00045
2850.72345,0.00008
2849.69319,-0.00007
2848.66293,0.00021
2847.63268,0.00040
2846.60242,0.00032
2845.57216,0.00022
2844.54190,0.00016
2843.51165,0.00019
2842.48139,0.00038
2841.45113,0.00056
2840.42087,0.00051
2839.39061,0.00014
2838.36036,0.00001
2837.33010,0.00019
2836.29984,0.00003
2835.26958,-0.00026
2834.23933,-0.00025
2833.20907,-0.00016
2832.17881,-0.00033
2831.14855,-0.00066
2830.11829,-0.00065
2829.08804,-0.00028
2828.05778,-0.00002
2827.02752,-0.00000
2825.99726,-0.00006
2824.96700,-0.00012
2823.93675,-0.00021
2822.90649,-0.00016
2821.87623,0.00010
2820.84597,0.00016
2819.81572,-0.00007
2818.78546,-0.00013
2817.75520,0.00008
2816.72494,0.00024
2815.69468,0.00007
2814.66443,-0.00013
2813.63417,-0.00002
2812.60391,0.00031
2811.57365,0.00042
2810.54339,0.00017
2809.51314,0.00001
2808.48288,-0.00008
2807.45262,-0.00046
2806.42236,-0.00058
2805.39211,-0.00006
2804.36185,0.00048
2803.33159,0.00061
2802.30133,0.00045
2801.27107,0.00043
2800.24082,0.00055
2799.21056,0.00049
2798.18030,0.00032
2797.15004,0.00021
2796.11978,0.00007
2795.08953,0.00006
2794.05927,0.00017
2793.02901,0.00003
2791.99875,-0.00015
2790.96850,-0.00002
2789.93824,0.00005
2788.90798,-0.00032
2787.87772,-0.00061
2786.84746,-0.00042
2785.81721,-0.00017
2784.78695,-0.00014
2783.75669,-0.00007
2782.72643,0.00007
2781.69618,0.00005
2780.66592,-0.00016
2779.63566,-0.00035
2778.60540,-0.00037
2777.57514,-0.00043
2776.54489,-0.00061
2775.51463,-0.00066
2774.48437,-0.00036
2773.45411,0.00015
2772.42385,0.00028
2771.39360,0.00001
2770.36334,-0.00020
2769.33308,-0.00033
2768.30282,-0.00029
2767.27257,0.00003
2766.24231,0.00021
2765.21205,0.00004
2764.18179,-0.00001
2763.15153,0.00009
2762.12128,-0.00010
2761.09102,-0.00051
2760.06076,-0.00040
2759.03050,0.00024
2758.00024,0.00057
2756.96999,0.00042
2755.93973,0.00038
2754.90947,0.00055
2753.87921,0.00038
2752.84896,-0.00010
2751.81870,-0.00029
2750.78844,-0.00019
2749.75818,-0.00018
2748.72792,-0.00033
2747.69767,-0.00047
2746.66741,-0.00047
2745.63715,-0.00033
2744.60689,-0.00022
2743.57663,-0.00009
2742.54638,0.00012
2741.51612,0.00025
2740.48586,0.00031
2739.45560,0.00023
2738.42535,0.00003
2737.39509,-0.00016
2736.36483,-0.00025
2735.33457,-0.00042
2734.30431,-0.00051
2733.27406,-0.00026
2732.24380,-0.00007
2731.21354,0.00003
2730.18328,0.00020
2729.15303,0.00036
2728.12277,0.00058
2727.09251,0.00070
2726.06225,0.00058
2725.03199,0.00039
2724.00174,0.00028
2722.97148,0.00028
2721.94122,0.00035
2720.91096,0.00048
2719.88070,0.00048
2718.85045,0.00031
2717.82019,0.00023
2716.78993,0.00027
2715.75967,0.00033
2714.72942,0.00038
2713.69916,0.00043
2712.66890,0.00040
2711.63864,0.00026
2710.60838,-0.00002
2709.57813,-0.00025
2708.54787,-0.00023
2707.51761,-0.00010
2706.48735,0.00013
2705.45709,0.00034
2704.42684,0.00029
2703.39658,0.00009
2702.36632,-0.00003
2701.33606,-0.00011
2700.30581,-0.00007
2699.27555,0.00008
2698.24529,0.00004
2697.21503,-0.00017
2696.18477,-0.00020
2695.15452,-0.00003
2694.12426,0.00014
2693.09400,0.00029
2692.06374,0.00049
2691.03348,0.00055
2690.00323,0.00040
2688.97297,0.00039
2687.94271,0.00059
2686.91245,0.00072
2685.88220,0.00062
2684.85194,0.00027
2683.82168,-0.00004
2682.79142,0.00008
2681.76116,0.00041
2680.73091,0.00044
2679.70065,0.00018
2678.67039,-0.00008
2677.64013,-0.00027
2676.60988,-0.00030
2675.57962,0.00011
2674.54936,0.00070
2673.51910,0.00081
2672.48884,0.00052
2671.45859,0.00030
2670.42833,0.00033
2669.39807,0.00044
2668.36781,0.00025
2667.33755,0.00003
2666.30730,0.00013
2665.27704,0.00017
2664.24678,-0.00002
2663.21652,-0.00017
2662.18627,-0.00030
2661.15601,-0.00051
2660.12575,-0.00054
2659.09549,-0.00032
2658.06523,-0.00017
2657.03498,-0.00003
2656.00472,0.00025
2654.97446,0.00026
2653.94420,0.00003
2652.91394,-0.00014
2651.88369,-0.00020
2650.85343,-0.00016
2649.82317,-0.00015
2648.79291,-0.00028
2647.76266,-0.00058
2646.73240,-0.00084
2645.70214,-0.00087
2644.67188,-0.00065
2643.64162,-0.00032
2642.61137,-0.00009
2641.58111,0.00004
2640.55085,0.00022
2639.52059,0.00037
2638.49033,0.00039
2637.46008,0.00026
2636.42982,0.00012
2635.39956,0.00012
2634.36930,0.00017
2633.33905,0.00016
2632.30879,0.00007
2631.27853,-0.00003
2630.24827,-0.00010
2629.21801,0.00009
2628.18776,0.00039
2627.15750,0.00031
2626.12724,0.00005
2625.09698,-0.00002
2624.06673,-0.00000
2623.03647,-0.00004
2622.00621,-0.00013
2620.97595,0.00007
2619.94569,0.00053
2618.91544,0.00062
2617.88518,0.00048
2616.85492,0.00056
2615.82466,0.00035
2614.79440,-0.00011
2613.76415,0.00009
2612.73389,0.00068
2611.70363,0.00074
2610.67337,0.00046
2609.64312,0.00051
2608.61286,0.00074
2607.58260,0.00061
2606.55234,0.00024
2605.52208,0.00029
2604.49183,0.00073
2603.46157,0.00080
2602.43131,0.00023
2601.40105,-0.00050
2600.37079,-0.00074
2599.34054,-0.00045
2598.31028,-0.00025
2597.28002,-0.00030
2596.24976,-0.00008
2595.21951,0.00013
2594.18925,-0.00021
2593.15899,-0.00057
2592.12873,-0.00031
2591.09847,0.00038
2590.06822,0.00089
2589.03796,0.00100
2588.00770,0.00093
2586.97744,0.00095
2585.94718,0.00123
2584.91693,0.00127
2583.88667,0.00057
2582.85641,-0.00024
2581.82615,-0.00056
2580.79590,-0.00032
2579.76564,0.00020
2578.73538,0.00047
2577.70512,0.00057
2576.67486,0.00077
2575.64461,0.00062
2574.61435,-0.00002
2573.58409,-0.00030
2572.55383,-0.00012
2571.52358,0.00004
2570.49332,0.00019
2569.46306,0.00043
2568.43280,0.00067
2567.40254,0.00059
2566.37229,0.00032
2565.34203,0.00043
2564.31177,0.00077
2563.28151,0.00064
2562.25125,0.00027
2561.22100,0.00007
2560.19074,-0.00011
2559.16048,0.00008
2558.13022,0.00071
2557.09997,0.00115
2556.06971,0.00090
2555.03945,0.00028
2554.00919,0.00001
2552.97893,0.00015
2551.94868,0.00003
2550.91842,-0.00050
2549.88816,-0.00086
2548.85790,-0.00095
2547.82764,-0.00068
2546.79739,-0.00013
2545.76713,0.00003
2544.73687,-0.00019
2543.70661,-0.00016
2542.67636,0.00016
2541.64610,0.00043
2540.61584,0.00045
2539.58558,0.00031
2538.55532,0.00032
2537.52507,0.00041
2536.49481,0.00012
2535.46455,-0.00013
2534.43429,0.00029
2533.40403,0.00103
2532.37378,0.00130
2531.34352,0.00085
2530.31326,0.00019
2529.28300,-0.00035
2528.25275,-0.00087
2527.22249,-0.00133
2526.19223,-0.00146
2525.16197,-0.00094
2524.13171,0.00006
2523.10146,0.00081
2522.07120,0.00083
2521.04094,0.00055
2520.01068,0.00034
2518.98043,0.00008
2517.95017,0.00001
2516.91991,0.00025
2515.88965,0.00038
2514.85939,0.00014
2513.82914,-0.00019
2512.79888,-0.00033
2511.76862,-0.00019
2510.73836,0.00013
2509.70810,0.00038
2508.67785,0.00054
2507.64759,0.00063
2506.61733,0.00047
2505.58707,0.00032
2504.55682,0.00026
2503.52656,-0.00012
2502.49630,-0.00046
2501.46604,-0.00028
2500.43578,0.00021
2499.40553,0.00044
2498.37527,0.00019
2497.34501,0.00025
2496.31475,0.00064
2495.28449,0.00064
2494.25424,0.00060
2493.22398,0.00076
2492.19372,0.00070
2491.16346,0.00057
2490.13321,0.00072
2489.10295,0.00091
2488.07269,0.00078
2487.04243,0.00036
2486.01217,0.00025
2484.98192,0.00023
2483.95166,-0.00019
2482.92140,-0.00059
2481.89114,-0.00062
2480.86088,-0.00053
2479.83063,-0.00074
2478.80037,-0.00102
2477.77011,-0.00095
2476.73985,-0.00062
2475.70960,-0.00005
2474.67934,0.00026
2473.64908,-0.00012
2472.61882,-0.00032
2471.58856,0.00038
2470.55831,0.00109
2469.52805,0.00116
2468.49779,0.00087
2467.46753,0.00050
2466.43728,0.00051
2465.40702,0.00058
2464.37676,0.00030
2463.34650,-0.00004
2462.31624,-0.00018
2461.28599,-0.00010
2460.25573,0.00012
2459.22547,0.00028
2458.19521,0.00015
2457.16495,-0.00038
2456.13470,-0.00112
2455.10444,-0.00130
2454.07418,-0.00065
2453.04392,-0.00015
2452.01367,-0.00028
2450.98341,-0.00050
2449.95315,-0.00054
2448.92289,-0.00020
2447.89263,0.00071
2446.86238,0.00119
2445.83212,0.00084
2444.80186,0.00065
2443.77160,0.00064
2442.74134,0.00054
2441.71109,0.00046
2440.68083,0.00047
2439.65057,0.00057
2438.62031,0.00067
2437.59006,0.00089
2436.55980,0.00097
2435.52954,0.00048
2434.49928,-0.00016
2433.46902,-0.00031
2432.43877,-0.00026
2431.40851,-0.00032
2430.37825,-0.00012
2429.34799,0.00021
2428.31774,0.00010
2427.28748,-0.00033
2426.25722,-0.00032
2425.22696,0.00014
2424.19670,0.00040
2423.16645,0.00032
2422.13619,-0.00020
2421.10593,-0.00077
2420.07567,-0.00056
2419.04541,0.00005
2418.01516,0.00040
2416.98490,0.00063
2415.95464,0.00067
2414.92438,0.00050
2413.89413,0.00066
2412.86387,0.00081
2411.83361,0.00058
2410.80335,0.00044
2409.77309,0.00038
2408.74284,0.00020
2407.71258,0.00013
2406.68232,0.00020
2405.65206,-0.00003
2404.62180,-0.00040
2403.59155,-0.00032
2402.56129,0.00002
2401.53103,0.00013
2400.50077,-0.00003
2399.47052,-0.00027
2398.44026,-0.00036
2397.41000,-0.00016
2396.37974,0.00028
2395.34948,0.00064
2394.31923,0.00065
2393.28897,0.00034
2392.25871,-0.00022
2391.22845,-0.00056
2390.19819,-0.00024
2389.16794,0.00014
2388.13768,-0.00000
2387.10742,-0.00028
2386.07716,-0.00023
2385.04691,0.00002
2384.01665,0.00009
2382.98639,-0.00007
2381.95613,-0.00029
2380.92587,-0.00023
2379.89562,0.00021
2378.86536,0.00049
2377.83510,0.00042
2376.80484,0.00039
2375.77459,0.00061
2374.74433,0.00073
2373.71407,0.00008
2372.68381,-0.00062
2371.65355,-0.00035
2370.62330,0.00046
2369.59304,0.00119
2368.56278,0.00181
2367.53252,0.00244
2366.50226,0.00272
2365.47201,0.00248
2364.44175,0.00254
2363.41149,0.00243
2362.38123,0.00150
2361.35098,0.00131
2360.32072,0.00213
2359.29046,0.00254
2358.26020,0.00177
2357.22994,0.00079
2356.19969,0.00076
2355.16943,0.00105
2354.13917,0.00084
2353.10891,0.00051
2352.07865,0.00057
2351.04840,0.00050
2350.01814,0.00018
2348.98788,0.00016
2347.95762,0.00040
2346.92737,0.00079
2345.89711,0.00138
2344.86685,0.00206
2343.83659,0.00205
2342.80633,0.00092
2341.77608,-0.00031
2340.74582,-0.00049
2339.71556,0.00001
2338.68530,0.00029
2337.65504,0.00061
2336.62479,0.00122
2335.59453,0.00175
2334.56427,0.00190
2333.53401,0.00175
2332.50376,0.00145
2331.47350,0.00093
2330.44324,0.00076
2329.41298,0.00098
2328.38272,0.00103
2327.35247,0.00085
2326.32221,0.00042
2325.29195,0.00005
2324.26169,-0.00009
2323.23144,-0.00003
2322.20118,0.00032
2321.17092,0.00056
2320.14066,0.00034
2319.11040,0.00042
2318.08015,0.00099
2317.04989,0.00077
2316.01963,-0.00012
2314.98937,-0.00042
2313.95911,-0.00037
2312.92886,-0.00063
2311.89860,-0.00065
2310.86834,-0.00007
2309.83808,0.00043
2308.80783,0.00047
2307.77757,0.00013
2306.74731,-0.00023
2305.71705,-0.00013
2304.68679,0.00000
2303.65654,-0.00014
2302.62628,-0.00016
2301.59602,0.00012
2300.56576,0.00061
2299.53550,0.00068
2298.50525,0.00026
2297.47499,0.00006
2296.44473,0.00001
2295.41447,-0.00018
2294.38422,-0.00037
2293.35396,-0.00047
2292.32370,-0.00032
2291.29344,0.00004
2290.26318,0.00034
2289.23293,0.00012
2288.20267,-0.00066
2287.17241,-0.00073
2286.14215,0.00014
2285.11189,0.00071
2284.08164,0.00059
2283.05138,0.00039
2282.02112,0.00045
2280.99086,0.00061
2279.96061,0.00050
2278.93035,0.00015
2277.90009,-0.00008
2276.86983,0.00016
2275.83957,0.00071
2274.80932,0.00044
2273.77906,-0.00027
2272.74880,-0.00021
2271.71854,-0.00006
2270.68829,-0.00025
2269.65803,-0.00012
2268.62777,0.00036
2267.59751,0.00078
2266.56725,0.00082
2265.53700,0.00046
2264.50674,0.00006
2263.47648,-0.00034
2262.44622,-0.00077
2261.41596,-0.00073
2260.38571,-0.00008
2259.35545,0.00056
2258.32519,0.00071
2257.29493,0.00028
2256.26468,-0.00031
2255.23442,-0.00032
2254.20416,-0.00013
2253.17390,-0.00048
2252.14364,-0.00036
2251.11339,0.00074
2250.08313,0.00112
2249.05287,0.00016
2248.02261,-0.00080
2246.99235,-0.00104
2245.96210,-0.00091
2244.93184,-0.00053
2243.90158,-0.00025
2242.87132,-0.00062
2241.84107,-0.00084
2240.81081,-0.00020
2239.78055,0.00006
2238.75029,-0.00021
2237.72003,0.00051
2236.68978,0.00143
2235.65952,0.00089
2234.62926,-0.00066
2233.59900,-0.00184
2232.56874,-0.00171
2231.53849,-0.00058
2230.50823,0.00018
2229.47797,-0.00049
2228.44771,-0.00149
2227.41746,-0.00085
2226.38720,0.00055
2225.35694,0.00031
2224.32668,-0.00095
2223.29642,-0.00116
2222.26617,-0.00075
2221.23591,-0.00080
2220.20565,-0.00129
2219.17539,-0.00208
2218.14514,-0.00258
2217.11488,-0.00194
2216.08462,-0.00087
2215.05436,-0.00111
2214.02410,-0.00232
2212.99385,-0.00230
2211.96359,-0.00106
2210.93333,-0.00054
2209.90307,-0.00004
2208.87281,0.00139
2207.84256,0.00221
2206.81230,0.00207
2205.78204,0.00206
2204.75178,0.00202
2203.72153,0.00166
2202.69127,0.00122
2201.66101,0.00097
2200.63075,0.00067
2199.60049,0.00000
2198.57024,-0.00023
2197.53998,-0.00074
2196.50972,-0.00197
2195.47946,-0.00197
2194.44920,-0.00026
2193.41895,0.00172
2192.38869,0.00210
2191.35843,0.00052
2190.32817,-0.00095
2189.29792,-0.00086
2188.26766,0.00061
2187.23740,0.00184
2186.20714,0.00113
2185.17688,-0.00001
2184.14663,-0.00052
2183.11637,-0.00132
2182.08611,-0.00073
2181.05585,0.00177
2180.02559,0.00354
2178.99534,0.00296
2177.96508,0.00073
2176.93482,-0.00090
2175.90456,-0.00144
2174.87431,-0.00174
2173.84405,-0.00216
2172.81379,-0.00218
2171.78353,-0.00006
2170.75327,0.00245
2169.72302,0.00191
2168.69276,-0.00016
2167.66250,-0.00106
2166.63224,-0.00146
2165.60199,-0.00221
2164.57173,-0.00176
2163.54147,0.00171
2162.51121,0.00488
2161.48095,0.00385
2160.45070,0.00120
2159.42044,-0.00078
2158.39018,-0.00201
2157.35992,-0.00224
2156.32966,-0.00178
2155.29941,-0.00039
2154.26915,0.00042
2153.23889,-0.00082
2152.20863,-0.00250
2151.17838,-0.00355
2150.14812,-0.00318
2149.11786,-0.00060
2148.08760,0.00159
2147.05734,0.00196
2146.02709,0.00188
2144.99683,0.00109
2143.96657,0.00001
2142.93631,0.00024
2141.90605,0.00095
2140.87580,0.00069
2139.84554,0.00011
2138.81528,0.00022
2137.78502,0.00046
2136.75477,-0.00006
2135.72451,-0.00034
2134.69425,0.00050
2133.66399,0.00122
2132.63373,0.00153
2131.60348,0.00211
2130.57322,0.00202
2129.54296,0.00062
2128.51270,-0.00070
2127.48244,-0.00086
2126.45219,-0.00015
2125.42193,0.00060
2124.39167,0.00094
2123.36141,0.00075
2122.33116,0.00027
2121.30090,0.00034
2120.27064,0.00068
2119.24038,0.00032
2118.21012,-0.00043
2117.17987,-0.00037
2116.14961,0.00035
2115.11935,0.00045
2114.08909,0.00013
2113.05884,0.00036
2112.02858,0.00101
2110.99832,0.00139
2109.96806,0.00124
2108.93780,0.00095
2107.90755,0.00069
2106.87729,0.00049
2105.84703,0.00040
2104.81677,0.00019
2103.78651,-0.00040
2102.75626,-0.00063
2101.72600,0.00022
2100.69574,0.00108
2099.66548,0.00101
2098.63523,0.00091
2097.60497,0.00123
2096.57471,0.00087
2095.54445,-0.00040
2094.51419,-0.00124
2093.48394,-0.00089
2092.45368,-0.00038
2091.42342,-0.00064
2090.39316,-0.00091
2089.36290,-0.00016
2088.33265,0.00097
2087.30239,0.00089
2086.27213,-0.00019
2085.24187,-0.00057
2084.21162,0.00011
2083.18136,0.00062
2082.15110,0.00012
2081.12084,-0.00018
2080.09058,0.00065
2079.06033,0.00099
2078.03007,0.00001
2076.99981,-0.00120
2075.96955,-0.00158
2074.93930,-0.00093
2073.90904,-0.00068
2072.87878,-0.00091
2071.84852,0.00023
2070.81826,0.00165
2069.78801,0.00092
2068.75775,-0.00117
2067.72749,-0.00197
2066.69723,-0.00106
2065.66697,-0.00042
2064.63672,-0.00029
2063.60646,-0.00018
2062.57620,-0.00095
2061.54594,-0.00167
2060.51569,-0.00117
2059.48543,-0.00076
2058.45517,-0.00133
2057.42491,-0.00161
2056.39465,-0.00070
2055.36440,0.00017
2054.33414,0.00010
2053.30388,-0.00079
2052.27362,-0.00189
2051.24336,-0.00211
2050.21311,-0.00134
2049.18285,-0.00094
2048.15259,-0.00150
2047.12233,-0.00235
2046.09208,-0.00342
2045.06182,-0.00321
2044.03156,-0.00063
2043.00130,0.00064
2041.97104,-0.00103
2040.94079,-0.00143
2039.91053,-0.00032
2038.88027,-0.00021
2037.85001,-0.00025
2036.81975,-0.00095
2035.78950,-0.00201
2034.75924,-0.00208
2033.72898,-0.00307
2032.69872,-0.00441
2031.66847,-0.00341
2030.63821,-0.00149
2029.60795,-0.00034
2028.57769,0.00108
2027.54743,0.00259
2026.51718,0.00269
2025.48692,0.00201
2024.45666,0.00165
2023.42640,0.00128
2022.39615,0.00059
2021.36589,-0.00013
2020.33563,-0.00044
2019.30537,-0.00026
2018.27511,-0.00018
2017.24486,0.00009
2016.21460,0.00098
2015.18434,0.00152
2014.15408,0.00244
2013.12382,0.00336
2012.09357,0.00274
2011.06331,0.00171
2010.03305,0.00066
2009.00279,-0.00020
2007.97254,-0.00038
2006.94228,-0.00056
2005.91202,-0.00019
2004.88176,0.00067
2003.85150,0.00162
2002.82125,0.00291
2001.79099,0.00265
2000.76073,0.00052
1999.73047,-0.00118
1998.70021,-0.00191
1997.66996,-0.00124
1996.63970,0.00014
1995.60944,0.00002
1994.57918,-0.00128
1993.54893,-0.00179
1992.51867,-0.00098
1991.48841,-0.00072
1990.45815,-0.00167
1989.42789,-0.00207
1988.39764,-0.00176
1987.36738,-0.00157
1986.33712,-0.00167
1985.30686,-0.00191
1984.27660,-0.00183
1983.24635,-0.00120
1982.21609,-0.00028
1981.18583,0.00008
1980.15557,0.00000
1979.12532,0.00020
1978.09506,-0.00007
1977.06480,-0.00061
1976.03454,-0.00039
1975.00428,-0.00042
1973.97403,-0.00137
1972.94377,-0.00191
1971.91351,-0.00051
1970.88325,0.00185
1969.85300,0.00287
1968.82274,0.00250
1967.79248,0.00111
1966.76222,0.00051
1965.73196,0.00160
1964.70171,0.00091
1963.67145,-0.00113
1962.64119,-0.00135
1961.61093,-0.00050
1960.58067,0.00002
1959.55042,0.00014
1958.52016,-0.00034
1957.48990,-0.00083
1956.45964,-0.00028
1955.42939,0.00023
1954.39913,-0.00030
1953.36887,0.00002
1952.33861,0.00089
1951.30835,-0.00015
1950.27810,-0.00085
1949.24784,0.00073
1948.21758,0.00221
1947.18732,0.00251
1946.15706,0.00179
1945.12681,-0.00029
1944.09655,-0.00184
1943.06629,-0.00134
1942.03603,-0.00052
1941.00578,-0.00089
1939.97552,-0.00173
1938.94526,-0.00201
1937.91500,-0.00206
1936.88474,-0.00189
1935.85449,-0.00033
1934.82423,0.00133
1933.79397,0.00112
1932.76371,0.00014
1931.73345,-0.00012
1930.70320,-0.00007
1929.67294,-0.00020
1928.64268,-0.00018
1927.61242,0.00008
1926.58217,0.00009
1925.55191,-0.00024
1924.52165,-0.00061
1923.49139,-0.00076
1922.46113,-0.00112
1921.43088,-0.00155
1920.40062,-0.00138
1919.37036,-0.00136
1918.34010,-0.00161
1917.30985,-0.00103
1916.27959,-0.00030
1915.24933,0.00021
1914.21907,0.00086
1913.18881,0.00096
1912.15856,0.00029
1911.12830,-0.00014
1910.09804,-0.00018
1909.06778,-0.00019
1908.03752,-0.00007
1907.00727,-0.00036
1905.97701,-0.00097
1904.94675,-0.00099
1903.91649,-0.00055
1902.88624,-0.00032
1901.85598,-0.00008
1900.82572,0.00029
1899.79546,-0.00011
1898.76520,-0.00078
1897.73495,-0.00046
1896.70469,0.00030
1895.67443,0.00053
1894.64417,0.00036
1893.61391,0.00007
1892.58366,-0.00044
1891.55340,-0.00081
1890.52314,-0.00066
1889.49288,-0.00039
1888.46263,-0.00037
1887.43237,-0.00054
1886.40211,-0.00041
1885.37185,0.00030
1884.34159,0.00083
1883.31134,0.00075
1882.28108,0.00055
1881.25082,0.00042
1880.22056,0.00019
1879.19030,-0.00004
1878.16005,0.00005
1877.12979,0.00024
1876.09953,0.00010
1875.06927,-0.00014
1874.03902,-0.00001
1873.00876,0.00044
1871.97850,0.00048
1870.94824,-0.00022
1869.91798,-0.00091
1868.88773,-0.00110
1867.85747,-0.00082
1866.82721,-0.00014
1865.79695,0.00052
1864.76670,0.00105
1863.73644,0.00122
1862.70618,0.00069
1861.67592,-0.00003
1860.64566,-0.00029
1859.61541,-0.00017
1858.58515,-0.00010
1857.55489,0.00002
1856.52463,0.00038
1855.49437,0.00059
1854.46412,0.00045
1853.43386,0.00021
1852.40360,-0.00015
1851.37334,-0.00060
1850.34309,-0.00067
1849.31283,-0.00026
1848.28257,0.00023
1847.25231,0.00027
1846.22205,-0.00009
1845.19180,-0.00022
1844.16154,0.00040
1843.13128,0.00093
1842.10102,0.00049
1841.07076,-0.00021
1840.04051,-0.00043
1839.01025,-0.00006
1837.97999,0.00027
1836.94973,-0.00002
1835.91948,-0.00033
1834.88922,-0.00020
1833.85896,-0.00018
1832.82870,-0.00024
1831.79844,0.00003
1830.76819,0.00048
1829.73793,0.00063
1828.70767,0.00056
1827.67741,0.00047
1826.64715,0.00019
1825.61690,-0.00032
1824.58664,-0.00061
1823.55638,-0.00040
1822.52612,-0.00012
1821.49587,-0.00013
1820.46561,-0.00040
1819.43535,-0.00039
1818.40509,-0.00004
1817.37483,0.00016
1816.34458,-0.00015
1815.31432,-0.00065
1814.28406,-0.00061
1813.25380,-0.00003
1812.22355,0.00030
1811.19329,0.00019
1810.16303,0.00005
1809.13277,-0.00032
1808.10251,-0.00078
1807.07226,-0.00064
1806.04200,-0.00021
1805.01174,-0.00017
1803.98148,-0.00032
1802.95122,-0.00025
1801.92097,-0.00011
1800.89071,-0.00013
1799.86045,-0.00003
1798.83019,0.00019
1797.79994,0.00017
1796.76968,0.00011
1795.73942,0.00016
1794.70916,-0.00005
1793.67890,-0.00050
1792.64865,-0.00066
1791.61839,-0.00035
1790.58813,0.00012
1789.55787,0.00039
1788.52761,0.00027
1787.49736,0.00021
1786.46710,0.00033
1785.43684,0.00025
1784.40658,-0.00004
1783.37633,-0.00030
1782.34607,-0.00062
1781.31581,-0.00090
1780.28555,-0.00075
1779.25529,-0.00028
1778.22504,0.00015
1777.19478,0.00044
1776.16452,0.00044
1775.13426,0.00011
1774.10400,-0.00007
1773.07375,0.00021
1772.04349,0.00045
1771.01323,0.00015
1769.98297,-0.00018
1768.95272,-0.00023
1767.92246,-0.00006
1766.89220,0.00023
1765.86194,0.00033
1764.83168,0.00012
1763.80143,-0.00017
1762.77117,-0.00019
1761.74091,0.00017
1760.71065,0.00041
1759.68040,0.00024
1758.65014,0.00001
1757.61988,-0.00008
1756.58962,0.00001
1755.55936,0.00014
1754.52911,0.00006
1753.49885,-0.00002
1752.46859,-0.00007
1751.43833,-0.00017
1750.40807,-0.00003
1749.37782,0.00002
1748.34756,-0.00012
1747.31730,-0.00011
1746.28704,0.00013
1745.25679,0.00044
1744.22653,0.00030
1743.19627,-0.00035
1742.16601,-0.00060
1741.13575,-0.00045
1740.10550,-0.00036
1739.07524,-0.00016
1738.04498,0.00011
1737.01472,0.00021
1735.98446,0.00003
1734.95421,-0.00034
1733.92395,-0.00044
1732.89369,-0.00004
1731.86343,0.00029
1730.83318,0.00033
1729.80292,0.00013
1728.77266,-0.00001
1727.74240,-0.00004
1726.71214,-0.00009
1725.68189,-0.00006
1724.65163,-0.00004
1723.62137,-0.00015
1722.59111,-0.00013
1721.56085,0.00012
1720.53060,0.00020
1719.50034,-0.00008
1718.47008,-0.00038
1717.43982,-0.00039
1716.40957,-0.00042
1715.37931,-0.00059
1714.34905,-0.00077
1713.31879,-0.00092
1712.28853,-0.00087
1711.25828,-0.00057
1710.22802,-0.00025
1709.19776,-0.00019
1708.16750,-0.00029
1707.13725,-0.00013
1706.10699,0.00032
1705.07673,0.00054
1704.04647,0.00018
1703.01621,-0.00043
1701.98596,-0.00076
1700.95570,-0.00040
1699.92544,0.00062
1698.89518,0.00051
1697.86492,0.00005
1696.83467,-0.00016
1695.80441,-0.00003
1694.77415,-0.00003
1693.74389,-0.00025
1692.71364,-0.00032
1691.68338,-0.00009
1690.65312,0.00022
1689.62286,0.00033
1688.59260,0.00020
1687.56235,-0.00010
1686.53209,-0.00044
1685.50183,-0.00077
1684.47157,-0.00062
1683.44131,0.00035
1682.41106,0.00056
1681.38080,0.00020
1680.35054,-0.00004
1679.32028,-0.00003
1678.29003,0.00007
1677.25977,-0.00003
1676.22951,-0.00048
1675.19925,-0.00073
1674.16899,-0.00051
1673.13874,-0.00032
1672.10848,-0.00004
1671.07822,0.00014
1670.04796,-0.00004
1669.01771,-0.00013
1667.98745,-0.00010
1666.95719,-0.00015
1665.92693,-0.00017
1664.89667,-0.00012
1663.86642,0.00001
1662.83616,0.00007
1661.80590,0.00015
1660.77564,0.00035
1659.74538,0.00039
1658.71513,0.00021
1657.68487,0.00007
1656.65461,-0.00001
1655.62435,-0.00045
1654.59410,-0.00133
1653.56384,-0.00183
1652.53358,-0.00067
1651.50332,0.00004
1650.47306,0.00021
1649.44281,0.00025
1648.41255,0.00008
1647.38229,-0.00007
1646.35203,0.00008
1645.32177,0.00021
1644.29152,0.00010
1643.26126,-0.00004
1642.23100,-0.00007
1641.20074,-0.00002
1640.17049,0.00016
1639.14023,0.00034
1638.10997,0.00016
1637.07971,-0.00027
1636.04945,-0.00027
1635.01920,-0.00001
1633.98894,-0.00020
1632.95868,-0.00030
1631.92842,-0.00008
1630.89816,0.00019
1629.86791,0.00024
1628.83765,0.00011
1627.80739,0.00004
1626.77713,0.00012
1625.74688,0.00004
1624.71662,-0.00016
1623.68636,-0.00033
1622.65610,-0.00050
1621.62584,-0.00037
1620.59559,-0.00004
1619.56533,0.00019
1618.53507,0.00033
1617.50481,0.00046
1616.47456,0.00048
1615.44430,0.00022
1614.41404,-0.00013
1613.38378,-0.00030
1612.35352,-0.00025
1611.32327,-0.00015
1610.29301,-0.00010
1609.26275,-0.00014
1608.23249,-0.00014
1607.20223,-0.00008
1606.17198,-0.00007
1605.14172,-0.00007
1604.11146,-0.00004
1603.08120,0.00002
1602.05095,-0.00004
1601.02069,-0.00019
1599.99043,-0.00020
1598.96017,-0.00007
1597.92991,-0.00013
1596.89966,-0.00028
1595.86940,-0.00016
1594.83914,0.00011
1593.80888,0.00017
1592.77862,0.00009
1591.74837,0.00019
1590.71811,0.00036
1589.68785,0.00035
1588.65759,0.00040
1587.62734,0.00058
1586.59708,0.00047
1585.56682,0.00012
1584.53656,0.00008
1583.50630,0.00034
1582.47605,0.00036
1581.44579,0.00008
1580.41553,-0.00005
1579.38527,-0.00002
1578.35501,-0.00013
1577.32476,-0.00045
1576.29450,-0.00077
1575.26424,-0.00069
1574.23398,-0.00035
1573.20373,-0.00002
1572.17347,0.00025
1571.14321,0.00019
1570.11295,-0.00031
1569.08269,-0.00051
1568.05244,-0.00020
1567.02218,-0.00004
1565.99192,0.00011
1564.96166,0.00036
1563.93141,0.00039
1562.90115,0.00017
1561.87089,-0.00017
1560.84063,-0.00046
1559.81037,-0.00045
1558.78012,-0.00024
1557.74986,0.00016
1556.71960,0.00038
1555.68934,0.00025
1554.65908,0.00008
1553.62883,0.00005
1552.59857,-0.00002
1551.56831,-0.00012
1550.53805,-0.00020
1549.50780,-0.00028
1548.47754,-0.00031
1547.44728,-0.00041
1546.41702,-0.00067
1545.38676,-0.00074
1544.35651,-0.00035
1543.32625,-0.00001
1542.29599,0.00006
1541.26573,-0.00005
1540.23547,-0.00025
1539.20522,-0.00025
1538.17496,-0.00008
1537.14470,0.00008
1536.11444,0.00021
1535.08419,0.00014
1534.05393,0.00002
1533.02367,0.00015
1531.99341,0.00007
1530.96315,-0.00017
1529.93290,-0.00016
1528.90264,0.00008
1527.87238,0.00045
1526.84212,0.00064
1525.81186,0.00053
1524.78161,0.00008
1523.75135,-0.00051
1522.72109,-0.00071
1521.69083,-0.00030
1520.66058,0.00002
1519.63032,-0.00005
1518.60006,-0.00015
1517.56980,-0.00021
1516.53954,-0.00014
1515.50929,-0.00001
1514.47903,0.00004
1513.44877,-0.00011
1512.41851,-0.00034
1511.38826,-0.00037
1510.35800,-0.00032
1509.32774,-0.00036
1508.29748,-0.00052
1507.26722,-0.00060
1506.23697,-0.00008
1505.20671,0.00027
1504.17645,0.00023
1503.14619,0.00020
1502.11593,0.00004
1501.08568,-0.00013
1500.05542,-0.00006
1499.02516,0.00002
1497.99490,-0.00014
1496.96465,-0.00037
1495.93439,-0.00032
1494.90413,-0.00013
1493.87387,-0.00012
1492.84361,-0.00015
1491.81336,-0.00007
1490.78310,-0.00003
1489.75284,-0.00007
1488.72258,-0.00007
1487.69232,-0.00001
1486.66207,0.00009
1485.63181,0.00010
1484.60155,-0.00005
1483.57129,-0.00016
1482.54104,-0.00007
1481.51078,0.00008
1480.48052,0.00017
1479.45026,0.00010
1478.42000,-0.00012
1477.38975,-0.00024
1476.35949,-0.00011
1475.32923,0.00006
1474.29897,0.00014
1473.26871,0.00032
1472.23846,0.00053
1471.20820,0.00054
1470.17794,0.00052
1469.14768,0.00042
1468.11743,0.00019
1467.08717,0.00003
1466.05691,0.00007
1465.02665,0.00015
1463.99639,0.00012
1462.96614,0.00024
1461.93588,0.00037
1460.90562,0.00027
1459.87536,0.00019
1458.84511,0.00021
1457.81485,0.00013
1456.78459,0.00031
1455.75433,0.00055
1454.72407,0.00058
1453.69382,0.00068
1452.66356,0.00061
1451.63330,0.00030
1450.60304,-0.00005
1449.57278,-0.00027
1448.54253,-0.00007
1447.51227,0.00035
1446.48201,0.00036
1445.45175,0.00007
1444.42150,-0.00021
1443.39124,-0.00034
1442.36098,-0.00030
1441.33072,-0.00017
1440.30046,-0.00007
1439.27021,-0.00004
1438.23995,-0.00001
1437.20969,0.00016
1436.17943,0.00030
1435.14917,0.00016
1434.11892,-0.00013
1433.08866,-0.00035
1432.05840,-0.00037
1431.02814,-0.00031
1429.99789,-0.00022
1428.96763,-0.00016
1427.93737,-0.00027
1426.90711,-0.00047
1425.87685,-0.00048
1424.84660,-0.00031
1423.81634,-0.00015
1422.78608,-0.00008
1421.75582,-0.00009
1420.72556,-0.00023
1419.69531,-0.00044
1418.66505,-0.00040
1417.63479,-0.00022
1416.60453,-0.00004
1415.57428,0.00027
1414.54402,0.00043
1413.51376,0.00029
1412.48350,0.00021
1411.45324,0.00029
1410.42299,0.00032
1409.39273,0.00035
1408.36247,0.00035
1407.33221,0.00012
1406.30196,-0.00025
1405.27170,-0.00044
1404.24144,-0.00027
1403.21118,0.00000
1402.18092,0.00020
1401.15067,0.00028
1400.12041,0.00031
1399.09015,0.00035
1398.05989,0.00039
1397.02963,0.00032
1395.99938,0.00011
1394.96912,0.00007
1393.93886,0.00023
1392.90860,0.00020
1391.87835,0.00011
1390.84809,-0.00000
1389.81783,-0.00023
1388.78757,-0.00044
1387.75731,-0.00048
1386.72706,-0.00024
1385.69680,0.00004
1384.66654,0.00015
1383.63628,0.00027
1382.60602,0.00051
1381.57577,0.00053
1380.54551,0.00013
1379.51525,-0.00028
1378.48499,-0.00036
1377.45474,-0.00016
1376.42448,0.00010
1375.39422,0.00016
1374.36396,-0.00001
1373.33370,-0.00027
1372.30345,-0.00034
1371.27319,-0.00020
1370.24293,-0.00006
1369.21267,-0.00010
1368.18241,-0.00013
1367.15216,-0.00006
1366.12190,-0.00007
1365.09164,-0.00002
1364.06138,0.00012
1363.03113,0.00020
1362.00087,0.00012
1360.97061,-0.00004
1359.94035,-0.00006
1358.91009,0.00004
1357.87984,0.00016
1356.84958,0.00020
1355.81932,0.00011
1354.78906,0.00003
1353.75881,-0.00003
1352.72855,-0.00022
1351.69829,-0.00038
1350.66803,-0.00023
1349.63777,-0.00003
1348.60752,-0.00004
1347.57726,-0.00000
1346.54700,0.00006
1345.51674,-0.00007
1344.48648,-0.00039
1343.45623,-0.00060
1342.42597,-0.00044
1341.39571,-0.00016
1340.36545,-0.00024
1339.33520,-0.00057
1338.30494,-0.00061
1337.27468,-0.00023
1336.24442,0.00021
1335.21416,0.00028
1334.18391,0.00004
1333.15365,-0.00006
1332.12339,0.00009
1331.09313,0.00029
1330.06287,0.00025
1329.03262,0.00009
1328.00236,0.00019
1326.97210,0.00037
1325.94184,0.00029
1324.91159,0.00000
1323.88133,-0.00027
1322.85107,-0.00033
1321.82081,-0.00028
1320.79055,-0.00020
1319.76030,-0.00011
1318.73004,0.00002
1317.69978,0.00019
1316.66952,0.00022
1315.63927,0.00005
1314.60901,-0.00014
1313.57875,-0.00026
1312.54849,-0.00029
1311.51823,-0.00017
1310.48798,0.00001
1309.45772,0.00013
1308.42746,0.00024
1307.39720,0.00037
1306.36694,0.00036
1305.33669,0.00021
1304.30643,0.00017
1303.27617,0.00027
1302.24591,0.00040
1301.21566,0.00043
1300.18540,0.00027
1299.15514,0.00008
1298.12488,-0.00008
1297.09462,-0.00018
1296.06437,-0.00013
1295.03411,0.00005
1294.00385,0.00007
1292.97359,-0.00007
1291.94333,-0.00007
1290.91308,0.00007
1289.88282,0.00010
1288.85256,-0.00005
1287.82230,-0.00022
1286.79205,-0.00030
1285.76179,-0.00022
1284.73153,-0.00008
1283.70127,-0.00006
1282.67101,-0.00016
1281.64076,-0.00016
1280.61050,-0.00000
1279.58024,0.00006
1278.54998,-0.00002
1277.51972,-0.00013
1276.48947,-0.00014
1275.45921,0.00003
1274.42895,-0.00000
1273.39869,-0.00026
1272.36844,-0.00025
1271.33818,-0.00014
1270.30792,-0.00019
1269.27766,-0.00033
1268.24740,-0.00047
1267.21715,-0.00040
1266.18689,-0.00009
1265.15663,0.00027
1264.12637,0.00044
1263.09612,0.00023
1262.06586,0.00002
1261.03560,0.00011
1260.00534,0.00012
1258.97508,0.00009
1257.94483,0.00029
1256.91457,0.00044
1255.88431,0.00033
1254.85405,0.00015
1253.82379,0.00001
1252.79354,0.00001
1251.76328,0.00003
1250.73302,-0.00005
1249.70276,-0.00013
1248.67251,-0.00019
1247.64225,-0.00012
1246.61199,0.00022
1245.58173,0.00049
1244.55147,0.00054
1243.52122,0.00054
1242.49096,0.00047
1241.46070,0.00030
1240.43044,0.00016
1239.40018,0.00003
1238.36993,-0.00005
1237.33967,0.00001
1236.30941,0.00016
1235.27915,0.00025
1234.24890,0.00024
1233.21864,0.00015
1232.18838,0.00014
1231.15812,0.00022
1230.12786,0.00022
1229.09761,0.00011
1228.06735,0.00005
1227.03709,0.00015
1226.00683,0.00029
1224.97657,0.00031
1223.94632,0.00021
1222.91606,0.00009
1221.88580,0.00009
1220.85554,0.00021
1219.82529,0.00027
1218.79503,0.00028
1217.76477,0.00018
1216.73451,0.00002
1215.70425,-0.00004
1214.67400,0.00013
1213.64374,0.00050
1212.61348,0.00069
1211.58322,0.00062
1210.55297,0.00043
1209.52271,0.00002
1208.49245,-0.00031
1207.46219,-0.00029
1206.43193,-0.00032
1205.40168,-0.00043
1204.37142,-0.00017
1203.34116,0.00014
1202.31090,0.00010
1201.28064,-0.00020
1200.25039,-0.00041
1199.22013,-0.00033
1198.18987,-0.00019
1197.15961,-0.00022
1196.12936,-0.00039
1195.09910,-0.00043
1194.06884,-0.00020
1193.03858,-0.00009
1192.00832,-0.00013
1190.97807,0.00000
1189.94781,0.00000
1188.91755,-0.00024
1187.88729,-0.00023
1186.85703,-0.00002
1185.82678,0.00006
1184.79652,-0.00004
1183.76626,-0.00013
1182.73600,0.00001
1181.70575,0.00028
1180.67549,0.00034
1179.64523,0.00015
1178.61497,0.00004
1177.58471,0.00012
1176.55446,0.00019
1175.52420,0.00008
1174.49394,-0.00007
1173.46368,-0.00017
1172.43342,-0.00026
1171.40317,-0.00030
1170.37291,-0.00023
1169.34265,-0.00026
1168.31239,-0.00033
1167.28214,-0.00022
1166.25188,-0.00016
1165.22162,-0.00015
1164.19136,-0.00016
1163.16110,-0.00028
1162.13085,-0.00032
1161.10059,-0.00025
1160.07033,-0.00030
1159.04007,-0.00031
1158.00982,0.00001
1156.97956,0.00040
1155.94930,0.00045
1154.91904,0.00034
1153.88878,0.00050
1152.85853,0.00073
1151.82827,0.00060
1150.79801,0.00029
1149.76775,0.00013
1148.73749,0.00010
1147.70724,0.00003
1146.67698,-0.00012
1145.64672,-0.00036
1144.61646,-0.00052
1143.58621,-0.00046
1142.55595,-0.00043
1141.52569,-0.00047
1140.49543,-0.00032
1139.46517,-0.00016
1138.43492,-0.00025
1137.40466,-0.00022
1136.37440,-0.00007
1135.34414,-0.00005
1134.31388,-0.00002
1133.28363,0.00002
1132.25337,0.00011
1131.22311,0.00025
1130.19285,0.00027
1129.16260,0.00030
1128.13234,0.00044
1127.10208,0.00044
1126.07182,0.00028
1125.04156,0.00007
1124.01131,0.00001
1122.98105,0.00031
1121.95079,0.00044
1120.92053,0.00014
1119.89027,-0.00012
1118.86002,-0.00018
1117.82976,-0.00010
1116.79950,0.00018
1115.76924,0.00038
1114.73899,0.00025
1113.70873,0.00008
1112.67847,0.00014
1111.64821,0.00032
1110.61795,0.00032
1109.58770,0.00018
1108.55744,0.00007
1107.52718,-0.00001
1106.49692,-0.00003
1105.46667,0.00004
1104.43641,0.00010
1103.40615,0.00009
1102.37589,-0.00010
1101.34563,-0.00059
1100.31538,-0.00105
1099.28512,-0.00089
1098.25486,-0.00035
1097.22460,-0.00012
1096.19434,-0.00011
1095.16409,-0.00018
1094.13383,-0.00043
1093.10357,-0.00047
1092.07331,-0.00033
1091.04306,-0.00037
1090.01280,-0.00040
1088.98254,-0.00040
1087.95228,-0.00047
1086.92202,-0.00050
1085.89177,-0.00049
1084.86151,-0.00030
1083.83125,-0.00018
1082.80099,-0.00024
1081.77073,-0.00010
1080.74048,0.00022
1079.71022,0.00045
1078.67996,0.00067
1077.64970,0.00083
1076.61945,0.00053
1075.58919,-0.00004
1074.55893,-0.00038
1073.52867,-0.00026
1072.49841,-0.00003
1071.46816,-0.00030
1070.43790,-0.00063
1069.40764,-0.00047
1068.37738,-0.00019
1067.34712,-0.00014
1066.31687,-0.00007
1065.28661,0.00013
1064.25635,0.00024
1063.22609,0.00021
1062.19584,0.00007
1061.16558,-0.00007
1060.13532,-0.00007
1059.10506,0.00011
1058.07480,0.00028
1057.04455,0.00014
1056.01429,-0.00015
1054.98403,-0.00011
1053.95377,0.00018
1052.92352,0.00018
1051.89326,-0.00013
1050.86300,-0.00032
1049.83274,-0.00029
1048.80248,-0.00016
1047.77223,0.00017
1046.74197,0.00058
1045.71171,0.00042
1044.68145,-0.00006
1043.65119,-0.00005
1042.62094,0.00025
1041.59068,0.00036
1040.56042,0.00040
1039.53016,0.00049
1038.49991,0.00039
1037.46965,0.00016
1036.43939,0.00019
1035.40913,0.00045
1034.37887,0.00051
1033.34862,0.00026
1032.31836,-0.00013
1031.28810,-0.00042
1030.25784,-0.00048
1029.22758,-0.00042
1028.19733,-0.00014
1027.16707,0.00052
1026.13681,0.00096
1025.10655,0.00072
1024.07630,0.00028
1023.04604,-0.00007
1022.01578,-0.00035
1020.98552,-0.00017
1019.95526,0.00038
1018.92501,0.00065
1017.89475,0.00033
1016.86449,-0.00011
1015.83423,-0.00018
1014.80397,-0.00015
1013.77372,-0.00002
1012.74346,0.00034
1011.71320,0.00057
1010.68294,0.00045
1009.65269,0.00019
1008.62243,-0.00007
1007.59217,-0.00021
1006.56191,-0.00008
1005.53165,0.00015
1004.50140,0.00044
1003.47114,0.00065
1002.44088,0.00042
1001.41062,-0.00002
1000.38037,-0.00006
999.35011,0.00030
998.31985,0.00059
997.28959,0.00044
996.25933,0.00005
995.22908,-0.00014
994.19882,0.00002
993.16856,0.00025
992.13830,0.00005
991.10804,-0.00040
990.07779,-0.00037
989.04753,0.00002
988.01727,0.00023
986.98701,0.00036
985.95676,0.00045
984.92650,0.00029
983.89624,-0.00006
982.86598,-0.00037
981.83572,-0.00022
980.80547,0.00021
979.77521,0.00025
978.74495,-0.00005
977.71469,-0.00017
976.68443,0.00006
975.65418,0.00035
974.62392,0.00050
973.59366,0.00049
972.56340,0.00023
971.53315,-0.00001
970.50289,0.00014
969.47263,0.00028
968.44237,0.00015
967.41211,0.00018
966.38186,0.00036
965.35160,0.00025
964.32134,-0.00001
963.29108,-0.00011
962.26082,-0.00014
961.23057,-0.00018
960.20031,-0.00009
959.17005,0.00022
958.13979,0.00035
957.10954,0.00003
956.07928,-0.00020
955.04902,-0.00003
954.01876,0.00016
952.98850,0.00024
951.95825,0.00031
950.92799,0.00045
949.89773,0.00050
948.86747,0.00014
947.83722,-0.00034
946.80696,-0.00041
945.77670,-0.00019
944.74644,-0.00002
943.71618,0.00008
942.68593,0.00006
941.65567,-0.00012
940.62541,-0.00023
939.59515,-0.00041
938.56489,-0.00058
937.53464,-0.00031
936.50438,0.00012
935.47412,0.00019
934.44386,0.00012
933.41361,0.00023
932.38335,0.00037
931.35309,0.00038
930.32283,0.00034
929.29257,0.00037
928.26232,0.00039
927.23206,0.00016
926.20180,-0.00009
925.17154,-0.00030
924.14128,-0.00064
923.11103,-0.00076
922.08077,-0.00056
921.05051,-0.00022
920.02025,0.00009
918.99000,0.00004
917.95974,-0.00025
916.92948,-0.00042
915.89922,-0.00059
914.86896,-0.00070
913.83871,-0.00075
912.80845,-0.00073
911.77819,-0.00047
910.74793,-0.00019
909.71768,-0.00005
908.68742,-0.00000
907.65716,0.00016
906.62690,0.00031
905.59664,0.00023
904.56639,-0.00009
903.53613,-0.00055
902.50587,-0.00069
901.47561,-0.00049
900.44535,-0.00042
899.41510,-0.00035
898.38484,-0.00009
897.35458,-0.00016
896.32432,-0.00044
895.29407,-0.00014
894.26381,0.00034
893.23355,0.00020
892.20329,-0.00022
891.17303,-0.00030
890.14278,-0.00025
889.11252,-0.00047
888.08226,-0.00069
887.05200,-0.00032
886.02174,0.00026
884.99149,0.00009
883.96123,-0.00032
882.93097,-0.00022
881.90071,-0.00002
880.87046,-0.00006
879.84020,-0.00022
878.80994,-0.00037
877.77968,-0.00024
876.74942,0.00004
875.71917,0.00002
874.68891,-0.00013
873.65865,-0.00006
872.62839,0.00042
871.59813,0.00075
870.56788,0.00038
869.53762,-0.00024
868.50736,-0.00044
867.47710,-0.00019
866.44685,0.00014
865.41659,0.00043
864.38633,0.00074
863.35607,0.00080
862.32581,0.00065
861.29556,0.00080
860.26530,0.00088
859.23504,0.00047
858.20478,0.00037
857.17453,0.00081
856.14427,0.00095
855.11401,0.00084
854.08375,0.00099
853.05349,0.00090
852.02324,0.00036
850.99298,-0.00013
849.96272,-0.00041
848.93246,-0.00043
847.90220,-0.00028
846.87195,-0.00040
845.84169,-0.00072
844.81143,-0.00063
843.78117,-0.00025
842.75092,-0.00010
841.72066,-0.00016
840.69040,-0.00002
839.66014,0.00048
838.62988,0.00084
837.59963,0.00069
836.56937,0.00022
835.53911,-0.00004
834.50885,-0.00001
833.47859,-0.00019
832.44834,-0.00038
831.41808,-0.00017
830.38782,-0.00016
829.35756,-0.00055
828.32731,-0.00054
827.29705,-0.00038
826.26679,-0.00057
825.23653,-0.00067
824.20627,-0.00058
823.17602,-0.00030
822.14576,0.00005
821.11550,-0.00005
820.08524,-0.00070
819.05498,-0.00122
818.02473,-0.00108
816.99447,-0.00051
815.96421,0.00003
814.93395,0.00056
813.90370,0.00076
812.87344,0.00042
811.84318,0.00010
810.81292,0.00000
809.78266,0.00022
808.75241,0.00057
807.72215,0.00024
806.69189,-0.00040
805.66163,-0.00049
804.63138,-0.00030
803.60112,-0.00030
802.57086,-0.00042
801.54060,-0.00032
800.51034,-0.00010
799.48009,0.00001
798.44983,0.00003
797.41957,-0.00002
796.38931,-0.00012
795.35905,-0.00006
794.32880,0.00048
793.29854,0.00087
792.26828,0.00069
791.23802,0.00062
790.20777,0.00070
789.17751,0.00045
788.14725,-0.00009
787.11699,-0.00025
786.08673,0.00024
785.05648,0.00062
784.02622,0.00037
782.99596,-0.00016
781.96570,-0.00049
780.93544,-0.00042
779.90519,-0.00014
778.87493,-0.00002
777.84467,0.00001
776.81441,0.00019
775.78416,0.00030
774.75390,-0.00006
773.72364,-0.00038
772.69338,-0.00009
771.66312,0.00013
770.63287,-0.00016
769.60261,-0.00031
768.57235,-0.00001
767.54209,0.00040
766.51183,0.00053
765.48158,0.00037
764.45132,0.00015
763.42106,-0.00012
762.39080,-0.00040
761.36055,-0.00062
760.33029,-0.00058
759.30003,-0.00021
758.26977,-0.00002
757.23951,-0.00026
756.20926,-0.00041
755.17900,0.00001
754.14874,0.00065
753.11848,0.00090
752.08823,0.00073
751.05797,0.00034
750.02771,0.00008
748.99745,0.00012
747.96719,0.00021
746.93694,0.00002
745.90668,-0.00027
744.87642,0.00002
743.84616,0.00046
742.81590,0.00023
741.78565,-0.00019
740.75539,-0.00044
739.72513,-0.00053
738.69487,-0.00011
737.66462,0.00038
736.63436,0.00014
735.60410,-0.00026
734.57384,-0.00026
733.54358,-0.00030
732.51333,-0.00034
731.48307,-0.00005
730.45281,0.00037
729.42255,0.00046
728.39229,0.00028
727.36204,0.00005
726.33178,-0.00030
725.30152,-0.00050
724.27126,-0.00041
723.24101,-0.00024
722.21075,0.00002
721.18049,0.00033
720.15023,0.00042
719.11997,0.00010
718.08972,-0.00009
717.05946,0.00023
716.02920,0.00030
714.99894,-0.00013
713.96868,-0.00040
712.93843,-0.00024
711.90817,0.00009
710.87791,-0.00005
709.84765,-0.00051
708.81740,-0.00021
707.78714,0.00046
706.75688,0.00025
705.72662,-0.00027
704.69636,-0.00031
703.66611,-0.00008
702.63585,0.00065
701.60559,0.00135
700.57533,0.00113
699.54508,0.00082
698.51482,0.00084
697.48456,0.00039
696.45430,-0.00035
695.42404,-0.00052
694.39379,0.00003
693.36353,0.00039
692.33327,-0.00001
691.30301,-0.00027
690.27275,0.00032
689.24250,0.00099
688.21224,0.00070
687.18198,-0.00020
686.15172,-0.00045
685.12147,-0.00025
684.09121,-0.00027
683.06095,-0.00009
682.03069,0.00046
681.00043,0.00095
679.97018,0.00089
678.93992,0.00053
677.90966,0.00025
676.87940,0.00010
675.84914,0.00016
674.81889,0.00039
673.78863,0.00079
672.75837,0.00094
671.72811,0.00095
670.69786,0.00096
669.66760,0.00038
668.63734,-0.00061
667.60708,-0.00037
666.57682,0.00014
665.54657,0.00000
664.51631,-0.00007
663.48605,0.00004
662.45579,0.00009
661.42553,0.00031
660.39528,0.00071
659.36502,0.00063
658.33476,0.00024
657.30450,0.00044
656.27425,0.00091
655.24399,0.00100
654.21373,0.00055
653.18347,-0.00002
652.15321,0.00011
651.12296,0.00060
650.09270,0.00088
649.06244,0.00091
648.03218,0.00069
647.00193,0.00048
645.97167,0.00031
644.94141,0.00009
643.91115,0.00003
642.88089,-0.00031
641.85064,-0.00096
640.82038,-0.00115
639.79012,-0.00098
638.75986,-0.00122
637.72960,-0.00166
636.69935,-0.00146
635.66909,-0.00091
634.63883,-0.00058
633.60857,-0.00032
632.57832,-0.00019
631.54806,-0.00007
630.51780,-0.00014
629.48754,-0.00099
628.45728,-0.00191
627.42703,-0.00157
626.39677,0.00002
625.36651,0.00094
624.33625,0.00046
623.30599,0.00006
622.27574,-0.00007
621.24548,0.00013
620.21522,0.00055
619.18496,0.00029
618.15471,-0.00025
617.12445,-0.00065
616.09419,-0.00058
615.06393,0.00012
614.03367,0.00097
613.00342,0.00126
611.97316,0.00059
610.94290,-0.00055
609.91264,-0.00148
608.88238,-0.00188
607.85213,-0.00150
606.82187,-0.00051
605.79161,0.00070
604.76135,0.00140
603.73110,0.00088
602.70084,0.00031
601.67058,0.00056
600.64032,0.00037
599.61006,-0.00078
598.57981,-0.00175
597.54955,-0.00130
596.51929,0.00008
595.48903,0.00041
594.45878,-0.00034
593.42852,0.00016
592.39826,0.00219
591.36800,0.00345
590.33774,0.00332
589.30749,0.00254
588.27723,0.00145
587.24697,0.00137
586.21671,0.00217
585.18645,0.00173
584.15620,0.00023
583.12594,-0.00120
582.09568,-0.00240
581.06542,-0.00292
580.03517,-0.00249
579.00491,-0.00134
577.97465,-0.00021
576.94439,0.00057
575.91413,0.00171
574.88388,0.00259
573.85362,0.00217
572.82336,0.00131
571.79310,0.00102
570.76284,0.00074
569.73259,-0.00052
568.70233,-0.00191
567.67207,-0.00188
566.64181,-0.00095
565.61156,-0.00018
564.58130,0.00058
563.55104,0.00123
562.52078,0.00180
561.49052,0.00307
560.46027,0.00414
559.43001,0.00361
558.39975,0.00225
557.36949,0.00196
556.33924,0.00253
555.30898,0.00187
554.27872,0.00047
553.24846,0.00021
552.21820,0.00026
551.18795,-0.00043
550.15769,-0.00109
549.12743,-0.00129
548.09717,-0.00153
547.06691,-0.00198
546.03666,-0.00216
545.00640,-0.00152
543.97614,0.00026
542.94588,0.00178
541.91563,0.00165
540.88537,0.00073
539.85511,-0.00015
538.82485,-0.00050
537.79459,0.00039
536.76434,0.00236
535.73408,0.00420
534.70382,0.00417
533.67356,0.00195
532.64330,-0.00026
531.61305,0.00025
530.58279,0.00212
529.55253,0.00177
528.52227,0.00076
527.49202,0.00165
526.46176,0.00196
525.43150,-0.00031
524.40124,-0.00245
523.37098,-0.00281
522.34073,-0.00302
521.31047,-0.00309
520.28021,-0.00147
519.24995,0.00030
518.21969,-0.00004
517.18944,-0.00096
516.15918,0.00030
515.12892,0.00223
514.09866,0.00282
513.06841,0.00265
512.03815,0.00155
511.00789,0.00042
509.97763,0.00037
508.94737,0.00064
507.91712,0.00110
506.88686,0.00176
505.85660,0.00165
504.82634,0.00077
503.79609,-0.00008
502.76583,-0.00035
501.73557,0.00074
500.70531,0.00217
499.67505,0.00199
498.64480,-0.00021
497.61454,-0.00198
496.58428,-0.00162
495.55402,-0.00074
494.52376,0.00009
493.49351,0.00110
492.46325,0.00231
491.43299,0.00274
490.40273,0.00151
489.37248,0.00010
488.34222,-0.00067
487.31196,-0.00137
486.28170,-0.00158
485.25144,0.00026
484.22119,0.00196
483.19093,0.00086
482.16067,-0.00026
481.13041,0.00071
480.10015,0.00214
479.06990,0.00294
478.03964,0.00369
477.00938,0.00412
475.97912,0.00361
474.94887,0.00270
473.91861,0.00165
472.88835,0.00088
471.85809,0.00165
470.82783,0.00184
469.79758,0.00067
468.76732,0.00060
467.73706,0.00121
466.70680,0.00144
465.67654,0.00197
464.64629,0.00238
463.61603,0.00126
462.58577,0.00035
461.55551,0.00155
460.52526,0.00164
459.49500,0.00034
458.46474,0.00190
457.43448,0.00522
456.40422,0.00576
455.37397,0.00501
454.34371,0.00383
453.31345,0.00158
452.28319,-0.00128
451.25294,-0.00193
450.22268,-0.00023
449.19242,0.00030
448.16216,-0.00078
447.13190,-0.00134
446.10165,-0.00030
445.07139,0.00162
444.04113,0.00291
443.01087,0.00265
441.98061,0.00272
440.95036,0.00400
439.92010,0.00360
438.88984,0.00080
437.85958,-0.00153
436.82933,-0.00076
435.79907,0.00191
434.76881,0.00377
433.73855,0.00449
432.70829,0.00470
431.67804,0.00476
430.64778,0.00412
429.61752,0.00310
428.58726,0.00092
427.55700,-0.00220
426.52675,-0.00229
425.49649,-0.00190
424.46623,-0.00422
423.43597,-0.00274
422.40572,0.00323
421.37546,0.00425
420.34520,0.00037
419.31494,-0.00010
418.28468,0.00259
417.25443,0.00176
416.22417,0.00216
415.19391,0.00349
414.16365,0.00230
413.13339,0.00052
412.10314,0.00064
411.07288,0.00099
410.04262,0.00233
409.01236,0.00676
407.98211,0.00928
406.95185,0.00649
405.92159,0.00181
404.89133,-0.00320
403.86107,-0.00490
402.83082,-0.00147
401.80056,0.00232
400.77030,0.00232
399.74004,-0.00233
