4998.81105,0.00297
4997.78079,0.00248
4996.75054,0.00187
4995.72028,0.00151
4994.69002,0.00201
4993.65976,0.00254
4992.62951,0.00231
4991.59925,0.00175
4990.56899,0.00095
4989.53873,-0.00009
4988.50847,-0.00098
4987.47822,-0.00106
4986.44796,-0.00017
4985.41770,0.00153
4984.38744,0.00312
4983.35718,0.00324
4982.32693,0.00294
4981.29667,0.00345
4980.26641,0.00357
4979.23615,0.00256
4978.20590,0.00140
4977.17564,0.00019
4976.14538,-0.00084
4975.11512,0.00014
4974.08486,0.00226
4973.05461,0.00250
4972.02435,0.00145
4970.99409,0.00137
4969.96383,0.00215
4968.93357,0.00273
4967.90332,0.00328
4966.87306,0.00378
4965.84280,0.00305
4964.81254,0.00179
4963.78229,0.00163
4962.75203,0.00201
4961.72177,0.00197
4960.69151,0.00197
4959.66125,0.00234
4958.63100,0.00244
4957.60074,0.00208
4956.57048,0.00183
4955.54022,0.00152
4954.50997,0.00095
4953.47971,0.00090
4952.44945,0.00174
4951.41919,0.00235
4950.38893,0.00194
4949.35868,0.00154
4948.32842,0.00123
4947.29816,0.00079
4946.26790,0.00059
4945.23764,0.00024
4944.20739,0.00046
4943.17713,0.00161
4942.14687,0.00210
4941.11661,0.00134
4940.08636,0.00026
4939.05610,0.00011
4938.02584,0.00112
4936.99558,0.00190
4935.96532,0.00136
4934.93507,0.00030
4933.90481,-0.00012
4932.87455,-0.00002
4931.84429,0.00014
4930.81403,0.00057
4929.78378,0.00122
4928.75352,0.00146
4927.72326,0.00163
4926.69300,0.00205
4925.66275,0.00175
4924.63249,0.00087
4923.60223,0.00027
4922.57197,0.00023
4921.54171,0.00130
4920.51146,0.00304
4919.48120,0.00413
4918.45094,0.00432
4917.42068,0.00369
4916.39042,0.00279
4915.36017,0.00260
4914.32991,0.00272
4913.29965,0.00286
4912.26939,0.00345
4911.23914,0.00374
4910.20888,0.00323
4909.17862,0.00265
4908.14836,0.00251
4907.11810,0.00301
4906.08785,0.00327
4905.05759,0.00270
4904.02733,0.00254
4902.99707,0.00306
4901.96682,0.00274
4900.93656,0.00135
4899.90630,0.00071
4898.87604,0.00128
4897.84578,0.00194
4896.81553,0.00182
4895.78527,0.00101
4894.75501,0.00085
4893.72475,0.00141
4892.69449,0.00110
4891.66424,0.00050
4890.63398,0.00107
4889.60372,0.00193
4888.57346,0.00254
4887.54321,0.00265
4886.51295,0.00198
4885.48269,0.00148
4884.45243,0.00117
4883.42217,0.00086
4882.39192,0.00068
4881.36166,0.00031
4880.33140,0.00034
4879.30114,0.00113
4878.27088,0.00174
4877.24063,0.00187
4876.21037,0.00179
4875.18011,0.00142
4874.14985,0.00126
4873.11960,0.00151
4872.08934,0.00134
4871.05908,0.00053
4870.02882,-0.00015
4868.99856,-0.00066
4867.96831,-0.00108
4866.93805,-0.00070
4865.90779,0.00041
4864.87753,0.00178
4863.84727,0.00258
4862.81702,0.00203
4861.78676,0.00141
4860.75650,0.00168
4859.72624,0.00188
4858.69599,0.00122
4857.66573,0.00001
4856.63547,-0.00019
4855.60521,0.00063
4854.57495,0.00098
4853.54470,0.00120
4852.51444,0.00164
4851.48418,0.00169
4850.45392,0.00162
4849.42367,0.00168
4848.39341,0.00139
4847.36315,0.00102
4846.33289,0.00095
4845.30263,0.00107
4844.27238,0.00133
4843.24212,0.00128
4842.21186,0.00108
4841.18160,0.00131
4840.15134,0.00163
4839.12109,0.00171
4838.09083,0.00182
4837.06057,0.00194
4836.03031,0.00221
4835.00006,0.00255
4833.96980,0.00190
4832.93954,0.00066
4831.90928,0.00035
4830.87902,0.00104
4829.84877,0.00176
4828.81851,0.00165
4827.78825,0.00076
4826.75799,-0.00012
4825.72773,-0.00016
4824.69748,0.00079
4823.66722,0.00157
4822.63696,0.00149
4821.60670,0.00160
4820.57645,0.00194
4819.54619,0.00175
4818.51593,0.00171
4817.48567,0.00163
4816.45541,0.00076
4815.42516,0.00010
4814.39490,0.00049
4813.36464,0.00113
4812.33438,0.00148
4811.30412,0.00162
4810.27387,0.00154
4809.24361,0.00140
4808.21335,0.00149
4807.18309,0.00180
4806.15284,0.00167
4805.12258,0.00117
4804.09232,0.00172
4803.06206,0.00302
4802.03180,0.00307
4801.00155,0.00198
4799.97129,0.00129
4798.94103,0.00134
4797.91077,0.00174
4796.88052,0.00183
4795.85026,0.00112
4794.82000,0.00036
4793.78974,0.00041
4792.75948,0.00076
4791.72923,0.00106
4790.69897,0.00148
4789.66871,0.00170
4788.63845,0.00146
4787.60819,0.00080
4786.57794,-0.00021
4785.54768,-0.00116
4784.51742,-0.00110
4783.48716,-0.00035
4782.45691,-0.00027
4781.42665,-0.00071
4780.39639,-0.00050
4779.36613,0.00067
4778.33587,0.00186
4777.30562,0.00204
4776.27536,0.00140
4775.24510,0.00101
4774.21484,0.00156
4773.18458,0.00236
4772.15433,0.00231
4771.12407,0.00165
4770.09381,0.00105
4769.06355,0.00051
4768.03330,0.00010
4767.00304,0.00022
4765.97278,0.00078
4764.94252,0.00096
4763.91226,0.00051
4762.88201,0.00025
4761.85175,0.00036
4760.82149,0.00062
4759.79123,0.00152
4758.76098,0.00224
4757.73072,0.00207
4756.70046,0.00194
4755.67020,0.00181
4754.63994,0.00151
4753.60969,0.00142
4752.57943,0.00118
4751.54917,0.00075
4750.51891,0.00056
4749.48865,0.00094
4748.45840,0.00157
4747.42814,0.00149
4746.39788,0.00089
4745.36762,0.00090
4744.33737,0.00158
4743.30711,0.00197
4742.27685,0.00181
4741.24659,0.00132
4740.21633,0.00081
4739.18608,0.00064
4738.15582,0.00015
4737.12556,-0.00071
4736.09530,-0.00074
4735.06504,-0.00026
4734.03479,-0.00011
4733.00453,-0.00027
4731.97427,-0.00017
4730.94401,0.00067
4729.91376,0.00112
4728.88350,0.00063
4727.85324,0.00024
4726.82298,0.00051
4725.79272,0.00108
4724.76247,0.00134
4723.73221,0.00139
4722.70195,0.00170
4721.67169,0.00208
4720.64143,0.00186
4719.61118,0.00125
4718.58092,0.00158
4717.55066,0.00230
4716.52040,0.00244
4715.49015,0.00279
4714.45989,0.00291
4713.42963,0.00238
4712.39937,0.00202
4711.36911,0.00181
4710.33886,0.00163
4709.30860,0.00173
4708.27834,0.00187
4707.24808,0.00155
4706.21783,0.00128
4705.18757,0.00138
4704.15731,0.00106
4703.12705,0.00035
4702.09679,0.00010
4701.06654,0.00077
4700.03628,0.00173
4699.00602,0.00217
4697.97576,0.00158
4696.94550,0.00046
4695.91525,0.00035
4694.88499,0.00098
4693.85473,0.00097
4692.82447,0.00030
4691.79422,-0.00005
4690.76396,0.00068
4689.73370,0.00140
4688.70344,0.00110
4687.67318,0.00071
4686.64293,0.00112
4685.61267,0.00178
4684.58241,0.00198
4683.55215,0.00179
4682.52189,0.00137
4681.49164,0.00150
4680.46138,0.00210
4679.43112,0.00184
4678.40086,0.00071
4677.37061,0.00008
4676.34035,0.00067
4675.31009,0.00120
4674.27983,0.00090
4673.24957,0.00101
4672.21932,0.00178
4671.18906,0.00226
4670.15880,0.00231
4669.12854,0.00187
4668.09828,0.00106
4667.06803,0.00052
4666.03777,0.00034
4665.00751,0.00049
4663.97725,0.00117
4662.94700,0.00197
4661.91674,0.00186
4660.88648,0.00099
4659.85622,0.00068
4658.82596,0.00107
4657.79571,0.00132
4656.76545,0.00121
4655.73519,0.00106
4654.70493,0.00088
4653.67468,0.00082
4652.64442,0.00109
4651.61416,0.00087
4650.58390,0.00005
4649.55364,-0.00018
4648.52339,0.00040
4647.49313,0.00135
4646.46287,0.00199
4645.43261,0.00190
4644.40235,0.00159
4643.37210,0.00136
4642.34184,0.00152
4641.31158,0.00169
4640.28132,0.00116
4639.25107,0.00096
4638.22081,0.00159
4637.19055,0.00200
4636.16029,0.00183
4635.13003,0.00139
4634.09978,0.00119
4633.06952,0.00142
4632.03926,0.00134
4631.00900,0.00119
4629.97874,0.00171
4628.94849,0.00223
4627.91823,0.00201
4626.88797,0.00129
4625.85771,0.00070
4624.82746,0.00044
4623.79720,0.00053
4622.76694,0.00094
4621.73668,0.00100
4620.70642,0.00080
4619.67617,0.00084
4618.64591,0.00082
4617.61565,0.00102
4616.58539,0.00145
4615.55513,0.00131
4614.52488,0.00081
4613.49462,0.00060
4612.46436,0.00067
4611.43410,0.00091
4610.40385,0.00124
4609.37359,0.00129
4608.34333,0.00112
4607.31307,0.00116
4606.28281,0.00129
4605.25256,0.00106
4604.22230,0.00054
4603.19204,0.00023
4602.16178,0.00048
4601.13153,0.00084
4600.10127,0.00109
4599.07101,0.00156
4598.04075,0.00194
4597.01049,0.00156
4595.98024,0.00069
4594.94998,0.00051
4593.91972,0.00088
4592.88946,0.00074
4591.85920,0.00069
4590.82895,0.00096
4589.79869,0.00075
4588.76843,0.00063
4587.73817,0.00109
4586.70792,0.00158
4585.67766,0.00189
4584.64740,0.00223
4583.61714,0.00269
4582.58688,0.00272
4581.55663,0.00218
4580.52637,0.00180
4579.49611,0.00141
4578.46585,0.00085
4577.43559,0.00085
4576.40534,0.00133
4575.37508,0.00153
4574.34482,0.00133
4573.31456,0.00110
4572.28431,0.00099
4571.25405,0.00072
4570.22379,0.00023
4569.19353,0.00023
4568.16327,0.00088
4567.13302,0.00150
4566.10276,0.00175
4565.07250,0.00164
4564.04224,0.00130
4563.01198,0.00066
4561.98173,0.00025
4560.95147,0.00082
4559.92121,0.00174
4558.89095,0.00185
4557.86070,0.00123
4556.83044,0.00110
4555.80018,0.00189
4554.76992,0.00272
4553.73966,0.00251
4552.70941,0.00148
4551.67915,0.00073
4550.64889,0.00016
4549.61863,-0.00034
4548.58838,-0.00032
4547.55812,0.00021
4546.52786,0.00129
4545.49760,0.00227
4544.46734,0.00208
4543.43709,0.00087
4542.40683,-0.00027
4541.37657,-0.00030
4540.34631,0.00070
4539.31605,0.00154
4538.28580,0.00154
4537.25554,0.00104
4536.22528,0.00047
4535.19502,0.00009
4534.16477,0.00036
4533.13451,0.00095
4532.10425,0.00108
4531.07399,0.00098
4530.04373,0.00067
4529.01348,0.00036
4527.98322,0.00051
4526.95296,0.00069
4525.92270,0.00084
4524.89244,0.00142
4523.86219,0.00198
4522.83193,0.00224
4521.80167,0.00245
4520.77141,0.00245
4519.74116,0.00213
4518.71090,0.00170
4517.68064,0.00118
4516.65038,0.00070
4515.62012,0.00081
4514.58987,0.00148
4513.55961,0.00167
4512.52935,0.00102
4511.49909,0.00038
4510.46883,0.00048
4509.43858,0.00064
4508.40832,0.00035
4507.37806,0.00045
4506.34780,0.00098
4505.31755,0.00138
4504.28729,0.00129
4503.25703,0.00054
4502.22677,0.00004
4501.19651,0.00013
4500.16626,0.00013
4499.13600,0.00008
4498.10574,0.00034
4497.07548,0.00067
4496.04523,0.00095
4495.01497,0.00122
4493.98471,0.00115
4492.95445,0.00127
4491.92419,0.00180
4490.89394,0.00150
4489.86368,0.00062
4488.83342,0.00045
4487.80316,0.00073
4486.77290,0.00082
4485.74265,0.00106
4484.71239,0.00137
4483.68213,0.00126
4482.65187,0.00106
4481.62162,0.00089
4480.59136,0.00059
4479.56110,0.00054
4478.53084,0.00078
4477.50058,0.00082
4476.47033,0.00089
4475.44007,0.00128
4474.40981,0.00152
4473.37955,0.00159
4472.34929,0.00165
4471.31904,0.00135
4470.28878,0.00112
4469.25852,0.00145
4468.22826,0.00164
4467.19801,0.00087
4466.16775,-0.00008
4465.13749,0.00006
4464.10723,0.00109
4463.07697,0.00148
4462.04672,0.00100
4461.01646,0.00088
4459.98620,0.00118
4458.95594,0.00124
4457.92568,0.00113
4456.89543,0.00099
4455.86517,0.00082
4454.83491,0.00090
4453.80465,0.00132
4452.77440,0.00164
4451.74414,0.00160
4450.71388,0.00116
4449.68362,0.00065
4448.65336,0.00080
4447.62311,0.00171
4446.59285,0.00219
4445.56259,0.00162
4444.53233,0.00101
4443.50208,0.00096
4442.47182,0.00106
4441.44156,0.00115
4440.41130,0.00122
4439.38104,0.00115
4438.35079,0.00108
4437.32053,0.00102
4436.29027,0.00109
4435.26001,0.00127
4434.22975,0.00147
4433.19950,0.00174
4432.16924,0.00165
4431.13898,0.00105
4430.10872,0.00065
4429.07847,0.00062
4428.04821,0.00044
4427.01795,0.00013
4425.98769,0.00023
4424.95743,0.00075
4423.92718,0.00092
4422.89692,0.00048
4421.86666,-0.00015
4420.83640,-0.00014
4419.80614,0.00051
4418.77589,0.00091
4417.74563,0.00101
4416.71537,0.00109
4415.68511,0.00083
4414.65486,0.00022
4413.62460,-0.00002
4412.59434,-0.00003
4411.56408,0.00002
4410.53382,0.00043
4409.50357,0.00095
4408.47331,0.00130
4407.44305,0.00098
4406.41279,0.00044
4405.38253,0.00045
4404.35228,0.00050
4403.32202,0.00039
4402.29176,0.00054
4401.26150,0.00074
4400.23125,0.00063
4399.20099,0.00049
4398.17073,0.00078
4397.14047,0.00120
4396.11021,0.00140
4395.07996,0.00163
4394.04970,0.00178
4393.01944,0.00160
4391.98918,0.00111
4390.95893,0.00044
4389.92867,0.00029
4388.89841,0.00090
4387.86815,0.00148
4386.83789,0.00145
4385.80764,0.00121
4384.77738,0.00103
4383.74712,0.00094
4382.71686,0.00096
4381.68660,0.00097
4380.65635,0.00105
4379.62609,0.00118
4378.59583,0.00115
4377.56557,0.00076
4376.53532,0.00011
4375.50506,-0.00007
4374.47480,0.00064
4373.44454,0.00114
4372.41428,0.00062
4371.38403,0.00018
4370.35377,0.00047
4369.32351,0.00062
4368.29325,0.00065
4367.26299,0.00112
4366.23274,0.00162
4365.20248,0.00165
4364.17222,0.00134
4363.14196,0.00095
4362.11171,0.00055
4361.08145,0.00042
4360.05119,0.00080
4359.02093,0.00099
4357.99067,0.00061
4356.96042,0.00056
4355.93016,0.00093
4354.89990,0.00113
4353.86964,0.00131
4352.83939,0.00164
4351.80913,0.00175
4350.77887,0.00144
4349.74861,0.00110
4348.71835,0.00086
4347.68810,0.00061
4346.65784,0.00014
4345.62758,-0.00023
4344.59732,0.00023
4343.56706,0.00096
4342.53681,0.00105
4341.50655,0.00093
4340.47629,0.00116
4339.44603,0.00136
4338.41578,0.00125
4337.38552,0.00112
4336.35526,0.00107
4335.32500,0.00091
4334.29474,0.00084
4333.26449,0.00098
4332.23423,0.00091
4331.20397,0.00066
4330.17371,0.00072
4329.14345,0.00081
4328.11320,0.00064
4327.08294,0.00060
4326.05268,0.00072
4325.02242,0.00092
4323.99217,0.00104
4322.96191,0.00113
4321.93165,0.00142
4320.90139,0.00152
4319.87113,0.00134
4318.84088,0.00126
4317.81062,0.00145
4316.78036,0.00148
4315.75010,0.00117
4314.71984,0.00089
4313.68959,0.00085
4312.65933,0.00079
4311.62907,0.00039
4310.59881,0.00039
4309.56856,0.00109
4308.53830,0.00171
4307.50804,0.00189
4306.47778,0.00142
4305.44752,0.00074
4304.41727,0.00077
4303.38701,0.00111
4302.35675,0.00104
4301.32649,0.00091
4300.29624,0.00104
4299.26598,0.00128
4298.23572,0.00156
4297.20546,0.00179
4296.17520,0.00174
4295.14495,0.00170
4294.11469,0.00190
4293.08443,0.00185
4292.05417,0.00160
4291.02391,0.00173
4289.99366,0.00186
4288.96340,0.00163
4287.93314,0.00132
4286.90288,0.00116
4285.87263,0.00132
4284.84237,0.00140
4283.81211,0.00123
4282.78185,0.00089
4281.75159,0.00066
4280.72134,0.00083
4279.69108,0.00096
4278.66082,0.00083
4277.63056,0.00098
4276.60030,0.00134
4275.57005,0.00147
4274.53979,0.00156
4273.50953,0.00186
4272.47927,0.00232
4271.44902,0.00256
4270.41876,0.00244
4269.38850,0.00226
4268.35824,0.00175
4267.32798,0.00103
4266.29773,0.00072
4265.26747,0.00074
4264.23721,0.00092
4263.20695,0.00112
4262.17669,0.00140
4261.14644,0.00196
4260.11618,0.00197
4259.08592,0.00130
4258.05566,0.00082
4257.02541,0.00071
4255.99515,0.00089
4254.96489,0.00116
4253.93463,0.00138
4252.90437,0.00154
4251.87412,0.00146
4250.84386,0.00122
4249.81360,0.00131
4248.78334,0.00177
4247.75309,0.00213
4246.72283,0.00197
4245.69257,0.00141
4244.66231,0.00112
4243.63205,0.00126
4242.60180,0.00156
4241.57154,0.00181
4240.54128,0.00202
4239.51102,0.00217
4238.48076,0.00212
4237.45051,0.00200
4236.42025,0.00203
4235.38999,0.00230
4234.35973,0.00259
4233.32948,0.00251
4232.29922,0.00225
4231.26896,0.00203
4230.23870,0.00192
4229.20844,0.00189
4228.17819,0.00172
4227.14793,0.00168
4226.11767,0.00182
4225.08741,0.00175
4224.05715,0.00145
4223.02690,0.00125
4221.99664,0.00127
4220.96638,0.00133
4219.93612,0.00158
4218.90587,0.00200
4217.87561,0.00213
4216.84535,0.00201
4215.81509,0.00189
4214.78483,0.00172
4213.75458,0.00161
4212.72432,0.00144
4211.69406,0.00087
4210.66380,0.00029
4209.63354,0.00036
4208.60329,0.00064
4207.57303,0.00060
4206.54277,0.00073
4205.51251,0.00113
4204.48226,0.00157
4203.45200,0.00218
4202.42174,0.00252
4201.39148,0.00229
4200.36122,0.00206
4199.33097,0.00172
4198.30071,0.00118
4197.27045,0.00132
4196.24019,0.00204
4195.20994,0.00233
4194.17968,0.00195
4193.14942,0.00134
4192.11916,0.00109
4191.08890,0.00134
4190.05865,0.00150
4189.02839,0.00135
4187.99813,0.00137
4186.96787,0.00157
4185.93761,0.00163
4184.90736,0.00176
4183.87710,0.00214
4182.84684,0.00215
4181.81658,0.00166
4180.78633,0.00153
4179.75607,0.00176
4178.72581,0.00192
4177.69555,0.00203
4176.66529,0.00204
4175.63504,0.00191
4174.60478,0.00180
4173.57452,0.00166
4172.54426,0.00150
4171.51400,0.00168
4170.48375,0.00210
4169.45349,0.00211
4168.42323,0.00180
4167.39297,0.00175
4166.36272,0.00161
4165.33246,0.00107
4164.30220,0.00091
4163.27194,0.00130
4162.24168,0.00171
4161.21143,0.00194
4160.18117,0.00216
4159.15091,0.00239
4158.12065,0.00211
4157.09039,0.00155
4156.06014,0.00130
4155.02988,0.00117
4153.99962,0.00111
4152.96936,0.00132
4151.93911,0.00168
4150.90885,0.00197
4149.87859,0.00202
4148.84833,0.00199
4147.81807,0.00200
4146.78782,0.00207
4145.75756,0.00203
4144.72730,0.00192
4143.69704,0.00203
4142.66679,0.00184
4141.63653,0.00138
4140.60627,0.00164
4139.57601,0.00214
4138.54575,0.00199
4137.51550,0.00180
4136.48524,0.00207
4135.45498,0.00241
4134.42472,0.00261
4133.39446,0.00266
4132.36421,0.00246
4131.33395,0.00243
4130.30369,0.00278
4129.27343,0.00298
4128.24318,0.00289
4127.21292,0.00244
4126.18266,0.00180
4125.15240,0.00157
4124.12214,0.00156
4123.09189,0.00168
4122.06163,0.00210
4121.03137,0.00253
4120.00111,0.00286
4118.97085,0.00291
4117.94060,0.00262
4116.91034,0.00234
4115.88008,0.00210
4114.84982,0.00202
4113.81957,0.00210
4112.78931,0.00202
4111.75905,0.00179
4110.72879,0.00147
4109.69853,0.00136
4108.66828,0.00162
4107.63802,0.00203
4106.60776,0.00240
4105.57750,0.00247
4104.54724,0.00207
4103.51699,0.00159
4102.48673,0.00147
4101.45647,0.00145
4100.42621,0.00138
4099.39596,0.00160
4098.36570,0.00222
4097.33544,0.00271
4096.30518,0.00267
4095.27492,0.00250
4094.24467,0.00250
4093.21441,0.00219
4092.18415,0.00153
4091.15389,0.00111
4090.12364,0.00125
4089.09338,0.00165
4088.06312,0.00184
4087.03286,0.00181
4086.00260,0.00193
4084.97235,0.00222
4083.94209,0.00210
4082.91183,0.00165
4081.88157,0.00152
4080.85131,0.00193
4079.82106,0.00239
4078.79080,0.00214
4077.76054,0.00138
4076.73028,0.00099
4075.70003,0.00147
4074.66977,0.00221
4073.63951,0.00221
4072.60925,0.00198
4071.57899,0.00227
4070.54874,0.00270
4069.51848,0.00287
4068.48822,0.00283
4067.45796,0.00274
4066.42770,0.00271
4065.39745,0.00259
4064.36719,0.00253
4063.33693,0.00281
4062.30667,0.00305
4061.27642,0.00287
4060.24616,0.00241
4059.21590,0.00212
4058.18564,0.00229
4057.15538,0.00231
4056.12513,0.00201
4055.09487,0.00200
4054.06461,0.00229
4053.03435,0.00253
4052.00409,0.00282
4050.97384,0.00317
4049.94358,0.00318
4048.91332,0.00289
4047.88306,0.00279
4046.85281,0.00294
4045.82255,0.00289
4044.79229,0.00276
4043.76203,0.00278
4042.73177,0.00271
4041.70152,0.00273
4040.67126,0.00270
4039.64100,0.00238
4038.61074,0.00222
4037.58049,0.00216
4036.55023,0.00199
4035.51997,0.00220
4034.48971,0.00264
4033.45945,0.00306
4032.42920,0.00346
4031.39894,0.00357
4030.36868,0.00325
4029.33842,0.00270
4028.30816,0.00232
4027.27791,0.00247
4026.24765,0.00287
4025.21739,0.00282
4024.18713,0.00264
4023.15688,0.00295
4022.12662,0.00314
4021.09636,0.00309
4020.06610,0.00327
4019.03584,0.00323
4018.00559,0.00272
4016.97533,0.00243
4015.94507,0.00260
4014.91481,0.00313
4013.88455,0.00375
4012.85430,0.00376
4011.82404,0.00345
4010.79378,0.00352
4009.76352,0.00380
4008.73327,0.00398
4007.70301,0.00389
4006.67275,0.00348
4005.64249,0.00333
4004.61223,0.00388
4003.58198,0.00444
4002.55172,0.00402
4001.52146,0.00311
4000.49120,0.00284
3999.46095,0.00300
3998.43069,0.00312
3997.40043,0.00346
3996.37017,0.00381
3995.33991,0.00365
3994.30966,0.00334
3993.27940,0.00316
3992.24914,0.00274
3991.21888,0.00222
3990.18862,0.00197
3989.15837,0.00217
3988.12811,0.00289
3987.09785,0.00356
3986.06759,0.00344
3985.03734,0.00300
3984.00708,0.00314
3982.97682,0.00379
3981.94656,0.00424
3980.91630,0.00412
3979.88605,0.00366
3978.85579,0.00330
3977.82553,0.00326
3976.79527,0.00333
3975.76501,0.00347
3974.73476,0.00345
3973.70450,0.00311
3972.67424,0.00300
3971.64398,0.00338
3970.61373,0.00393
3969.58347,0.00428
3968.55321,0.00400
3967.52295,0.00310
3966.49269,0.00242
3965.46244,0.00244
3964.43218,0.00255
3963.40192,0.00239
3962.37166,0.00246
3961.34140,0.00304
3960.31115,0.00360
3959.28089,0.00387
3958.25063,0.00370
3957.22037,0.00335
3956.19012,0.00328
3955.15986,0.00310
3954.12960,0.00258
3953.09934,0.00226
3952.06908,0.00254
3951.03883,0.00315
3950.00857,0.00355
3948.97831,0.00364
3947.94805,0.00376
3946.91780,0.00390
3945.88754,0.00388
3944.85728,0.00395
3943.82702,0.00403
3942.79676,0.00366
3941.76651,0.00322
3940.73625,0.00336
3939.70599,0.00409
3938.67573,0.00475
3937.64547,0.00444
3936.61522,0.00360
3935.58496,0.00338
3934.55470,0.00354
3933.52444,0.00312
3932.49419,0.00251
3931.46393,0.00288
3930.43367,0.00377
3929.40341,0.00399
3928.37315,0.00354
3927.34290,0.00307
3926.31264,0.00290
3925.28238,0.00315
3924.25212,0.00372
3923.22186,0.00396
3922.19161,0.00359
3921.16135,0.00311
3920.13109,0.00278
3919.10083,0.00264
3918.07058,0.00273
3917.04032,0.00292
3916.01006,0.00301
3914.97980,0.00307
3913.94954,0.00334
3912.91929,0.00336
3911.88903,0.00292
3910.85877,0.00271
3909.82851,0.00287
3908.79825,0.00293
3907.76800,0.00283
3906.73774,0.00281
3905.70748,0.00307
3904.67722,0.00333
3903.64697,0.00325
3902.61671,0.00326
3901.58645,0.00367
3900.55619,0.00406
3899.52593,0.00414
3898.49568,0.00383
3897.46542,0.00324
3896.43516,0.00293
3895.40490,0.00307
3894.37465,0.00324
3893.34439,0.00364
3892.31413,0.00410
3891.28387,0.00375
3890.25361,0.00310
3889.22336,0.00283
3888.19310,0.00262
3887.16284,0.00237
3886.13258,0.00228
3885.10232,0.00272
3884.07207,0.00339
3883.04181,0.00379
3882.01155,0.00385
3880.98129,0.00369
3879.95104,0.00373
3878.92078,0.00388
3877.89052,0.00379
3876.86026,0.00370
3875.83000,0.00346
3874.79975,0.00309
3873.76949,0.00341
3872.73923,0.00416
3871.70897,0.00460
3870.67871,0.00487
3869.64846,0.00474
3868.61820,0.00428
3867.58794,0.00377
3866.55768,0.00303
3865.52743,0.00254
3864.49717,0.00289
3863.46691,0.00332
3862.43665,0.00312
3861.40639,0.00286
3860.37614,0.00303
3859.34588,0.00333
3858.31562,0.00351
3857.28536,0.00332
3856.25510,0.00307
3855.22485,0.00317
3854.19459,0.00313
3853.16433,0.00252
3852.13407,0.00233
3851.10382,0.00278
3850.07356,0.00334
3849.04330,0.00339
3848.01304,0.00318
3846.98278,0.00327
3845.95253,0.00340
3844.92227,0.00338
3843.89201,0.00308
3842.86175,0.00260
3841.83150,0.00268
3840.80124,0.00351
3839.77098,0.00423
3838.74072,0.00401
3837.71046,0.00368
3836.68021,0.00407
3835.64995,0.00413
3834.61969,0.00384
3833.58943,0.00423
3832.55917,0.00460
3831.52892,0.00421
3830.49866,0.00380
3829.46840,0.00375
3828.43814,0.00390
3827.40789,0.00424
3826.37763,0.00453
3825.34737,0.00435
3824.31711,0.00364
3823.28685,0.00316
3822.25660,0.00349
3821.22634,0.00408
3820.19608,0.00422
3819.16582,0.00419
3818.13556,0.00421
3817.10531,0.00425
3816.07505,0.00368
3815.04479,0.00254
3814.01453,0.00285
3812.98428,0.00425
3811.95402,0.00487
3810.92376,0.00458
3809.89350,0.00431
3808.86324,0.00397
3807.83299,0.00377
3806.80273,0.00414
3805.77247,0.00448
3804.74221,0.00461
3803.71195,0.00473
3802.68170,0.00477
3801.65144,0.00465
3800.62118,0.00454
3799.59092,0.00455
3798.56067,0.00450
3797.53041,0.00426
3796.50015,0.00400
3795.46989,0.00424
3794.43963,0.00457
3793.40938,0.00458
3792.37912,0.00457
3791.34886,0.00472
3790.31860,0.00481
3789.28835,0.00465
3788.25809,0.00455
3787.22783,0.00457
3786.19757,0.00445
3785.16731,0.00434
3784.13706,0.00435
3783.10680,0.00410
3782.07654,0.00383
3781.04628,0.00408
3780.01602,0.00465
3778.98577,0.00508
3777.95551,0.00513
3776.92525,0.00512
3775.89499,0.00504
3774.86474,0.00469
3773.83448,0.00469
3772.80422,0.00520
3771.77396,0.00556
3770.74370,0.00552
3769.71345,0.00535
3768.68319,0.00545
3767.65293,0.00574
3766.62267,0.00588
3765.59241,0.00570
3764.56216,0.00519
3763.53190,0.00492
3762.50164,0.00496
3761.47138,0.00462
3760.44113,0.00391
3759.41087,0.00405
3758.38061,0.00523
3757.35035,0.00584
3756.32009,0.00583
3755.28984,0.00598
3754.25958,0.00587
3753.22932,0.00555
3752.19906,0.00534
3751.16880,0.00483
3750.13855,0.00455
3749.10829,0.00519
3748.07803,0.00587
3747.04777,0.00616
3746.01752,0.00640
3744.98726,0.00557
3743.95700,0.00376
3742.92674,0.00503
3741.89648,0.00697
3740.86623,0.00746
3739.83597,0.00700
3738.80571,0.00685
3737.77545,0.00731
3736.74520,0.00777
3735.71494,0.00762
3734.68468,0.00756
3733.65442,0.00799
3732.62416,0.00795
3731.59391,0.00746
3730.56365,0.00757
3729.53339,0.00791
3728.50313,0.00795
3727.47287,0.00779
3726.44262,0.00761
3725.41236,0.00777
3724.38210,0.00834
3723.35184,0.00873
3722.32159,0.00872
3721.29133,0.00867
3720.26107,0.00879
3719.23081,0.00909
3718.20055,0.00941
3717.17030,0.00969
3716.14004,0.01001
3715.10978,0.00993
3714.07952,0.00945
3713.04926,0.00953
3712.01901,0.01038
3710.98875,0.01068
3709.95849,0.01056
3708.92823,0.01082
3707.89798,0.01108
3706.86772,0.01110
3705.83746,0.01147
3704.80720,0.01216
3703.77694,0.01226
3702.74669,0.01215
3701.71643,0.01242
3700.68617,0.01264
3699.65591,0.01305
3698.62565,0.01388
3697.59540,0.01468
3696.56514,0.01484
3695.53488,0.01477
3694.50462,0.01521
3693.47437,0.01570
3692.44411,0.01587
3691.41385,0.01637
3690.38359,0.01731
3689.35333,0.01798
3688.32308,0.01890
3687.29282,0.02000
3686.26256,0.02012
3685.23230,0.01995
3684.20205,0.02029
3683.17179,0.02076
3682.14153,0.02112
3681.11127,0.02179
3680.08101,0.02273
3679.05076,0.02379
3678.02050,0.02463
3676.99024,0.02489
3675.95998,0.02493
3674.92972,0.02560
3673.89947,0.02687
3672.86921,0.02834
3671.83895,0.02984
3670.80869,0.03108
3669.77844,0.03197
3668.74818,0.03257
3667.71792,0.03277
3666.68766,0.03336
3665.65740,0.03463
3664.62715,0.03600
3663.59689,0.03709
3662.56663,0.03791
3661.53637,0.03869
3660.50611,0.03952
3659.47586,0.04057
3658.44560,0.04196
3657.41534,0.04315
3656.38508,0.04393
3655.35483,0.04474
3654.32457,0.04581
3653.29431,0.04712
3652.26405,0.04808
3651.23379,0.04868
3650.20354,0.05007
3649.17328,0.05156
3648.14302,0.05195
3647.11276,0.05270
3646.08250,0.05444
3645.05225,0.05598
3644.02199,0.05694
3642.99173,0.05785
3641.96147,0.05912
3640.93122,0.06045
3639.90096,0.06145
3638.87070,0.06236
3637.84044,0.06351
3636.81018,0.06470
3635.77993,0.06577
3634.74967,0.06674
3633.71941,0.06765
3632.68915,0.06839
3631.65890,0.06885
3630.62864,0.06935
3629.59838,0.07006
3628.56812,0.07067
3627.53786,0.07189
3626.50761,0.07373
3625.47735,0.07508
3624.44709,0.07596
3623.41683,0.07696
3622.38657,0.07805
3621.35632,0.07897
3620.32606,0.07948
3619.29580,0.08035
3618.26554,0.08203
3617.23529,0.08320
3616.20503,0.08365
3615.17477,0.08437
3614.14451,0.08552
3613.11425,0.08634
3612.08400,0.08660
3611.05374,0.08694
3610.02348,0.08768
3608.99322,0.08879
3607.96296,0.09015
3606.93271,0.09141
3605.90245,0.09262
3604.87219,0.09386
3603.84193,0.09469
3602.81168,0.09527
3601.78142,0.09620
3600.75116,0.09732
3599.72090,0.09826
3598.69064,0.09897
3597.66039,0.09957
3596.63013,0.10032
3595.59987,0.10126
3594.56961,0.10234
3593.53936,0.10314
3592.50910,0.10382
3591.47884,0.10500
3590.44858,0.10611
3589.41832,0.10687
3588.38807,0.10742
3587.35781,0.10797
3586.32755,0.10912
3585.29729,0.11055
3584.26703,0.11178
3583.23678,0.11294
3582.20652,0.11426
3581.17626,0.11532
3580.14600,0.11595
3579.11575,0.11644
3578.08549,0.11698
3577.05523,0.11780
3576.02497,0.11885
3574.99471,0.11970
3573.96446,0.12028
3572.93420,0.12117
3571.90394,0.12284
3570.87368,0.12465
3569.84342,0.12563
3568.81317,0.12600
3567.78291,0.12677
3566.75265,0.12799
3565.72239,0.12907
3564.69214,0.13009
3563.66188,0.13133
3562.63162,0.13279
3561.60136,0.13403
3560.57110,0.13482
3559.54085,0.13571
3558.51059,0.13676
3557.48033,0.13773
3556.45007,0.13885
3555.41981,0.14018
3554.38956,0.14140
3553.35930,0.14263
3552.32904,0.14396
3551.29878,0.14501
3550.26853,0.14592
3549.23827,0.14680
3548.20801,0.14757
3547.17775,0.14838
3546.14749,0.14951
3545.11724,0.15086
3544.08698,0.15191
3543.05672,0.15277
3542.02646,0.15417
3540.99621,0.15601
3539.96595,0.15722
3538.93569,0.15779
3537.90543,0.15874
3536.87517,0.16031
3535.84492,0.16185
3534.81466,0.16298
3533.78440,0.16425
3532.75414,0.16549
3531.72388,0.16595
3530.69363,0.16642
3529.66337,0.16755
3528.63311,0.16891
3527.60285,0.17035
3526.57260,0.17176
3525.54234,0.17310
3524.51208,0.17419
3523.48182,0.17502
3522.45156,0.17601
3521.42131,0.17728
3520.39105,0.17860
3519.36079,0.17966
3518.33053,0.18050
3517.30027,0.18182
3516.27002,0.18355
3515.23976,0.18476
3514.20950,0.18527
3513.17924,0.18587
3512.14899,0.18710
3511.11873,0.18881
3510.08847,0.19084
3509.05821,0.19273
3508.02795,0.19394
3506.99770,0.19479
3505.96744,0.19534
3504.93718,0.19580
3503.90692,0.19689
3502.87666,0.19835
3501.84641,0.19963
3500.81615,0.20078
3499.78589,0.20181
3498.75563,0.20295
3497.72538,0.20437
3496.69512,0.20586
3495.66486,0.20706
3494.63460,0.20828
3493.60434,0.20961
3492.57409,0.21048
3491.54383,0.21140
3490.51357,0.21314
3489.48331,0.21519
3488.45306,0.21655
3487.42280,0.21708
3486.39254,0.21790
3485.36228,0.21947
3484.33202,0.22101
3483.30177,0.22206
3482.27151,0.22291
3481.24125,0.22392
3480.21099,0.22494
3479.18073,0.22608
3478.15048,0.22774
3477.12022,0.22952
3476.08996,0.23116
3475.05970,0.23301
3474.02945,0.23457
3472.99919,0.23529
3471.96893,0.23573
3470.93867,0.23643
3469.90841,0.23734
3468.87816,0.23859
3467.84790,0.24008
3466.81764,0.24151
3465.78738,0.24328
3464.75712,0.24512
3463.72687,0.24582
3462.69661,0.24605
3461.66635,0.24743
3460.63609,0.24942
3459.60584,0.25086
3458.57558,0.25181
3457.54532,0.25286
3456.51506,0.25423
3455.48480,0.25559
3454.45455,0.25707
3453.42429,0.25855
3452.39403,0.25998
3451.36377,0.26152
3450.33351,0.26262
3449.30326,0.26343
3448.27300,0.26469
3447.24274,0.26594
3446.21248,0.26707
3445.18223,0.26848
3444.15197,0.26955
3443.12171,0.27031
3442.09145,0.27164
3441.06119,0.27330
3440.03094,0.27441
3439.00068,0.27524
3437.97042,0.27654
3436.94016,0.27800
3435.90991,0.27941
3434.87965,0.28100
3433.84939,0.28259
3432.81913,0.28421
3431.78887,0.28570
3430.75862,0.28645
3429.72836,0.28709
3428.69810,0.28833
3427.66784,0.28963
3426.63758,0.29102
3425.60733,0.29283
3424.57707,0.29458
3423.54681,0.29568
3422.51655,0.29633
3421.48630,0.29726
3420.45604,0.29893
3419.42578,0.30046
3418.39552,0.30119
3417.36526,0.30205
3416.33501,0.30354
3415.30475,0.30500
3414.27449,0.30596
3413.24423,0.30647
3412.21397,0.30728
3411.18372,0.30891
3410.15346,0.31056
3409.12320,0.31148
3408.09294,0.31186
3407.06269,0.31231
3406.03243,0.31311
3405.00217,0.31421
3403.97191,0.31568
3402.94165,0.31687
3401.91140,0.31715
3400.88114,0.31739
3399.85088,0.31826
3398.82062,0.31968
3397.79036,0.32136
3396.76011,0.32213
3395.72985,0.32208
3394.69959,0.32281
3393.66933,0.32448
3392.63908,0.32592
3391.60882,0.32675
3390.57856,0.32739
3389.54830,0.32833
3388.51804,0.32950
3387.48779,0.33045
3386.45753,0.33143
3385.42727,0.33271
3384.39701,0.33385
3383.36676,0.33475
3382.33650,0.33595
3381.30624,0.33735
3380.27598,0.33848
3379.24572,0.33956
3378.21547,0.34031
3377.18521,0.34027
3376.15495,0.33989
3375.12469,0.33981
3374.09443,0.34036
3373.06418,0.34114
3372.03392,0.34177
3371.00366,0.34204
3369.97340,0.34188
3368.94315,0.34186
3367.91289,0.34225
3366.88263,0.34318
3365.85237,0.34447
3364.82211,0.34513
3363.79186,0.34522
3362.76160,0.34542
3361.73134,0.34578
3360.70108,0.34638
3359.67082,0.34727
3358.64057,0.34831
3357.61031,0.34896
3356.58005,0.34895
3355.54979,0.34920
3354.51954,0.34962
3353.48928,0.34966
3352.45902,0.34973
3351.42876,0.35003
3350.39850,0.35060
3349.36825,0.35119
3348.33799,0.35140
3347.30773,0.35128
3346.27747,0.35066
3345.24721,0.34989
3344.21696,0.34991
3343.18670,0.35050
3342.15644,0.35116
3341.12618,0.35225
3340.09593,0.35298
3339.06567,0.35254
3338.03541,0.35206
3337.00515,0.35261
3335.97489,0.35373
3334.94464,0.35438
3333.91438,0.35380
3332.88412,0.35287
3331.85386,0.35292
3330.82361,0.35337
3329.79335,0.35393
3328.76309,0.35486
3327.73283,0.35532
3326.70257,0.35490
3325.67232,0.35422
3324.64206,0.35385
3323.61180,0.35371
3322.58154,0.35367
3321.55128,0.35394
3320.52103,0.35471
3319.49077,0.35560
3318.46051,0.35584
3317.43025,0.35521
3316.40000,0.35460
3315.36974,0.35449
3314.33948,0.35471
3313.30922,0.35536
3312.27896,0.35556
3311.24871,0.35450
3310.21845,0.35329
3309.18819,0.35311
3308.15793,0.35365
3307.12767,0.35397
3306.09742,0.35393
3305.06716,0.35387
3304.03690,0.35403
3303.00664,0.35409
3301.97639,0.35385
3300.94613,0.35440
3299.91587,0.35569
3298.88561,0.35587
3297.85535,0.35497
3296.82510,0.35458
3295.79484,0.35465
3294.76458,0.35413
3293.73432,0.35364
3292.70406,0.35413
3291.67381,0.35469
3290.64355,0.35455
3289.61329,0.35459
3288.58303,0.35493
3287.55278,0.35467
3286.52252,0.35442
3285.49226,0.35479
3284.46200,0.35520
3283.43174,0.35523
3282.40149,0.35492
3281.37123,0.35489
3280.34097,0.35541
3279.31071,0.35553
3278.28046,0.35458
3277.25020,0.35412
3276.21994,0.35533
3275.18968,0.35627
3274.15942,0.35564
3273.12917,0.35508
3272.09891,0.35523
3271.06865,0.35520
3270.03839,0.35526
3269.00813,0.35590
3267.97788,0.35677
3266.94762,0.35700
3265.91736,0.35633
3264.88710,0.35598
3263.85685,0.35645
3262.82659,0.35700
3261.79633,0.35679
3260.76607,0.35584
3259.73581,0.35503
3258.70556,0.35471
3257.67530,0.35491
3256.64504,0.35545
3255.61478,0.35537
3254.58452,0.35464
3253.55427,0.35442
3252.52401,0.35485
3251.49375,0.35547
3250.46349,0.35621
3249.43324,0.35616
3248.40298,0.35486
3247.37272,0.35369
3246.34246,0.35345
3245.31220,0.35328
3244.28195,0.35282
3243.25169,0.35275
3242.22143,0.35306
3241.19117,0.35272
3240.16092,0.35188
3239.13066,0.35138
3238.10040,0.35114
3237.07014,0.35082
3236.03988,0.35025
3235.00963,0.34976
3233.97937,0.34949
3232.94911,0.34919
3231.91885,0.34899
3230.88859,0.34932
3229.85834,0.34970
3228.82808,0.34932
3227.79782,0.34868
3226.76756,0.34812
3225.73731,0.34737
3224.70705,0.34677
3223.67679,0.34625
3222.64653,0.34581
3221.61627,0.34617
3220.58602,0.34632
3219.55576,0.34507
3218.52550,0.34369
3217.49524,0.34297
3216.46498,0.34195
3215.43473,0.34027
3214.40447,0.33905
3213.37421,0.33900
3212.34395,0.33921
3211.31370,0.33887
3210.28344,0.33834
3209.25318,0.33788
3208.22292,0.33715
3207.19266,0.33588
3206.16241,0.33455
3205.13215,0.33393
3204.10189,0.33342
3203.07163,0.33232
3202.04137,0.33139
3201.01112,0.33130
3199.98086,0.33092
3198.95060,0.32932
3197.92034,0.32761
3196.89009,0.32617
3195.85983,0.32482
3194.82957,0.32414
3193.79931,0.32356
3192.76905,0.32234
3191.73880,0.32121
3190.70854,0.32034
3189.67828,0.31922
3188.64802,0.31804
3187.61777,0.31681
3186.58751,0.31561
3185.55725,0.31455
3184.52699,0.31331
3183.49673,0.31189
3182.46648,0.31065
3181.43622,0.31016
3180.40596,0.30991
3179.37570,0.30902
3178.34544,0.30758
3177.31519,0.30577
3176.28493,0.30405
3175.25467,0.30260
3174.22441,0.30157
3173.19416,0.30098
3172.16390,0.30017
3171.13364,0.29874
3170.10338,0.29691
3169.07312,0.29550
3168.04287,0.29459
3167.01261,0.29336
3165.98235,0.29159
3164.95209,0.29001
3163.92183,0.28904
3162.89158,0.28770
3161.86132,0.28581
3160.83106,0.28436
3159.80080,0.28328
3158.77055,0.28183
3157.74029,0.28013
3156.71003,0.27869
3155.67977,0.27729
3154.64951,0.27589
3153.61926,0.27448
3152.58900,0.27309
3151.55874,0.27213
3150.52848,0.27120
3149.49822,0.26965
3148.46797,0.26762
3147.43771,0.26585
3146.40745,0.26470
3145.37719,0.26364
3144.34694,0.26225
3143.31668,0.26062
3142.28642,0.25879
3141.25616,0.25708
3140.22590,0.25575
3139.19565,0.25461
3138.16539,0.25359
3137.13513,0.25258
3136.10487,0.25121
3135.07462,0.24953
3134.04436,0.24803
3133.01410,0.24699
3131.98384,0.24596
3130.95358,0.24426
3129.92333,0.24204
3128.89307,0.24013
3127.86281,0.23893
3126.83255,0.23798
3125.80229,0.23664
3124.77204,0.23481
3123.74178,0.23311
3122.71152,0.23191
3121.68126,0.23069
3120.65101,0.22968
3119.62075,0.22880
3118.59049,0.22711
3117.56023,0.22509
3116.52997,0.22354
3115.49972,0.22232
3114.46946,0.22108
3113.43920,0.21946
3112.40894,0.21755
3111.37868,0.21610
3110.34843,0.21512
3109.31817,0.21387
3108.28791,0.21235
3107.25765,0.21110
3106.22740,0.21003
3105.19714,0.20873
3104.16688,0.20749
3103.13662,0.20652
3102.10636,0.20526
3101.07611,0.20385
3100.04585,0.20281
3099.01559,0.20169
3097.98533,0.20011
3096.95507,0.19839
3095.92482,0.19688
3094.89456,0.19589
3093.86430,0.19509
3092.83404,0.19385
3091.80379,0.19218
3090.77353,0.19033
3089.74327,0.18871
3088.71301,0.18766
3087.68275,0.18679
3086.65250,0.18554
3085.62224,0.18392
3084.59198,0.18239
3083.56172,0.18123
3082.53147,0.18013
3081.50121,0.17883
3080.47095,0.17774
3079.44069,0.17696
3078.41043,0.17592
3077.38018,0.17466
3076.34992,0.17371
3075.31966,0.17288
3074.28940,0.17172
3073.25914,0.17023
3072.22889,0.16857
3071.19863,0.16714
3070.16837,0.16626
3069.13811,0.16549
3068.10786,0.16422
3067.07760,0.16265
3066.04734,0.16126
3065.01708,0.16013
3063.98682,0.15914
3062.95657,0.15831
3061.92631,0.15750
3060.89605,0.15661
3059.86579,0.15574
3058.83553,0.15454
3057.80528,0.15319
3056.77502,0.15216
3055.74476,0.15126
3054.71450,0.15023
3053.68425,0.14899
3052.65399,0.14773
3051.62373,0.14635
3050.59347,0.14472
3049.56321,0.14337
3048.53296,0.14260
3047.50270,0.14245
3046.47244,0.14236
3045.44218,0.14159
3044.41192,0.14038
3043.38167,0.13905
3042.35141,0.13768
3041.32115,0.13643
3040.29089,0.13541
3039.26064,0.13472
3038.23038,0.13409
3037.20012,0.13311
3036.16986,0.13193
3035.13960,0.13097
3034.10935,0.13030
3033.07909,0.12955
3032.04883,0.12841
3031.01857,0.12702
3029.98832,0.12574
3028.95806,0.12494
3027.92780,0.12432
3026.89754,0.12326
3025.86728,0.12200
3024.83703,0.12100
3023.80677,0.12012
3022.77651,0.11915
3021.74625,0.11821
3020.71599,0.11750
3019.68574,0.11699
3018.65548,0.11640
3017.62522,0.11579
3016.59496,0.11530
3015.56471,0.11464
3014.53445,0.11370
3013.50419,0.11262
3012.47393,0.11159
3011.44367,0.11073
3010.41342,0.10977
3009.38316,0.10865
3008.35290,0.10783
3007.32264,0.10724
3006.29238,0.10645
3005.26213,0.10558
3004.23187,0.10498
3003.20161,0.10438
3002.17135,0.10357
3001.14110,0.10286
3000.11084,0.10222
2999.08058,0.10152
2998.05032,0.10080
2997.02006,0.09991
2995.98981,0.09884
2994.95955,0.09776
2993.92929,0.09711
2992.89903,0.09695
2991.86877,0.09657
2990.83852,0.09589
2989.80826,0.09527
2988.77800,0.09449
2987.74774,0.09345
2986.71749,0.09249
2985.68723,0.09183
2984.65697,0.09139
2983.62671,0.09096
2982.59645,0.09026
2981.56620,0.08937
2980.53594,0.08857
2979.50568,0.08784
2978.47542,0.08714
2977.44517,0.08637
2976.41491,0.08561
2975.38465,0.08508
2974.35439,0.08459
2973.32413,0.08409
2972.29388,0.08362
2971.26362,0.08291
2970.23336,0.08200
2969.20310,0.08131
2968.17284,0.08094
2967.14259,0.08063
2966.11233,0.08029
2965.08207,0.07989
2964.05181,0.07926
2963.02156,0.07832
2961.99130,0.07731
2960.96104,0.07652
2959.93078,0.07593
2958.90052,0.07547
2957.87027,0.07509
2956.84001,0.07466
2955.80975,0.07405
2954.77949,0.07316
2953.74923,0.07229
2952.71898,0.07197
2951.68872,0.07188
2950.65846,0.07115
2949.62820,0.06994
2948.59795,0.06915
2947.56769,0.06889
2946.53743,0.06846
2945.50717,0.06787
2944.47691,0.06771
2943.44666,0.06761
2942.41640,0.06701
2941.38614,0.06637
2940.35588,0.06597
2939.32562,0.06535
2938.29537,0.06441
2937.26511,0.06357
2936.23485,0.06328
2935.20459,0.06323
2934.17434,0.06261
2933.14408,0.06168
2932.11382,0.06132
2931.08356,0.06149
2930.05330,0.06144
2929.02305,0.06084
2927.99279,0.06005
2926.96253,0.05938
2925.93227,0.05874
2924.90202,0.05829
2923.87176,0.05810
2922.84150,0.05787
2921.81124,0.05774
2920.78098,0.05764
2919.75073,0.05725
2918.72047,0.05661
2917.69021,0.05573
2916.65995,0.05494
2915.62969,0.05468
2914.59944,0.05444
2913.56918,0.05387
2912.53892,0.05337
2911.50866,0.05310
2910.47841,0.05292
2909.44815,0.05286
2908.41789,0.05284
2907.38763,0.05251
2906.35737,0.05169
2905.32712,0.05096
2904.29686,0.05061
2903.26660,0.05033
2902.23634,0.05005
2901.20608,0.04963
2900.17583,0.04882
2899.14557,0.04804
2898.11531,0.04787
2897.08505,0.04829
2896.05480,0.04867
2895.02454,0.04837
2893.99428,0.04766
2892.96402,0.04695
2891.93376,0.04628
2890.90351,0.04593
2889.87325,0.04581
2888.84299,0.04545
2887.81273,0.04480
2886.78247,0.04414
2885.75222,0.04378
2884.72196,0.04371
2883.69170,0.04370
2882.66144,0.04338
2881.63119,0.04285
2880.60093,0.04255
2879.57067,0.04234
2878.54041,0.04201
2877.51015,0.04169
2876.47990,0.04150
2875.44964,0.04158
2874.41938,0.04147
2873.38912,0.04080
2872.35887,0.04028
2871.32861,0.04029
2870.29835,0.04021
2869.26809,0.03991
2868.23783,0.03962
2867.20758,0.03915
2866.17732,0.03831
2865.14706,0.03755
2864.11680,0.03750
2863.08654,0.03784
2862.05629,0.03794
2861.02603,0.03762
2859.99577,0.03717
2858.96551,0.03694
2857.93526,0.03673
2856.90500,0.03636
2855.87474,0.03585
2854.84448,0.03538
2853.81422,0.03511
2852.78397,0.03479
2851.75371,0.03435
2850.72345,0.03411
2849.69319,0.03414
2848.66293,0.03422
2847.63268,0.03413
2846.60242,0.03374
2845.57216,0.03338
2844.54190,0.03328
2843.51165,0.03308
2842.48139,0.03266
2841.45113,0.03222
2840.42087,0.03204
2839.39061,0.03215
2838.36036,0.03214
2837.33010,0.03177
2836.29984,0.03137
2835.26958,0.03117
2834.23933,0.03096
2833.20907,0.03063
2832.17881,0.03050
2831.14855,0.03052
2830.11829,0.03043
2829.08804,0.03032
2828.05778,0.03010
2827.02752,0.02955
2825.99726,0.02903
2824.96700,0.02894
2823.93675,0.02883
2822.90649,0.02851
2821.87623,0.02833
2820.84597,0.02828
2819.81572,0.02818
2818.78546,0.02810
2817.75520,0.02812
2816.72494,0.02806
2815.69468,0.02777
2814.66443,0.02753
2813.63417,0.02747
2812.60391,0.02725
2811.57365,0.02687
2810.54339,0.02654
2809.51314,0.02637
2808.48288,0.02639
2807.45262,0.02649
2806.42236,0.02657
2805.39211,0.02661
2804.36185,0.02647
2803.33159,0.02616
2802.30133,0.02576
2801.27107,0.02547
2800.24082,0.02533
2799.21056,0.02508
2798.18030,0.02483
2797.15004,0.02475
2796.11978,0.02466
2795.08953,0.02451
2794.05927,0.02423
2793.02901,0.02384
2791.99875,0.02360
2790.96850,0.02362
2789.93824,0.02375
2788.90798,0.02377
2787.87772,0.02345
2786.84746,0.02305
2785.81721,0.02289
2784.78695,0.02264
2783.75669,0.02223
2782.72643,0.02210
2781.69618,0.02229
2780.66592,0.02241
2779.63566,0.02210
2778.60540,0.02168
2777.57514,0.02158
2776.54489,0.02159
2775.51463,0.02147
2774.48437,0.02132
2773.45411,0.02120
2772.42385,0.02107
2771.39360,0.02098
2770.36334,0.02104
2769.33308,0.02103
2768.30282,0.02072
2767.27257,0.02057
2766.24231,0.02075
2765.21205,0.02077
2764.18179,0.02040
2763.15153,0.02007
2762.12128,0.02013
2761.09102,0.02015
2760.06076,0.01981
2759.03050,0.01948
2758.00024,0.01931
2756.96999,0.01916
2755.93973,0.01911
2754.90947,0.01916
2753.87921,0.01913
2752.84896,0.01910
2751.81870,0.01906
2750.78844,0.01883
2749.75818,0.01849
2748.72792,0.01827
2747.69767,0.01825
2746.66741,0.01823
2745.63715,0.01804
2744.60689,0.01784
2743.57663,0.01770
2742.54638,0.01752
2741.51612,0.01739
2740.48586,0.01747
2739.45560,0.01756
2738.42535,0.01742
2737.39509,0.01715
2736.36483,0.01696
2735.33457,0.01698
2734.30431,0.01706
2733.27406,0.01698
2732.24380,0.01675
2731.21354,0.01653
2730.18328,0.01625
2729.15303,0.01598
2728.12277,0.01614
2727.09251,0.01654
2726.06225,0.01669
2725.03199,0.01659
2724.00174,0.01637
2722.97148,0.01622
2721.94122,0.01604
2720.91096,0.01562
2719.88070,0.01513
2718.85045,0.01491
2717.82019,0.01509
2716.78993,0.01537
2715.75967,0.01536
2714.72942,0.01521
2713.69916,0.01519
2712.66890,0.01512
2711.63864,0.01494
2710.60838,0.01477
2709.57813,0.01465
2708.54787,0.01467
2707.51761,0.01469
2706.48735,0.01459
2705.45709,0.01463
2704.42684,0.01479
2703.39658,0.01483
2702.36632,0.01475
2701.33606,0.01471
2700.30581,0.01474
2699.27555,0.01465
2698.24529,0.01448
2697.21503,0.01426
2696.18477,0.01394
2695.15452,0.01378
2694.12426,0.01396
2693.09400,0.01422
2692.06374,0.01417
2691.03348,0.01390
2690.00323,0.01381
2688.97297,0.01383
2687.94271,0.01364
2686.91245,0.01330
2685.88220,0.01317
2684.85194,0.01334
2683.82168,0.01341
2682.79142,0.01319
2681.76116,0.01311
2680.73091,0.01329
2679.70065,0.01337
2678.67039,0.01327
2677.64013,0.01297
2676.60988,0.01253
2675.57962,0.01229
2674.54936,0.01250
2673.51910,0.01284
2672.48884,0.01276
2671.45859,0.01240
2670.42833,0.01236
2669.39807,0.01271
2668.36781,0.01289
2667.33755,0.01282
2666.30730,0.01265
2665.27704,0.01232
2664.24678,0.01206
2663.21652,0.01201
2662.18627,0.01207
2661.15601,0.01229
2660.12575,0.01254
2659.09549,0.01252
2658.06523,0.01232
2657.03498,0.01217
2656.00472,0.01203
2654.97446,0.01178
2653.94420,0.01148
2652.91394,0.01121
2651.88369,0.01105
2650.85343,0.01121
2649.82317,0.01159
2648.79291,0.01168
2647.76266,0.01144
2646.73240,0.01117
2645.70214,0.01095
2644.67188,0.01096
2643.64162,0.01115
2642.61137,0.01106
2641.58111,0.01063
2640.55085,0.01045
2639.52059,0.01055
2638.49033,0.01078
2637.46008,0.01114
2636.42982,0.01139
2635.39956,0.01131
2634.36930,0.01117
2633.33905,0.01117
2632.30879,0.01120
2631.27853,0.01124
2630.24827,0.01131
2629.21801,0.01121
2628.18776,0.01103
2627.15750,0.01096
2626.12724,0.01100
2625.09698,0.01093
2624.06673,0.01064
2623.03647,0.01037
2622.00621,0.01041
2620.97595,0.01078
2619.94569,0.01115
2618.91544,0.01095
2617.88518,0.01037
2616.85492,0.01008
2615.82466,0.01004
2614.79440,0.01013
2613.76415,0.01032
2612.73389,0.01025
2611.70363,0.01003
2610.67337,0.01034
2609.64312,0.01085
2608.61286,0.01076
2607.58260,0.01010
2606.55234,0.00975
2605.52208,0.00998
2604.49183,0.01010
2603.46157,0.01021
2602.43131,0.01055
2601.40105,0.01049
2600.37079,0.01011
2599.34054,0.00986
2598.31028,0.00982
2597.28002,0.01000
2596.24976,0.01027
2595.21951,0.01042
2594.18925,0.01021
2593.15899,0.00979
2592.12873,0.00946
2591.09847,0.00948
2590.06822,0.00988
2589.03796,0.00982
2588.00770,0.00919
2586.97744,0.00902
2585.94718,0.00945
2584.91693,0.01000
2583.88667,0.01009
2582.85641,0.00970
2581.82615,0.00951
2580.79590,0.00963
2579.76564,0.00950
2578.73538,0.00925
2577.70512,0.00958
2576.67486,0.01041
2575.64461,0.01077
2574.61435,0.01017
2573.58409,0.00944
2572.55383,0.00941
2571.52358,0.00964
2570.49332,0.00993
2569.46306,0.01049
2568.43280,0.01057
2567.40254,0.00995
2566.37229,0.00978
2565.34203,0.01010
2564.31177,0.01001
2563.28151,0.00966
2562.25125,0.00955
2561.22100,0.00965
2560.19074,0.00978
2559.16048,0.01000
2558.13022,0.01023
2557.09997,0.01005
2556.06971,0.00970
2555.03945,0.00966
2554.00919,0.00983
2552.97893,0.00980
2551.94868,0.00956
2550.91842,0.00942
2549.88816,0.00939
2548.85790,0.00964
2547.82764,0.00989
2546.79739,0.00967
2545.76713,0.00951
2544.73687,0.00977
2543.70661,0.00998
2542.67636,0.00982
2541.64610,0.00978
2540.61584,0.00997
2539.58558,0.01006
2538.55532,0.01001
2537.52507,0.00971
2536.49481,0.00937
2535.46455,0.00942
2534.43429,0.00954
2533.40403,0.00943
2532.37378,0.00929
2531.34352,0.00935
2530.31326,0.00969
2529.28300,0.00999
2528.25275,0.01015
2527.22249,0.01030
2526.19223,0.01034
2525.16197,0.01034
2524.13171,0.01034
2523.10146,0.01017
2522.07120,0.01006
2521.04094,0.01009
2520.01068,0.01002
2518.98043,0.01006
2517.95017,0.01011
2516.91991,0.00976
2515.88965,0.00963
2514.85939,0.00990
2513.82914,0.00974
2512.79888,0.00926
2511.76862,0.00911
2510.73836,0.00930
2509.70810,0.00954
2508.67785,0.00970
2507.64759,0.00964
2506.61733,0.00960
2505.58707,0.00970
2504.55682,0.00979
2503.52656,0.01001
2502.49630,0.01002
2501.46604,0.00965
2500.43578,0.00978
2499.40553,0.01047
2498.37527,0.01079
2497.34501,0.01061
2496.31475,0.01031
2495.28449,0.01018
2494.25424,0.01034
2493.22398,0.01041
2492.19372,0.01052
2491.16346,0.01080
2490.13321,0.01075
2489.10295,0.01044
2488.07269,0.01061
2487.04243,0.01120
2486.01217,0.01103
2484.98192,0.01025
2483.95166,0.01014
2482.92140,0.01043
2481.89114,0.01052
2480.86088,0.01061
2479.83063,0.01046
2478.80037,0.01009
2477.77011,0.01016
2476.73985,0.01065
2475.70960,0.01125
2474.67934,0.01147
2473.64908,0.01120
2472.61882,0.01124
2471.58856,0.01179
2470.55831,0.01226
2469.52805,0.01218
2468.49779,0.01143
2467.46753,0.01060
2466.43728,0.01044
2465.40702,0.01082
2464.37676,0.01113
2463.34650,0.01116
2462.31624,0.01110
2461.28599,0.01110
2460.25573,0.01100
2459.22547,0.01102
2458.19521,0.01135
2457.16495,0.01163
2456.13470,0.01157
2455.10444,0.01114
2454.07418,0.01069
2453.04392,0.01052
2452.01367,0.01070
2450.98341,0.01128
2449.95315,0.01180
2448.92289,0.01158
2447.89263,0.01101
2446.86238,0.01112
2445.83212,0.01169
2444.80186,0.01190
2443.77160,0.01164
2442.74134,0.01138
2441.71109,0.01123
2440.68083,0.01108
2439.65057,0.01111
2438.62031,0.01145
2437.59006,0.01236
2436.55980,0.01317
2435.52954,0.01280
2434.49928,0.01181
2433.46902,0.01110
2432.43877,0.01077
2431.40851,0.01098
2430.37825,0.01164
2429.34799,0.01235
2428.31774,0.01283
2427.28748,0.01286
2426.25722,0.01263
2425.22696,0.01239
2424.19670,0.01234
2423.16645,0.01238
2422.13619,0.01217
2421.10593,0.01184
2420.07567,0.01202
2419.04541,0.01259
2418.01516,0.01268
2416.98490,0.01232
2415.95464,0.01190
2414.92438,0.01151
2413.89413,0.01144
2412.86387,0.01171
2411.83361,0.01196
2410.80335,0.01247
2409.77309,0.01309
2408.74284,0.01296
2407.71258,0.01243
2406.68232,0.01236
2405.65206,0.01241
2404.62180,0.01235
2403.59155,0.01256
2402.56129,0.01302
2401.53103,0.01350
2400.50077,0.01370
2399.47052,0.01351
2398.44026,0.01310
2397.41000,0.01267
2396.37974,0.01276
2395.34948,0.01333
2394.31923,0.01353
2393.28897,0.01322
2392.25871,0.01290
2391.22845,0.01274
2390.19819,0.01285
2389.16794,0.01309
2388.13768,0.01329
2387.10742,0.01378
2386.07716,0.01432
2385.04691,0.01432
2384.01665,0.01392
2382.98639,0.01370
2381.95613,0.01396
2380.92587,0.01414
2379.89562,0.01373
2378.86536,0.01341
2377.83510,0.01379
2376.80484,0.01452
2375.77459,0.01494
2374.74433,0.01486
2373.71407,0.01460
2372.68381,0.01464
2371.65355,0.01503
2370.62330,0.01533
2369.59304,0.01521
2368.56278,0.01503
2367.53252,0.01546
2366.50226,0.01639
2365.47201,0.01743
2364.44175,0.01822
2363.41149,0.01809
2362.38123,0.01710
2361.35098,0.01638
2360.32072,0.01627
2359.29046,0.01607
2358.26020,0.01537
2357.22994,0.01394
2356.19969,0.01300
2355.16943,0.01339
2354.13917,0.01408
2353.10891,0.01480
2352.07865,0.01551
2351.04840,0.01582
2350.01814,0.01584
2348.98788,0.01572
2347.95762,0.01543
2346.92737,0.01491
2345.89711,0.01427
2344.86685,0.01380
2343.83659,0.01400
2342.80633,0.01474
2341.77608,0.01550
2340.74582,0.01590
2339.71556,0.01563
2338.68530,0.01551
2337.65504,0.01621
2336.62479,0.01699
2335.59453,0.01675
2334.56427,0.01593
2333.53401,0.01558
2332.50376,0.01541
2331.47350,0.01537
2330.44324,0.01619
2329.41298,0.01741
2328.38272,0.01764
2327.35247,0.01667
2326.32221,0.01573
2325.29195,0.01563
2324.26169,0.01598
2323.23144,0.01654
2322.20118,0.01723
2321.17092,0.01744
2320.14066,0.01688
2319.11040,0.01601
2318.08015,0.01554
2317.04989,0.01565
2316.01963,0.01608
2314.98937,0.01653
2313.95911,0.01641
2312.92886,0.01556
2311.89860,0.01480
2310.86834,0.01464
2309.83808,0.01492
2308.80783,0.01556
2307.77757,0.01635
2306.74731,0.01683
2305.71705,0.01699
2304.68679,0.01718
2303.65654,0.01742
2302.62628,0.01732
2301.59602,0.01697
2300.56576,0.01685
2299.53550,0.01680
2298.50525,0.01669
2297.47499,0.01672
2296.44473,0.01683
2295.41447,0.01711
2294.38422,0.01731
2293.35396,0.01705
2292.32370,0.01675
2291.29344,0.01706
2290.26318,0.01781
2289.23293,0.01813
2288.20267,0.01781
2287.17241,0.01759
2286.14215,0.01763
2285.11189,0.01736
2284.08164,0.01679
2283.05138,0.01653
2282.02112,0.01696
2280.99086,0.01711
2279.96061,0.01659
2278.93035,0.01690
2277.90009,0.01759
2276.86983,0.01719
2275.83957,0.01692
2274.80932,0.01779
2273.77906,0.01853
2272.74880,0.01809
2271.71854,0.01709
2270.68829,0.01674
2269.65803,0.01718
2268.62777,0.01749
2267.59751,0.01735
2266.56725,0.01738
2265.53700,0.01780
2264.50674,0.01806
2263.47648,0.01766
2262.44622,0.01733
2261.41596,0.01791
2260.38571,0.01844
2259.35545,0.01839
2258.32519,0.01823
2257.29493,0.01815
2256.26468,0.01828
2255.23442,0.01848
2254.20416,0.01847
2253.17390,0.01902
2252.14364,0.01983
2251.11339,0.01966
2250.08313,0.01936
2249.05287,0.01921
2248.02261,0.01890
2246.99235,0.01911
2245.96210,0.01945
2244.93184,0.01965
2243.90158,0.02014
2242.87132,0.02004
2241.84107,0.01914
2240.81081,0.01859
2239.78055,0.01889
2238.75029,0.01932
2237.72003,0.01903
2236.68978,0.01844
2235.65952,0.01801
2234.62926,0.01782
2233.59900,0.01797
2232.56874,0.01808
2231.53849,0.01852
2230.50823,0.01977
2229.47797,0.02087
2228.44771,0.02157
2227.41746,0.02221
2226.38720,0.02183
2225.35694,0.02096
2224.32668,0.02083
2223.29642,0.02051
2222.26617,0.01996
2221.23591,0.02015
2220.20565,0.02057
2219.17539,0.02066
2218.14514,0.02061
2217.11488,0.02017
2216.08462,0.01948
2215.05436,0.01926
2214.02410,0.01952
2212.99385,0.01987
2211.96359,0.02004
2210.93333,0.02010
2209.90307,0.02011
2208.87281,0.01989
2207.84256,0.01989
2206.81230,0.02045
2205.78204,0.02116
2204.75178,0.02112
2203.72153,0.02031
2202.69127,0.01988
2201.66101,0.01981
2200.63075,0.01927
2199.60049,0.01921
2198.57024,0.02052
2197.53998,0.02143
2196.50972,0.02120
2195.47946,0.02085
2194.44920,0.02077
2193.41895,0.02036
2192.38869,0.01912
2191.35843,0.01857
2190.32817,0.02028
2189.29792,0.02296
2188.26766,0.02395
2187.23740,0.02291
2186.20714,0.02193
2185.17688,0.02201
2184.14663,0.02211
2183.11637,0.02203
2182.08611,0.02146
2181.05585,0.02077
2180.02559,0.02203
2178.99534,0.02388
2177.96508,0.02421
2176.93482,0.02379
2175.90456,0.02352
2174.87431,0.02262
2173.84405,0.02093
2172.81379,0.02043
2171.78353,0.02126
2170.75327,0.02256
2169.72302,0.02332
2168.69276,0.02230
2167.66250,0.02138
2166.63224,0.02191
2165.60199,0.02301
2164.57173,0.02425
2163.54147,0.02358
2162.51121,0.02096
2161.48095,0.02069
2160.45070,0.02327
2159.42044,0.02500
2158.39018,0.02443
2157.35992,0.02220
2156.32966,0.02046
2155.29941,0.02081
2154.26915,0.02227
2153.23889,0.02287
2152.20863,0.02177
2151.17838,0.02158
2150.14812,0.02366
2149.11786,0.02430
2148.08760,0.02287
2147.05734,0.02290
2146.02709,0.02363
2144.99683,0.02299
2143.96657,0.02281
2142.93631,0.02364
2141.90605,0.02375
2140.87580,0.02277
2139.84554,0.02221
2138.81528,0.02374
2137.78502,0.02507
2136.75477,0.02416
2135.72451,0.02305
2134.69425,0.02248
2133.66399,0.02211
2132.63373,0.02217
2131.60348,0.02239
2130.57322,0.02334
2129.54296,0.02470
2128.51270,0.02456
2127.48244,0.02357
2126.45219,0.02352
2125.42193,0.02428
2124.39167,0.02467
2123.36141,0.02370
2122.33116,0.02284
2121.30090,0.02339
2120.27064,0.02372
2119.24038,0.02376
2118.21012,0.02537
2117.17987,0.02712
2116.14961,0.02651
2115.11935,0.02494
2114.08909,0.02474
2113.05884,0.02554
2112.02858,0.02587
2110.99832,0.02548
2109.96806,0.02502
2108.93780,0.02519
2107.90755,0.02548
2106.87729,0.02437
2105.84703,0.02301
2104.81677,0.02305
2103.78651,0.02353
2102.75626,0.02337
2101.72600,0.02282
2100.69574,0.02271
2099.66548,0.02317
2098.63523,0.02372
2097.60497,0.02402
2096.57471,0.02392
2095.54445,0.02361
2094.51419,0.02384
2093.48394,0.02454
2092.45368,0.02454
2091.42342,0.02367
2090.39316,0.02279
2089.36290,0.02262
2088.33265,0.02327
2087.30239,0.02406
2086.27213,0.02370
2085.24187,0.02251
2084.21162,0.02223
2083.18136,0.02264
2082.15110,0.02290
2081.12084,0.02343
2080.09058,0.02421
2079.06033,0.02449
2078.03007,0.02434
2076.99981,0.02412
2075.96955,0.02377
2074.93930,0.02286
2073.90904,0.02232
2072.87878,0.02374
2071.84852,0.02501
2070.81826,0.02431
2069.78801,0.02343
2068.75775,0.02334
2067.72749,0.02347
2066.69723,0.02323
2065.66697,0.02291
2064.63672,0.02278
2063.60646,0.02275
2062.57620,0.02319
2061.54594,0.02355
2060.51569,0.02289
2059.48543,0.02229
2058.45517,0.02362
2057.42491,0.02553
2056.39465,0.02520
2055.36440,0.02354
2054.33414,0.02260
2053.30388,0.02223
2052.27362,0.02205
2051.24336,0.02245
2050.21311,0.02305
2049.18285,0.02267
2048.15259,0.02262
2047.12233,0.02296
2046.09208,0.02175
2045.06182,0.02036
2044.03156,0.02080
2043.00130,0.02243
2041.97104,0.02250
2040.94079,0.02043
2039.91053,0.01982
2038.88027,0.02132
2037.85001,0.02116
2036.81975,0.01929
2035.78950,0.01850
2034.75924,0.01934
2033.72898,0.01994
2032.69872,0.01897
2031.66847,0.01922
2030.63821,0.02167
2029.60795,0.02258
2028.57769,0.02113
2027.54743,0.01950
2026.51718,0.01895
2025.48692,0.01947
2024.45666,0.01909
2023.42640,0.01782
2022.39615,0.01761
2021.36589,0.01792
2020.33563,0.01784
2019.30537,0.01747
2018.27511,0.01802
2017.24486,0.01971
2016.21460,0.02014
2015.18434,0.01967
2014.15408,0.01970
2013.12382,0.01961
2012.09357,0.01922
2011.06331,0.01846
2010.03305,0.01743
2009.00279,0.01722
2007.97254,0.01890
2006.94228,0.02138
2005.91202,0.02231
2004.88176,0.02133
2003.85150,0.02013
2002.82125,0.01984
2001.79099,0.01967
2000.76073,0.01925
1999.73047,0.01870
1998.70021,0.01834
1997.66996,0.01836
1996.63970,0.01785
1995.60944,0.01705
1994.57918,0.01676
1993.54893,0.01603
1992.51867,0.01529
1991.48841,0.01635
1990.45815,0.01805
1989.42789,0.01902
1988.39764,0.01904
1987.36738,0.01842
1986.33712,0.01723
1985.30686,0.01558
1984.27660,0.01530
1983.24635,0.01661
1982.21609,0.01756
1981.18583,0.01649
1980.15557,0.01430
1979.12532,0.01416
1978.09506,0.01602
1977.06480,0.01660
1976.03454,0.01487
1975.00428,0.01243
1973.97403,0.01160
1972.94377,0.01302
1971.91351,0.01446
1970.88325,0.01457
1969.85300,0.01431
1968.82274,0.01466
1967.79248,0.01509
1966.76222,0.01442
1965.73196,0.01398
1964.70171,0.01536
1963.67145,0.01724
1962.64119,0.01768
1961.61093,0.01675
1960.58067,0.01590
1959.55042,0.01560
1958.52016,0.01496
1957.48990,0.01411
1956.45964,0.01355
1955.42939,0.01346
1954.39913,0.01454
1953.36887,0.01554
1952.33861,0.01537
1951.30835,0.01513
1950.27810,0.01511
1949.24784,0.01491
1948.21758,0.01460
1947.18732,0.01465
1946.15706,0.01544
1945.12681,0.01690
1944.09655,0.01809
1943.06629,0.01759
1942.03603,0.01619
1941.00578,0.01584
1939.97552,0.01598
1938.94526,0.01541
1937.91500,0.01493
1936.88474,0.01559
1935.85449,0.01577
1934.82423,0.01486
1933.79397,0.01447
1932.76371,0.01464
1931.73345,0.01496
1930.70320,0.01550
1929.67294,0.01558
1928.64268,0.01482
1927.61242,0.01438
1926.58217,0.01515
1925.55191,0.01600
1924.52165,0.01617
1923.49139,0.01584
1922.46113,0.01525
1921.43088,0.01495
1920.40062,0.01491
1919.37036,0.01463
1918.34010,0.01448
1917.30985,0.01531
1916.27959,0.01593
1915.24933,0.01591
1914.21907,0.01592
1913.18881,0.01545
1912.15856,0.01470
1911.12830,0.01470
1910.09804,0.01513
1909.06778,0.01548
1908.03752,0.01593
1907.00727,0.01603
1905.97701,0.01571
1904.94675,0.01571
1903.91649,0.01570
1902.88624,0.01504
1901.85598,0.01411
1900.82572,0.01367
1899.79546,0.01399
1898.76520,0.01436
1897.73495,0.01446
1896.70469,0.01463
1895.67443,0.01493
1894.64417,0.01540
1893.61391,0.01566
1892.58366,0.01577
1891.55340,0.01584
1890.52314,0.01543
1889.49288,0.01492
1888.46263,0.01479
1887.43237,0.01493
1886.40211,0.01523
1885.37185,0.01528
1884.34159,0.01499
1883.31134,0.01478
1882.28108,0.01482
1881.25082,0.01503
1880.22056,0.01543
1879.19030,0.01573
1878.16005,0.01538
1877.12979,0.01485
1876.09953,0.01471
1875.06927,0.01482
1874.03902,0.01511
1873.00876,0.01540
1871.97850,0.01527
1870.94824,0.01513
1869.91798,0.01541
1868.88773,0.01520
1867.85747,0.01462
1866.82721,0.01472
1865.79695,0.01488
1864.76670,0.01482
1863.73644,0.01528
1862.70618,0.01610
1861.67592,0.01631
1860.64566,0.01572
1859.61541,0.01533
1858.58515,0.01547
1857.55489,0.01547
1856.52463,0.01542
1855.49437,0.01564
1854.46412,0.01576
1853.43386,0.01577
1852.40360,0.01593
1851.37334,0.01583
1850.34309,0.01527
1849.31283,0.01500
1848.28257,0.01517
1847.25231,0.01526
1846.22205,0.01525
1845.19180,0.01529
1844.16154,0.01571
1843.13128,0.01635
1842.10102,0.01642
1841.07076,0.01609
1840.04051,0.01590
1839.01025,0.01601
1837.97999,0.01614
1836.94973,0.01610
1835.91948,0.01602
1834.88922,0.01613
1833.85896,0.01651
1832.82870,0.01705
1831.79844,0.01731
1830.76819,0.01696
1829.73793,0.01626
1828.70767,0.01622
1827.67741,0.01675
1826.64715,0.01693
1825.61690,0.01668
1824.58664,0.01643
1823.55638,0.01645
1822.52612,0.01678
1821.49587,0.01714
1820.46561,0.01726
1819.43535,0.01742
1818.40509,0.01771
1817.37483,0.01800
1816.34458,0.01822
1815.31432,0.01803
1814.28406,0.01783
1813.25380,0.01805
1812.22355,0.01819
1811.19329,0.01809
1810.16303,0.01799
1809.13277,0.01794
1808.10251,0.01809
1807.07226,0.01825
1806.04200,0.01818
1805.01174,0.01836
1803.98148,0.01872
1802.95122,0.01863
1801.92097,0.01848
1800.89071,0.01883
1799.86045,0.01922
1798.83019,0.01935
1797.79994,0.01937
1796.76968,0.01942
1795.73942,0.01972
1794.70916,0.01996
1793.67890,0.01985
1792.64865,0.01962
1791.61839,0.01975
1790.58813,0.02018
1789.55787,0.02038
1788.52761,0.02029
1787.49736,0.02022
1786.46710,0.02043
1785.43684,0.02093
1784.40658,0.02129
1783.37633,0.02121
1782.34607,0.02106
1781.31581,0.02113
1780.28555,0.02140
1779.25529,0.02167
1778.22504,0.02180
1777.19478,0.02185
1776.16452,0.02186
1775.13426,0.02200
1774.10400,0.02224
1773.07375,0.02252
1772.04349,0.02290
1771.01323,0.02317
1769.98297,0.02325
1768.95272,0.02311
1767.92246,0.02301
1766.89220,0.02325
1765.86194,0.02348
1764.83168,0.02376
1763.80143,0.02420
1762.77117,0.02443
1761.74091,0.02465
1760.71065,0.02521
1759.68040,0.02574
1758.65014,0.02608
1757.61988,0.02623
1756.58962,0.02632
1755.55936,0.02664
1754.52911,0.02716
1753.49885,0.02758
1752.46859,0.02785
1751.43833,0.02815
1750.40807,0.02838
1749.37782,0.02871
1748.34756,0.02931
1747.31730,0.02984
1746.28704,0.03021
1745.25679,0.03073
1744.22653,0.03123
1743.19627,0.03138
1742.16601,0.03142
1741.13575,0.03172
1740.10550,0.03251
1739.07524,0.03351
1738.04498,0.03407
1737.01472,0.03434
1735.98446,0.03445
1734.95421,0.03448
1733.92395,0.03518
1732.89369,0.03671
1731.86343,0.03780
1730.83318,0.03854
1729.80292,0.03899
1728.77266,0.03926
1727.74240,0.03967
1726.71214,0.04030
1725.68189,0.04124
1724.65163,0.04234
1723.62137,0.04337
1722.59111,0.04436
1721.56085,0.04508
1720.53060,0.04564
1719.50034,0.04648
1718.47008,0.04749
1717.43982,0.04835
1716.40957,0.04929
1715.37931,0.05065
1714.34905,0.05216
1713.31879,0.05322
1712.28853,0.05395
1711.25828,0.05491
1710.22802,0.05623
1709.19776,0.05763
1708.16750,0.05892
1707.13725,0.06013
1706.10699,0.06149
1705.07673,0.06315
1704.04647,0.06488
1703.01621,0.06631
1701.98596,0.06744
1700.95570,0.06844
1699.92544,0.06997
1698.89518,0.07182
1697.86492,0.07336
1696.83467,0.07494
1695.80441,0.07676
1694.77415,0.07840
1693.74389,0.08007
1692.71364,0.08214
1691.68338,0.08432
1690.65312,0.08634
1689.62286,0.08810
1688.59260,0.08987
1687.56235,0.09194
1686.53209,0.09384
1685.50183,0.09554
1684.47157,0.09800
1683.44131,0.10065
1682.41106,0.10258
1681.38080,0.10461
1680.35054,0.10677
1679.32028,0.10895
1678.29003,0.11112
1677.25977,0.11327
1676.22951,0.11532
1675.19925,0.11758
1674.16899,0.11977
1673.13874,0.12142
1672.10848,0.12314
1671.07822,0.12534
1670.04796,0.12788
1669.01771,0.13064
1667.98745,0.13323
1666.95719,0.13550
1665.92693,0.13769
1664.89667,0.13991
1663.86642,0.14225
1662.83616,0.14460
1661.80590,0.14684
1660.77564,0.14890
1659.74538,0.15091
1658.71513,0.15315
1657.68487,0.15569
1656.65461,0.15812
1655.62435,0.16012
1654.59410,0.16180
1653.56384,0.16321
1652.53358,0.16493
1651.50332,0.16721
1650.47306,0.16934
1649.44281,0.17112
1648.41255,0.17272
1647.38229,0.17454
1646.35203,0.17638
1645.32177,0.17782
1644.29152,0.17905
1643.26126,0.17999
1642.23100,0.18087
1641.20074,0.18203
1640.17049,0.18294
1639.14023,0.18348
1638.10997,0.18391
1637.07971,0.18402
1636.04945,0.18351
1635.01920,0.18284
1633.98894,0.18280
1632.95868,0.18269
1631.92842,0.18193
1630.89816,0.18089
1629.86791,0.17983
1628.83765,0.17869
1627.80739,0.17709
1626.77713,0.17519
1625.74688,0.17358
1624.71662,0.17207
1623.68636,0.16979
1622.65610,0.16683
1621.62584,0.16470
1620.59559,0.16280
1619.56533,0.16077
1618.53507,0.15918
1617.50481,0.15750
1616.47456,0.15374
1615.44430,0.15017
1614.41404,0.14815
1613.38378,0.14596
1612.35352,0.14348
1611.32327,0.14103
1610.29301,0.13852
1609.26275,0.13588
1608.23249,0.13340
1607.20223,0.13108
1606.17198,0.12876
1605.14172,0.12641
1604.11146,0.12418
1603.08120,0.12189
1602.05095,0.11942
1601.02069,0.11705
1599.99043,0.11505
1598.96017,0.11336
1597.92991,0.11161
1596.89966,0.10972
1595.86940,0.10789
1594.83914,0.10616
1593.80888,0.10441
1592.77862,0.10274
1591.74837,0.10112
1590.71811,0.09963
1589.68785,0.09827
1588.65759,0.09695
1587.62734,0.09560
1586.59708,0.09414
1585.56682,0.09270
1584.53656,0.09143
1583.50630,0.09020
1582.47605,0.08898
1581.44579,0.08803
1580.41553,0.08722
1579.38527,0.08625
1578.35501,0.08519
1577.32476,0.08426
1576.29450,0.08288
1575.26424,0.08135
1574.23398,0.08061
1573.20373,0.08008
1572.17347,0.07954
1571.14321,0.07894
1570.11295,0.07800
1569.08269,0.07676
1568.05244,0.07581
1567.02218,0.07507
1565.99192,0.07456
1564.96166,0.07404
1563.93141,0.07324
1562.90115,0.07263
1561.87089,0.07230
1560.84063,0.07190
1559.81037,0.07126
1558.78012,0.07042
1557.74986,0.06925
1556.71960,0.06873
1555.68934,0.06874
1554.65908,0.06855
1553.62883,0.06801
1552.59857,0.06770
1551.56831,0.06737
1550.53805,0.06670
1549.50780,0.06612
1548.47754,0.06581
1547.44728,0.06547
1546.41702,0.06511
1545.38676,0.06460
1544.35651,0.06417
1543.32625,0.06406
1542.29599,0.06373
1541.26573,0.06337
1540.23547,0.06319
1539.20522,0.06256
1538.17496,0.06191
1537.14470,0.06169
1536.11444,0.06148
1535.08419,0.06109
1534.05393,0.06053
1533.02367,0.06007
1531.99341,0.05997
1530.96315,0.05991
1529.93290,0.05983
1528.90264,0.05982
1527.87238,0.05977
1526.84212,0.05951
1525.81186,0.05897
1524.78161,0.05845
1523.75135,0.05836
1522.72109,0.05826
1521.69083,0.05771
1520.66058,0.05724
1519.63032,0.05739
1518.60006,0.05761
1517.56980,0.05743
1516.53954,0.05692
1515.50929,0.05650
1514.47903,0.05604
1513.44877,0.05579
1512.41851,0.05596
1511.38826,0.05617
1510.35800,0.05622
1509.32774,0.05613
1508.29748,0.05591
1507.26722,0.05559
1506.23697,0.05525
1505.20671,0.05521
1504.17645,0.05531
1503.14619,0.05534
1502.11593,0.05522
1501.08568,0.05494
1500.05542,0.05459
1499.02516,0.05428
1497.99490,0.05416
1496.96465,0.05402
1495.93439,0.05367
1494.90413,0.05353
1493.87387,0.05359
1492.84361,0.05364
1491.81336,0.05366
1490.78310,0.05352
1489.75284,0.05325
1488.72258,0.05310
1487.69232,0.05298
1486.66207,0.05290
1485.63181,0.05301
1484.60155,0.05303
1483.57129,0.05293
1482.54104,0.05287
1481.51078,0.05264
1480.48052,0.05236
1479.45026,0.05231
1478.42000,0.05228
1477.38975,0.05205
1476.35949,0.05175
1475.32923,0.05170
1474.29897,0.05191
1473.26871,0.05203
1472.23846,0.05195
1471.20820,0.05204
1470.17794,0.05212
1469.14768,0.05188
1468.11743,0.05141
1467.08717,0.05111
1466.05691,0.05102
1465.02665,0.05087
1463.99639,0.05088
1462.96614,0.05103
1461.93588,0.05102
1460.90562,0.05083
1459.87536,0.05056
1458.84511,0.05036
1457.81485,0.05039
1456.78459,0.05047
1455.75433,0.05037
1454.72407,0.05016
1453.69382,0.04994
1452.66356,0.04992
1451.63330,0.05008
1450.60304,0.05004
1449.57278,0.04982
1448.54253,0.04966
1447.51227,0.04975
1446.48201,0.04988
1445.45175,0.04992
1444.42150,0.05003
1443.39124,0.05002
1442.36098,0.04982
1441.33072,0.04975
1440.30046,0.04993
1439.27021,0.05011
1438.23995,0.05008
1437.20969,0.04965
1436.17943,0.04901
1435.14917,0.04898
1434.11892,0.04912
1433.08866,0.04901
1432.05840,0.04885
1431.02814,0.04892
1429.99789,0.04905
1428.96763,0.04902
1427.93737,0.04890
1426.90711,0.04890
1425.87685,0.04896
1424.84660,0.04879
1423.81634,0.04855
1422.78608,0.04852
1421.75582,0.04851
1420.72556,0.04841
1419.69531,0.04833
1418.66505,0.04852
1417.63479,0.04870
1416.60453,0.04853
1415.57428,0.04838
1414.54402,0.04854
1413.51376,0.04877
1412.48350,0.04885
1411.45324,0.04869
1410.42299,0.04835
1409.39273,0.04807
1408.36247,0.04809
1407.33221,0.04828
1406.30196,0.04830
1405.27170,0.04817
1404.24144,0.04817
1403.21118,0.04820
1402.18092,0.04807
1401.15067,0.04795
1400.12041,0.04784
1399.09015,0.04760
1398.05989,0.04752
1397.02963,0.04783
1395.99938,0.04812
1394.96912,0.04805
1393.93886,0.04795
1392.90860,0.04795
1391.87835,0.04786
1390.84809,0.04774
1389.81783,0.04770
1388.78757,0.04757
1387.75731,0.04738
1386.72706,0.04746
1385.69680,0.04766
1384.66654,0.04771
1383.63628,0.04767
1382.60602,0.04764
1381.57577,0.04774
1380.54551,0.04777
1379.51525,0.04767
1378.48499,0.04762
1377.45474,0.04760
1376.42448,0.04748
1375.39422,0.04727
1374.36396,0.04706
1373.33370,0.04712
1372.30345,0.04739
1371.27319,0.04756
1370.24293,0.04755
1369.21267,0.04757
1368.18241,0.04763
1367.15216,0.04756
1366.12190,0.04750
1365.09164,0.04770
1364.06138,0.04787
1363.03113,0.04766
1362.00087,0.04745
1360.97061,0.04755
1359.94035,0.04770
1358.91009,0.04776
1357.87984,0.04768
1356.84958,0.04763
1355.81932,0.04770
1354.78906,0.04766
1353.75881,0.04745
1352.72855,0.04722
1351.69829,0.04719
1350.66803,0.04738
1349.63777,0.04750
1348.60752,0.04733
1347.57726,0.04712
1346.54700,0.04716
1345.51674,0.04718
1344.48648,0.04702
1343.45623,0.04693
1342.42597,0.04704
1341.39571,0.04722
1340.36545,0.04728
1339.33520,0.04719
1338.30494,0.04712
1337.27468,0.04727
1336.24442,0.04752
1335.21416,0.04746
1334.18391,0.04697
1333.15365,0.04668
1332.12339,0.04700
1331.09313,0.04737
1330.06287,0.04746
1329.03262,0.04750
1328.00236,0.04762
1326.97210,0.04770
1325.94184,0.04773
1324.91159,0.04766
1323.88133,0.04743
1322.85107,0.04732
1321.82081,0.04739
1320.79055,0.04738
1319.76030,0.04726
1318.73004,0.04720
1317.69978,0.04728
1316.66952,0.04752
1315.63927,0.04773
1314.60901,0.04770
1313.57875,0.04765
1312.54849,0.04768
1311.51823,0.04782
1310.48798,0.04795
1309.45772,0.04796
1308.42746,0.04802
1307.39720,0.04811
1306.36694,0.04803
1305.33669,0.04780
1304.30643,0.04750
1303.27617,0.04742
1302.24591,0.04762
1301.21566,0.04777
1300.18540,0.04787
1299.15514,0.04797
1298.12488,0.04792
1297.09462,0.04774
1296.06437,0.04769
1295.03411,0.04786
1294.00385,0.04797
1292.97359,0.04783
1291.94333,0.04750
1290.91308,0.04739
1289.88282,0.04755
1288.85256,0.04774
1287.82230,0.04806
1286.79205,0.04840
1285.76179,0.04842
1284.73153,0.04818
1283.70127,0.04797
1282.67101,0.04796
1281.64076,0.04807
1280.61050,0.04821
1279.58024,0.04825
1278.54998,0.04819
1277.51972,0.04816
1276.48947,0.04817
1275.45921,0.04818
1274.42895,0.04807
1273.39869,0.04779
1272.36844,0.04773
1271.33818,0.04805
1270.30792,0.04846
1269.27766,0.04863
1268.24740,0.04856
1267.21715,0.04853
1266.18689,0.04853
1265.15663,0.04861
1264.12637,0.04880
1263.09612,0.04886
1262.06586,0.04901
1261.03560,0.04935
1260.00534,0.04937
1258.97508,0.04914
1257.94483,0.04926
1256.91457,0.04958
1255.88431,0.04974
1254.85405,0.04986
1253.82379,0.04990
1252.79354,0.04973
1251.76328,0.04958
1250.73302,0.04952
1249.70276,0.04927
1248.67251,0.04904
1247.64225,0.04928
1246.61199,0.04987
1245.58173,0.05021
1244.55147,0.05024
1243.52122,0.05037
1242.49096,0.05049
1241.46070,0.05036
1240.43044,0.05014
1239.40018,0.04998
1238.36993,0.05000
1237.33967,0.05016
1236.30941,0.05047
1235.27915,0.05091
1234.24890,0.05111
1233.21864,0.05109
1232.18838,0.05113
1231.15812,0.05123
1230.12786,0.05127
1229.09761,0.05122
1228.06735,0.05122
1227.03709,0.05136
1226.00683,0.05148
1224.97657,0.05151
1223.94632,0.05159
1222.91606,0.05173
1221.88580,0.05171
1220.85554,0.05154
1219.82529,0.05153
1218.79503,0.05165
1217.76477,0.05171
1216.73451,0.05174
1215.70425,0.05194
1214.67400,0.05218
1213.64374,0.05224
1212.61348,0.05212
1211.58322,0.05201
1210.55297,0.05209
1209.52271,0.05232
1208.49245,0.05246
1207.46219,0.05247
1206.43193,0.05255
1205.40168,0.05279
1204.37142,0.05302
1203.34116,0.05311
1202.31090,0.05326
1201.28064,0.05332
1200.25039,0.05300
1199.22013,0.05268
1198.18987,0.05278
1197.15961,0.05306
1196.12936,0.05323
1195.09910,0.05328
1194.06884,0.05327
1193.03858,0.05338
1192.00832,0.05364
1190.97807,0.05394
1189.94781,0.05408
1188.91755,0.05414
1187.88729,0.05432
1186.85703,0.05433
1185.82678,0.05410
1184.79652,0.05410
1183.76626,0.05423
1182.73600,0.05408
1181.70575,0.05411
1180.67549,0.05457
1179.64523,0.05498
1178.61497,0.05524
1177.58471,0.05549
1176.55446,0.05552
1175.52420,0.05541
1174.49394,0.05543
1173.46368,0.05547
1172.43342,0.05543
1171.40317,0.05548
1170.37291,0.05580
1169.34265,0.05615
1168.31239,0.05623
1167.28214,0.05639
1166.25188,0.05672
1165.22162,0.05683
1164.19136,0.05674
1163.16110,0.05676
1162.13085,0.05705
1161.10059,0.05744
1160.07033,0.05751
1159.04007,0.05737
1158.00982,0.05754
1156.97956,0.05796
1155.94930,0.05828
1154.91904,0.05838
1153.88878,0.05845
1152.85853,0.05855
1151.82827,0.05845
1150.79801,0.05832
1149.76775,0.05855
1148.73749,0.05889
1147.70724,0.05909
1146.67698,0.05927
1145.64672,0.05953
1144.61646,0.05996
1143.58621,0.06031
1142.55595,0.06031
1141.52569,0.06027
1140.49543,0.06036
1139.46517,0.06039
1138.43492,0.06045
1137.40466,0.06081
1136.37440,0.06131
1135.34414,0.06171
1134.31388,0.06195
1133.28363,0.06204
1132.25337,0.06221
1131.22311,0.06258
1130.19285,0.06306
1129.16260,0.06373
1128.13234,0.06438
1127.10208,0.06496
1126.07182,0.06580
1125.04156,0.06655
1124.01131,0.06669
1122.98105,0.06698
1121.95079,0.06810
1120.92053,0.06938
1119.89027,0.07029
1118.86002,0.07117
1117.82976,0.07236
1116.79950,0.07362
1115.76924,0.07466
1114.73899,0.07568
1113.70873,0.07692
1112.67847,0.07841
1111.64821,0.08011
1110.61795,0.08192
1109.58770,0.08372
1108.55744,0.08542
1107.52718,0.08709
1106.49692,0.08905
1105.46667,0.09131
1104.43641,0.09367
1103.40615,0.09609
1102.37589,0.09858
1101.34563,0.10097
1100.31538,0.10326
1099.28512,0.10583
1098.25486,0.10881
1097.22460,0.11179
1096.19434,0.11479
1095.16409,0.11802
1094.13383,0.12096
1093.10357,0.12343
1092.07331,0.12593
1091.04306,0.12858
1090.01280,0.13146
1088.98254,0.13441
1087.95228,0.13686
1086.92202,0.13900
1085.89177,0.14144
1084.86151,0.14394
1083.83125,0.14614
1082.80099,0.14815
1081.77073,0.14992
1080.74048,0.15134
1079.71022,0.15257
1078.67996,0.15365
1077.64970,0.15460
1076.61945,0.15525
1075.58919,0.15517
1074.55893,0.15433
1073.52867,0.15325
1072.49841,0.15231
1071.46816,0.15113
1070.43790,0.14946
1069.40764,0.14749
1068.37738,0.14543
1067.34712,0.14337
1066.31687,0.14099
1065.28661,0.13813
1064.25635,0.13494
1063.22609,0.13150
1062.19584,0.12820
1061.16558,0.12518
1060.13532,0.12225
1059.10506,0.11920
1058.07480,0.11597
1057.04455,0.11293
1056.01429,0.11003
1054.98403,0.10703
1053.95377,0.10437
1052.92352,0.10221
1051.89326,0.09992
1050.86300,0.09721
1049.83274,0.09456
1048.80248,0.09258
1047.77223,0.09107
1046.74197,0.08960
1045.71171,0.08804
1044.68145,0.08637
1043.65119,0.08478
1042.62094,0.08342
1041.59068,0.08222
1040.56042,0.08114
1039.53016,0.08010
1038.49991,0.07895
1037.46965,0.07778
1036.43939,0.07684
1035.40913,0.07599
1034.37887,0.07514
1033.34862,0.07475
1032.31836,0.07464
1031.28810,0.07400
1030.25784,0.07299
1029.22758,0.07243
1028.19733,0.07215
1027.16707,0.07162
1026.13681,0.07105
1025.10655,0.07069
1024.07630,0.07026
1023.04604,0.06978
1022.01578,0.06964
1020.98552,0.06988
1019.95526,0.07018
1018.92501,0.07046
1017.89475,0.07039
1016.86449,0.06980
1015.83423,0.06943
1014.80397,0.06968
1013.77372,0.06994
1012.74346,0.06992
1011.71320,0.07001
1010.68294,0.07052
1009.65269,0.07130
1008.62243,0.07203
1007.59217,0.07267
1006.56191,0.07338
1005.53165,0.07417
1004.50140,0.07508
1003.47114,0.07625
1002.44088,0.07759
1001.41062,0.07900
1000.38037,0.08094
999.35011,0.08363
998.31985,0.08666
997.28959,0.08967
996.25933,0.09265
995.22908,0.09566
994.19882,0.09879
993.16856,0.10203
992.13830,0.10506
991.10804,0.10738
990.07779,0.10868
989.04753,0.10891
988.01727,0.10805
986.98701,0.10642
985.95676,0.10445
984.92650,0.10203
983.89624,0.09929
982.86598,0.09651
981.83572,0.09360
980.80547,0.09072
979.77521,0.08817
978.74495,0.08628
977.71469,0.08511
976.68443,0.08385
975.65418,0.08230
974.62392,0.08106
973.59366,0.08007
972.56340,0.07926
971.53315,0.07882
970.50289,0.07847
969.47263,0.07792
968.44237,0.07737
967.41211,0.07696
966.38186,0.07664
965.35160,0.07658
964.32134,0.07668
963.29108,0.07672
962.26082,0.07698
961.23057,0.07739
960.20031,0.07767
959.17005,0.07798
958.13979,0.07828
957.10954,0.07823
956.07928,0.07802
955.04902,0.07787
954.01876,0.07811
952.98850,0.07888
951.95825,0.07951
950.92799,0.07967
949.89773,0.07976
948.86747,0.08011
947.83722,0.08058
946.80696,0.08100
945.77670,0.08149
944.74644,0.08216
943.71618,0.08300
942.68593,0.08364
941.65567,0.08396
940.62541,0.08431
939.59515,0.08477
938.56489,0.08506
937.53464,0.08510
936.50438,0.08526
935.47412,0.08568
934.44386,0.08631
933.41361,0.08699
932.38335,0.08747
931.35309,0.08780
930.32283,0.08812
929.29257,0.08851
928.26232,0.08897
927.23206,0.08946
926.20180,0.09006
925.17154,0.09075
924.14128,0.09120
923.11103,0.09139
922.08077,0.09177
921.05051,0.09254
920.02025,0.09319
918.99000,0.09353
917.95974,0.09429
916.92948,0.09524
915.89922,0.09563
914.86896,0.09609
913.83871,0.09684
912.80845,0.09742
911.77819,0.09793
910.74793,0.09877
909.71768,0.09988
908.68742,0.10073
907.65716,0.10142
906.62690,0.10233
905.59664,0.10333
904.56639,0.10425
903.53613,0.10497
902.50587,0.10541
901.47561,0.10559
900.44535,0.10595
899.41510,0.10691
898.38484,0.10803
897.35458,0.10888
896.32432,0.10974
895.29407,0.11055
894.26381,0.11142
893.23355,0.11277
892.20329,0.11441
891.17303,0.11583
890.14278,0.11668
889.11252,0.11728
888.08226,0.11792
887.05200,0.11861
886.02174,0.11944
884.99149,0.12031
883.96123,0.12137
882.93097,0.12295
881.90071,0.12473
880.87046,0.12628
879.84020,0.12770
878.80994,0.12903
877.77968,0.13017
876.74942,0.13128
875.71917,0.13242
874.68891,0.13349
873.65865,0.13486
872.62839,0.13634
871.59813,0.13728
870.56788,0.13819
869.53762,0.13972
868.50736,0.14148
867.47710,0.14298
866.44685,0.14423
865.41659,0.14554
864.38633,0.14722
863.35607,0.14891
862.32581,0.15048
861.29556,0.15217
860.26530,0.15368
859.23504,0.15508
858.20478,0.15650
857.17453,0.15789
856.14427,0.15937
855.11401,0.16098
854.08375,0.16244
853.05349,0.16346
852.02324,0.16451
850.99298,0.16590
849.96272,0.16697
848.93246,0.16766
847.90220,0.16851
846.87195,0.16965
845.84169,0.17091
844.81143,0.17186
843.78117,0.17257
842.75092,0.17367
841.72066,0.17488
840.69040,0.17583
839.66014,0.17699
838.62988,0.17825
837.59963,0.17950
836.56937,0.18084
835.53911,0.18162
834.50885,0.18201
833.47859,0.18253
832.44834,0.18322
831.41808,0.18434
830.38782,0.18560
829.35756,0.18672
828.32731,0.18773
827.29705,0.18863
826.26679,0.18974
825.23653,0.19100
824.20627,0.19198
823.17602,0.19251
822.14576,0.19295
821.11550,0.19413
820.08524,0.19572
819.05498,0.19675
818.02473,0.19765
816.99447,0.19898
815.96421,0.20007
814.93395,0.20052
813.90370,0.20139
812.87344,0.20318
811.84318,0.20487
810.81292,0.20591
809.78266,0.20698
808.75241,0.20812
807.72215,0.20884
806.69189,0.20941
805.66163,0.21029
804.63138,0.21181
803.60112,0.21356
802.57086,0.21440
801.54060,0.21487
800.51034,0.21602
799.48009,0.21770
798.44983,0.21927
797.41957,0.22061
796.38931,0.22196
795.35905,0.22303
794.32880,0.22364
793.29854,0.22438
792.26828,0.22588
791.23802,0.22782
790.20777,0.22953
789.17751,0.23091
788.14725,0.23190
787.11699,0.23277
786.08673,0.23372
785.05648,0.23461
784.02622,0.23575
782.99596,0.23688
781.96570,0.23745
780.93544,0.23811
779.90519,0.23949
778.87493,0.24125
777.84467,0.24292
776.81441,0.24407
775.78416,0.24557
774.75390,0.24778
773.72364,0.24937
772.69338,0.25054
771.66312,0.25175
770.63287,0.25264
769.60261,0.25379
768.57235,0.25520
767.54209,0.25620
766.51183,0.25708
765.48158,0.25892
764.45132,0.26117
763.42106,0.26218
762.39080,0.26277
761.36055,0.26407
760.33029,0.26555
759.30003,0.26685
758.26977,0.26809
757.23951,0.26966
756.20926,0.27143
755.17900,0.27270
754.14874,0.27379
753.11848,0.27514
752.08823,0.27618
751.05797,0.27721
750.02771,0.27911
748.99745,0.28121
747.96719,0.28254
746.93694,0.28300
745.90668,0.28300
744.87642,0.28380
743.84616,0.28554
742.81590,0.28720
741.78565,0.28844
740.75539,0.28938
739.72513,0.29063
738.69487,0.29248
737.66462,0.29392
736.63436,0.29447
735.60410,0.29564
734.57384,0.29804
733.54358,0.30037
732.51333,0.30205
731.48307,0.30312
730.45281,0.30384
729.42255,0.30496
728.39229,0.30636
727.36204,0.30718
726.33178,0.30782
725.30152,0.30882
724.27126,0.31009
723.24101,0.31248
722.21075,0.31561
721.18049,0.31750
720.15023,0.31793
719.11997,0.31847
718.08972,0.32012
717.05946,0.32204
716.02920,0.32326
714.99894,0.32433
713.96868,0.32528
712.93843,0.32614
711.90817,0.32804
710.87791,0.33064
709.84765,0.33202
708.81740,0.33214
707.78714,0.33294
706.75688,0.33457
705.72662,0.33586
704.69636,0.33703
703.66611,0.33786
702.63585,0.33744
701.60559,0.33729
700.57533,0.33910
699.54508,0.34188
698.51482,0.34466
697.48456,0.34734
696.45430,0.34922
695.42404,0.35055
694.39379,0.35230
693.36353,0.35405
692.33327,0.35526
691.30301,0.35654
690.27275,0.35797
689.24250,0.35912
688.21224,0.36005
687.18198,0.36056
686.15172,0.36072
685.12147,0.36153
684.09121,0.36319
683.06095,0.36505
682.03069,0.36671
681.00043,0.36815
679.97018,0.36943
678.93992,0.37080
677.90966,0.37237
676.87940,0.37453
675.84914,0.37703
674.81889,0.37853
673.78863,0.37950
672.75837,0.38076
671.72811,0.38195
670.69786,0.38322
669.66760,0.38486
668.63734,0.38673
667.60708,0.38709
666.57682,0.38662
665.54657,0.38700
664.51631,0.38847
663.48605,0.39055
662.45579,0.39167
661.42553,0.39247
660.39528,0.39470
659.36502,0.39762
658.33476,0.39962
657.30450,0.40030
656.27425,0.40056
655.24399,0.40151
654.21373,0.40251
653.18347,0.40276
652.15321,0.40404
651.12296,0.40704
650.09270,0.40904
649.06244,0.40938
648.03218,0.40966
647.00193,0.40967
645.97167,0.41029
644.94141,0.41286
643.91115,0.41571
642.88089,0.41682
641.85064,0.41672
640.82038,0.41764
639.79012,0.42024
638.75986,0.42226
637.72960,0.42244
636.69935,0.42276
635.66909,0.42458
634.63883,0.42603
633.60857,0.42636
632.57832,0.42763
631.54806,0.43067
630.51780,0.43456
629.48754,0.43701
628.45728,0.43701
627.42703,0.43660
626.39677,0.43715
625.36651,0.43821
624.33625,0.43908
623.30599,0.44047
622.27574,0.44242
621.24548,0.44429
620.21522,0.44588
619.18496,0.44604
618.15471,0.44625
617.12445,0.44877
616.09419,0.45091
615.06393,0.45071
614.03367,0.45072
613.00342,0.45210
611.97316,0.45368
610.94290,0.45521
609.91264,0.45688
608.88238,0.45804
607.85213,0.45791
606.82187,0.45859
605.79161,0.46142
604.76135,0.46369
603.73110,0.46461
602.70084,0.46585
601.67058,0.46779
600.64032,0.46929
599.61006,0.46887
598.57981,0.46831
597.54955,0.46989
596.51929,0.47282
595.48903,0.47665
594.45878,0.48006
593.42852,0.48097
592.39826,0.47920
591.36800,0.47698
590.33774,0.47688
589.30749,0.47826
588.27723,0.47946
587.24697,0.47975
586.21671,0.48032
585.18645,0.48332
584.15620,0.48774
583.12594,0.48955
582.09568,0.48895
581.06542,0.48949
580.03517,0.49136
579.00491,0.49194
577.97465,0.49133
576.94439,0.49360
575.91413,0.49906
574.88388,0.50224
573.85362,0.50057
572.82336,0.49729
571.79310,0.49650
570.76284,0.49859
569.73259,0.50136
568.70233,0.50270
567.67207,0.50299
566.64181,0.50410
565.61156,0.50614
564.58130,0.50652
563.55104,0.50469
562.52078,0.50479
561.49052,0.50836
560.46027,0.51224
559.43001,0.51454
558.39975,0.51548
557.36949,0.51743
556.33924,0.52203
555.30898,0.52465
554.27872,0.52252
553.24846,0.52019
552.21820,0.52136
551.18795,0.52390
550.15769,0.52509
549.12743,0.52723
548.09717,0.53120
547.06691,0.53515
546.03666,0.53871
545.00640,0.54169
543.97614,0.54347
542.94588,0.54320
541.91563,0.54368
540.88537,0.54855
539.85511,0.55222
538.82485,0.55023
537.79459,0.54924
536.76434,0.55215
535.73408,0.55636
534.70382,0.55993
533.67356,0.56075
532.64330,0.56045
531.61305,0.56168
530.58279,0.56312
529.55253,0.56390
528.52227,0.56532
527.49202,0.56707
526.46176,0.56786
525.43150,0.56772
524.40124,0.56883
523.37098,0.57273
522.34073,0.57646
521.31047,0.57769
520.28021,0.57757
519.24995,0.57652
518.21969,0.57372
517.18944,0.56915
516.15918,0.56743
515.12892,0.56941
514.09866,0.56988
513.06841,0.57098
512.03815,0.57588
511.00789,0.57901
509.97763,0.57841
508.94737,0.57862
507.91712,0.58038
506.88686,0.58183
505.85660,0.58146
504.82634,0.57964
503.79609,0.57744
502.76583,0.57628
501.73557,0.57845
500.70531,0.58206
499.67505,0.58413
498.64480,0.58470
497.61454,0.58415
496.58428,0.58313
495.55402,0.58167
494.52376,0.58022
493.49351,0.58065
492.46325,0.58165
491.43299,0.58192
490.40273,0.58301
489.37248,0.58404
488.34222,0.58291
487.31196,0.58191
486.28170,0.58218
485.25144,0.58195
484.22119,0.58584
483.19093,0.59214
482.16067,0.59229
481.13041,0.58946
480.10015,0.59102
479.06990,0.59399
478.03964,0.59006
477.00938,0.58356
475.97912,0.58384
474.94887,0.58919
473.91861,0.59129
472.88835,0.58678
471.85809,0.58222
470.82783,0.58302
469.79758,0.58605
468.76732,0.58819
467.73706,0.58801
466.70680,0.58990
465.67654,0.59510
464.64629,0.59378
463.61603,0.58696
462.58577,0.58530
461.55551,0.58958
460.52526,0.59673
459.49500,0.59980
458.46474,0.59464
457.43448,0.59509
456.40422,0.60703
455.37397,0.61562
454.34371,0.61868
453.31345,0.62043
452.28319,0.61815
451.25294,0.61060
450.22268,0.60448
449.19242,0.60238
448.16216,0.60404
447.13190,0.60842
446.10165,0.60612
445.07139,0.59803
444.04113,0.59839
443.01087,0.60822
441.98061,0.60977
440.95036,0.60098
439.92010,0.59773
438.88984,0.60127
437.85958,0.60705
436.82933,0.61010
435.79907,0.60685
434.76881,0.60184
433.73855,0.60049
432.70829,0.60012
431.67804,0.59657
430.64778,0.59918
429.61752,0.61111
428.58726,0.62168
427.55700,0.62232
426.52675,0.61491
425.49649,0.61052
424.46623,0.61007
423.43597,0.60427
422.40572,0.59981
421.37546,0.60740
420.34520,0.61731
419.31494,0.61155
418.28468,0.59837
417.25443,0.60469
416.22417,0.62152
415.19391,0.63249
414.16365,0.63101
413.13339,0.62377
412.10314,0.61841
411.07288,0.61017
410.04262,0.60298
409.01236,0.60738
407.98211,0.61827
406.95185,0.62744
405.92159,0.63268
404.89133,0.63876
403.86107,0.64457
402.83082,0.63981
401.80056,0.63119
400.77030,0.62825
399.74004,0.62817
