4998.81105,0.00333
4997.78079,0.00328
4996.75054,0.00320
4995.72028,0.00289
4994.69002,0.00294
4993.65976,0.00352
4992.62951,0.00372
4991.59925,0.00333
4990.56899,0.00242
4989.53873,0.00112
4988.50847,-0.00025
4987.47822,-0.00097
4986.44796,-0.00011
4985.41770,0.00170
4984.38744,0.00239
4983.35718,0.00145
4982.32693,0.00107
4981.29667,0.00215
4980.26641,0.00271
4979.23615,0.00238
4978.20590,0.00223
4977.17564,0.00161
4976.14538,0.00057
4975.11512,0.00140
4974.08486,0.00373
4973.05461,0.00467
4972.02435,0.00407
4970.99409,0.00311
4969.96383,0.00230
4968.93357,0.00212
4967.90332,0.00275
4966.87306,0.00353
4965.84280,0.00338
4964.81254,0.00269
4963.78229,0.00248
4962.75203,0.00246
4961.72177,0.00200
4960.69151,0.00166
4959.66125,0.00208
4958.63100,0.00270
4957.60074,0.00308
4956.57048,0.00308
4955.54022,0.00227
4954.50997,0.00114
4953.47971,0.00054
4952.44945,0.00080
4951.41919,0.00152
4950.38893,0.00197
4949.35868,0.00222
4948.32842,0.00218
4947.29816,0.00158
4946.26790,0.00093
4945.23764,0.00039
4944.20739,0.00016
4943.17713,0.00069
4942.14687,0.00135
4941.11661,0.00127
4940.08636,0.00092
4939.05610,0.00136
4938.02584,0.00274
4936.99558,0.00373
4935.96532,0.00298
4934.93507,0.00139
4933.90481,0.00069
4932.87455,0.00088
4931.84429,0.00122
4930.81403,0.00162
4929.78378,0.00189
4928.75352,0.00152
4927.72326,0.00117
4926.69300,0.00167
4925.66275,0.00244
4924.63249,0.00260
4923.60223,0.00185
4922.57197,0.00115
4921.54171,0.00163
4920.51146,0.00271
4919.48120,0.00324
4918.45094,0.00290
4917.42068,0.00190
4916.39042,0.00099
4915.36017,0.00093
4914.32991,0.00146
4913.29965,0.00180
4912.26939,0.00197
4911.23914,0.00204
4910.20888,0.00173
4909.17862,0.00152
4908.14836,0.00193
4907.11810,0.00216
4906.08785,0.00171
4905.05759,0.00129
4904.02733,0.00119
4902.99707,0.00106
4901.96682,0.00056
4900.93656,-0.00040
4899.90630,-0.00074
4898.87604,0.00009
4897.84578,0.00128
4896.81553,0.00172
4895.78527,0.00103
4894.75501,0.00045
4893.72475,0.00051
4892.69449,0.00017
4891.66424,0.00032
4890.63398,0.00201
4889.60372,0.00340
4888.57346,0.00331
4887.54321,0.00272
4886.51295,0.00223
4885.48269,0.00195
4884.45243,0.00205
4883.42217,0.00240
4882.39192,0.00248
4881.36166,0.00178
4880.33140,0.00074
4879.30114,0.00038
4878.27088,0.00082
4877.24063,0.00097
4876.21037,0.00056
4875.18011,0.00043
4874.14985,0.00070
4873.11960,0.00097
4872.08934,0.00144
4871.05908,0.00206
4870.02882,0.00154
4868.99856,-0.00000
4867.96831,-0.00061
4866.93805,-0.00031
4865.90779,-0.00008
4864.87753,0.00107
4863.84727,0.00285
4862.81702,0.00302
4861.78676,0.00144
4860.75650,0.00005
4859.72624,-0.00039
4858.69599,-0.00057
4857.66573,-0.00068
4856.63547,-0.00055
4855.60521,-0.00005
4854.57495,0.00069
4853.54470,0.00118
4852.51444,0.00120
4851.48418,0.00124
4850.45392,0.00164
4849.42367,0.00160
4848.39341,0.00104
4847.36315,0.00090
4846.33289,0.00090
4845.30263,0.00071
4844.27238,0.00081
4843.24212,0.00076
4842.21186,0.00058
4841.18160,0.00111
4840.15134,0.00174
4839.12109,0.00170
4838.09083,0.00153
4837.06057,0.00128
4836.03031,0.00101
4835.00006,0.00156
4833.96980,0.00194
4832.93954,0.00112
4831.90928,0.00045
4830.87902,0.00103
4829.84877,0.00189
4828.81851,0.00206
4827.78825,0.00192
4826.75799,0.00150
4825.72773,0.00076
4824.69748,0.00037
4823.66722,0.00055
4822.63696,0.00080
4821.60670,0.00128
4820.57645,0.00204
4819.54619,0.00220
4818.51593,0.00168
4817.48567,0.00065
4816.45541,-0.00028
4815.42516,-0.00005
4814.39490,0.00107
4813.36464,0.00221
4812.33438,0.00323
4811.30412,0.00365
4810.27387,0.00294
4809.24361,0.00183
4808.21335,0.00106
4807.18309,0.00099
4806.15284,0.00162
4805.12258,0.00245
4804.09232,0.00328
4803.06206,0.00342
4802.03180,0.00251
4801.00155,0.00157
4799.97129,0.00145
4798.94103,0.00203
4797.91077,0.00278
4796.88052,0.00280
4795.85026,0.00177
4794.82000,0.00117
4793.78974,0.00162
4792.75948,0.00200
4791.72923,0.00187
4790.69897,0.00091
4789.66871,-0.00048
4788.63845,-0.00080
4787.60819,-0.00003
4786.57794,0.00029
4785.54768,-0.00039
4784.51742,-0.00076
4783.48716,-0.00002
4782.45691,0.00058
4781.42665,0.00025
4780.39639,-0.00014
4779.36613,0.00021
4778.33587,0.00132
4777.30562,0.00209
4776.27536,0.00167
4775.24510,0.00099
4774.21484,0.00104
4773.18458,0.00155
4772.15433,0.00231
4771.12407,0.00310
4770.09381,0.00310
4769.06355,0.00256
4768.03330,0.00219
4767.00304,0.00189
4765.97278,0.00132
4764.94252,0.00049
4763.91226,0.00006
4762.88201,0.00012
4761.85175,-0.00008
4760.82149,-0.00030
4759.79123,0.00039
4758.76098,0.00143
4757.73072,0.00172
4756.70046,0.00135
4755.67020,0.00086
4754.63994,0.00054
4753.60969,0.00055
4752.57943,0.00076
4751.54917,0.00091
4750.51891,0.00088
4749.48865,0.00070
4748.45840,0.00104
4747.42814,0.00175
4746.39788,0.00181
4745.36762,0.00129
4744.33737,0.00074
4743.30711,0.00038
4742.27685,0.00033
4741.24659,0.00077
4740.21633,0.00179
4739.18608,0.00251
4738.15582,0.00190
4737.12556,0.00083
4736.09530,0.00024
4735.06504,-0.00044
4734.03479,-0.00115
4733.00453,-0.00101
4731.97427,0.00001
4730.94401,0.00107
4729.91376,0.00110
4728.88350,0.00018
4727.85324,-0.00033
4726.82298,0.00009
4725.79272,0.00063
4724.76247,0.00053
4723.73221,0.00036
4722.70195,0.00111
4721.67169,0.00220
4720.64143,0.00210
4719.61118,0.00114
4718.58092,0.00130
4717.55066,0.00230
4716.52040,0.00277
4715.49015,0.00303
4714.45989,0.00295
4713.42963,0.00214
4712.39937,0.00154
4711.36911,0.00148
4710.33886,0.00155
4709.30860,0.00157
4708.27834,0.00174
4707.24808,0.00200
4706.21783,0.00191
4705.18757,0.00153
4704.15731,0.00080
4703.12705,-0.00027
4702.09679,-0.00075
4701.06654,-0.00007
4700.03628,0.00109
4699.00602,0.00168
4697.97576,0.00126
4696.94550,0.00060
4695.91525,0.00039
4694.88499,0.00049
4693.85473,0.00051
4692.82447,0.00005
4691.79422,-0.00019
4690.76396,0.00047
4689.73370,0.00086
4688.70344,0.00061
4687.67318,0.00095
4686.64293,0.00150
4685.61267,0.00153
4684.58241,0.00180
4683.55215,0.00212
4682.52189,0.00184
4681.49164,0.00169
4680.46138,0.00182
4679.43112,0.00126
4678.40086,0.00043
4677.37061,0.00052
4676.34035,0.00115
4675.31009,0.00095
4674.27983,0.00044
4673.24957,0.00101
4672.21932,0.00156
4671.18906,0.00134
4670.15880,0.00129
4669.12854,0.00124
4668.09828,0.00117
4667.06803,0.00148
4666.03777,0.00159
4665.00751,0.00101
4663.97725,0.00047
4662.94700,0.00053
4661.91674,0.00044
4660.88648,0.00017
4659.85622,0.00056
4658.82596,0.00143
4657.79571,0.00210
4656.76545,0.00224
4655.73519,0.00200
4654.70493,0.00156
4653.67468,0.00096
4652.64442,0.00095
4651.61416,0.00132
4650.58390,0.00090
4649.55364,0.00028
4648.52339,0.00021
4647.49313,0.00052
4646.46287,0.00107
4645.43261,0.00147
4644.40235,0.00164
4643.37210,0.00181
4642.34184,0.00190
4641.31158,0.00197
4640.28132,0.00205
4639.25107,0.00169
4638.22081,0.00112
4637.19055,0.00111
4636.16029,0.00112
4635.13003,0.00084
4634.09978,0.00108
4633.06952,0.00158
4632.03926,0.00139
4631.00900,0.00122
4629.97874,0.00175
4628.94849,0.00225
4627.91823,0.00196
4626.88797,0.00099
4625.85771,0.00044
4624.82746,0.00066
4623.79720,0.00108
4622.76694,0.00162
4621.73668,0.00205
4620.70642,0.00185
4619.67617,0.00140
4618.64591,0.00133
4617.61565,0.00121
4616.58539,0.00085
4615.55513,0.00075
4614.52488,0.00068
4613.49462,0.00031
4612.46436,-0.00025
4611.43410,-0.00047
4610.40385,-0.00013
4609.37359,0.00000
4608.34333,0.00001
4607.31307,0.00042
4606.28281,0.00093
4605.25256,0.00106
4604.22230,0.00065
4603.19204,0.00037
4602.16178,0.00065
4601.13153,0.00074
4600.10127,0.00029
4599.07101,0.00006
4598.04075,0.00038
4597.01049,0.00100
4595.98024,0.00143
4594.94998,0.00136
4593.91972,0.00102
4592.88946,0.00062
4591.85920,0.00037
4590.82895,0.00023
4589.79869,0.00014
4588.76843,0.00036
4587.73817,0.00051
4586.70792,0.00049
4585.67766,0.00074
4584.64740,0.00097
4583.61714,0.00119
4582.58688,0.00150
4581.55663,0.00142
4580.52637,0.00106
4579.49611,0.00072
4578.46585,0.00035
4577.43559,0.00025
4576.40534,0.00084
4575.37508,0.00193
4574.34482,0.00255
4573.31456,0.00223
4572.28431,0.00163
4571.25405,0.00143
4570.22379,0.00125
4569.19353,0.00082
4568.16327,0.00024
4567.13302,-0.00014
4566.10276,0.00030
4565.07250,0.00095
4564.04224,0.00110
4563.01198,0.00097
4561.98173,0.00086
4560.95147,0.00097
4559.92121,0.00123
4558.89095,0.00117
4557.86070,0.00059
4556.83044,0.00026
4555.80018,0.00048
4554.76992,0.00113
4553.73966,0.00181
4552.70941,0.00198
4551.67915,0.00180
4550.64889,0.00125
4549.61863,0.00068
4548.58838,0.00069
4547.55812,0.00117
4546.52786,0.00192
4545.49760,0.00217
4544.46734,0.00130
4543.43709,0.00054
4542.40683,0.00043
4541.37657,0.00026
4540.34631,0.00021
4539.31605,0.00065
4538.28580,0.00118
4537.25554,0.00131
4536.22528,0.00118
4535.19502,0.00099
4534.16477,0.00092
4533.13451,0.00133
4532.10425,0.00200
4531.07399,0.00239
4530.04373,0.00192
4529.01348,0.00107
4527.98322,0.00116
4526.95296,0.00176
4525.92270,0.00179
4524.89244,0.00173
4523.86219,0.00189
4522.83193,0.00196
4521.80167,0.00215
4520.77141,0.00244
4519.74116,0.00204
4518.71090,0.00078
4517.68064,-0.00020
4516.65038,-0.00028
4515.62012,-0.00006
4514.58987,0.00026
4513.55961,0.00076
4512.52935,0.00080
4511.49909,0.00053
4510.46883,0.00058
4509.43858,0.00055
4508.40832,0.00045
4507.37806,0.00087
4506.34780,0.00129
4505.31755,0.00110
4504.28729,0.00079
4503.25703,0.00084
4502.22677,0.00093
4501.19651,0.00067
4500.16626,0.00018
4499.13600,-0.00011
4498.10574,0.00016
4497.07548,0.00091
4496.04523,0.00148
4495.01497,0.00168
4493.98471,0.00153
4492.95445,0.00155
4491.92419,0.00209
4490.89394,0.00213
4489.86368,0.00131
4488.83342,0.00049
4487.80316,0.00024
4486.77290,0.00023
4485.74265,0.00036
4484.71239,0.00089
4483.68213,0.00145
4482.65187,0.00170
4481.62162,0.00135
4480.59136,0.00033
4479.56110,-0.00034
4478.53084,0.00001
4477.50058,0.00096
4476.47033,0.00182
4475.44007,0.00196
4474.40981,0.00166
4473.37955,0.00158
4472.34929,0.00120
4471.31904,0.00071
4470.28878,0.00103
4469.25852,0.00170
4468.22826,0.00207
4467.19801,0.00189
4466.16775,0.00111
4465.13749,0.00053
4464.10723,0.00074
4463.07697,0.00097
4462.04672,0.00055
4461.01646,-0.00013
4459.98620,-0.00011
4458.95594,0.00070
4457.92568,0.00123
4456.89543,0.00120
4455.86517,0.00121
4454.83491,0.00162
4453.80465,0.00213
4452.77440,0.00194
4451.74414,0.00125
4450.71388,0.00086
4449.68362,0.00097
4448.65336,0.00167
4447.62311,0.00233
4446.59285,0.00206
4445.56259,0.00134
4444.53233,0.00107
4443.50208,0.00156
4442.47182,0.00202
4441.44156,0.00164
4440.41130,0.00120
4439.38104,0.00140
4438.35079,0.00144
4437.32053,0.00095
4436.29027,0.00079
4435.26001,0.00078
4434.22975,0.00036
4433.19950,0.00029
4432.16924,0.00083
4431.13898,0.00105
4430.10872,0.00060
4429.07847,0.00023
4428.04821,0.00040
4427.01795,0.00062
4425.98769,0.00042
4424.95743,0.00011
4423.92718,0.00025
4422.89692,0.00057
4421.86666,0.00065
4420.83640,0.00067
4419.80614,0.00074
4418.77589,0.00080
4417.74563,0.00115
4416.71537,0.00155
4415.68511,0.00132
4414.65486,0.00068
4413.62460,0.00031
4412.59434,-0.00006
4411.56408,-0.00013
4410.53382,0.00033
4409.50357,0.00043
4408.47331,0.00038
4407.44305,0.00041
4406.41279,0.00034
4405.38253,0.00048
4404.35228,0.00050
4403.32202,0.00009
4402.29176,-0.00005
4401.26150,0.00031
4400.23125,0.00057
4399.20099,0.00080
4398.17073,0.00115
4397.14047,0.00107
4396.11021,0.00116
4395.07996,0.00182
4394.04970,0.00171
4393.01944,0.00081
4391.98918,0.00049
4390.95893,0.00054
4389.92867,0.00040
4388.89841,0.00078
4387.86815,0.00163
4386.83789,0.00189
4385.80764,0.00155
4384.77738,0.00114
4383.74712,0.00098
4382.71686,0.00106
4381.68660,0.00097
4380.65635,0.00045
4379.62609,0.00000
4378.59583,0.00019
4377.56557,0.00068
4376.53532,0.00074
4375.50506,0.00051
4374.47480,0.00081
4373.44454,0.00112
4372.41428,0.00080
4371.38403,0.00048
4370.35377,0.00061
4369.32351,0.00071
4368.29325,0.00078
4367.26299,0.00131
4366.23274,0.00159
4365.20248,0.00116
4364.17222,0.00080
4363.14196,0.00045
4362.11171,-0.00004
4361.08145,0.00006
4360.05119,0.00078
4359.02093,0.00135
4357.99067,0.00128
4356.96042,0.00088
4355.93016,0.00046
4354.89990,0.00041
4353.86964,0.00100
4352.83939,0.00157
4351.80913,0.00186
4350.77887,0.00197
4349.74861,0.00190
4348.71835,0.00173
4347.68810,0.00142
4346.65784,0.00101
4345.62758,0.00073
4344.59732,0.00083
4343.56706,0.00122
4342.53681,0.00168
4341.50655,0.00161
4340.47629,0.00092
4339.44603,0.00056
4338.41578,0.00088
4337.38552,0.00121
4336.35526,0.00118
4335.32500,0.00080
4334.29474,0.00034
4333.26449,0.00033
4332.23423,0.00073
4331.20397,0.00103
4330.17371,0.00100
4329.14345,0.00093
4328.11320,0.00097
4327.08294,0.00106
4326.05268,0.00112
4325.02242,0.00113
4323.99217,0.00110
4322.96191,0.00108
4321.93165,0.00107
4320.90139,0.00100
4319.87113,0.00110
4318.84088,0.00108
4317.81062,0.00084
4316.78036,0.00086
4315.75010,0.00113
4314.71984,0.00137
4313.68959,0.00178
4312.65933,0.00213
4311.62907,0.00175
4310.59881,0.00138
4309.56856,0.00170
4308.53830,0.00187
4307.50804,0.00153
4306.47778,0.00096
4305.44752,0.00037
4304.41727,0.00018
4303.38701,0.00048
4302.35675,0.00087
4301.32649,0.00114
4300.29624,0.00128
4299.26598,0.00133
4298.23572,0.00131
4297.20546,0.00122
4296.17520,0.00111
4295.14495,0.00134
4294.11469,0.00183
4293.08443,0.00207
4292.05417,0.00196
4291.02391,0.00178
4289.99366,0.00153
4288.96340,0.00118
4287.93314,0.00087
4286.90288,0.00077
4285.87263,0.00081
4284.84237,0.00048
4283.81211,0.00039
4282.78185,0.00103
4281.75159,0.00151
4280.72134,0.00145
4279.69108,0.00113
4278.66082,0.00090
4277.63056,0.00095
4276.60030,0.00107
4275.57005,0.00114
4274.53979,0.00119
4273.50953,0.00127
4272.47927,0.00143
4271.44902,0.00174
4270.41876,0.00226
4269.38850,0.00244
4268.35824,0.00177
4267.32798,0.00101
4266.29773,0.00095
4265.26747,0.00104
4264.23721,0.00107
4263.20695,0.00162
4262.17669,0.00235
4261.14644,0.00219
4260.11618,0.00143
4259.08592,0.00116
4258.05566,0.00110
4257.02541,0.00087
4255.99515,0.00108
4254.96489,0.00163
4253.93463,0.00190
4252.90437,0.00204
4251.87412,0.00229
4250.84386,0.00238
4249.81360,0.00211
4248.78334,0.00187
4247.75309,0.00206
4246.72283,0.00238
4245.69257,0.00230
4244.66231,0.00214
4243.63205,0.00191
4242.60180,0.00150
4241.57154,0.00138
4240.54128,0.00166
4239.51102,0.00190
4238.48076,0.00178
4237.45051,0.00150
4236.42025,0.00164
4235.38999,0.00233
4234.35973,0.00281
4233.32948,0.00250
4232.29922,0.00193
4231.26896,0.00180
4230.23870,0.00213
4229.20844,0.00215
4228.17819,0.00177
4227.14793,0.00184
4226.11767,0.00223
4225.08741,0.00211
4224.05715,0.00152
4223.02690,0.00116
4221.99664,0.00133
4220.96638,0.00155
4219.93612,0.00155
4218.90587,0.00166
4217.87561,0.00205
4216.84535,0.00232
4215.81509,0.00205
4214.78483,0.00141
4213.75458,0.00104
4212.72432,0.00106
4211.69406,0.00107
4210.66380,0.00100
4209.63354,0.00092
4208.60329,0.00075
4207.57303,0.00064
4206.54277,0.00079
4205.51251,0.00120
4204.48226,0.00185
4203.45200,0.00213
4202.42174,0.00176
4201.39148,0.00160
4200.36122,0.00185
4199.33097,0.00168
4198.30071,0.00101
4197.27045,0.00100
4196.24019,0.00189
4195.20994,0.00246
4194.17968,0.00236
4193.14942,0.00189
4192.11916,0.00157
4191.08890,0.00194
4190.05865,0.00207
4189.02839,0.00154
4187.99813,0.00123
4186.96787,0.00140
4185.93761,0.00194
4184.90736,0.00234
4183.87710,0.00238
4182.84684,0.00224
4181.81658,0.00200
4180.78633,0.00184
4179.75607,0.00169
4178.72581,0.00143
4177.69555,0.00113
4176.66529,0.00095
4175.63504,0.00114
4174.60478,0.00152
4173.57452,0.00162
4172.54426,0.00172
4171.51400,0.00186
4170.48375,0.00164
4169.45349,0.00128
4168.42323,0.00138
4167.39297,0.00195
4166.36272,0.00214
4165.33246,0.00154
4164.30220,0.00100
4163.27194,0.00102
4162.24168,0.00113
4161.21143,0.00128
4160.18117,0.00177
4159.15091,0.00214
4158.12065,0.00204
4157.09039,0.00140
4156.06014,0.00081
4155.02988,0.00086
4153.99962,0.00120
4152.96936,0.00159
4151.93911,0.00216
4150.90885,0.00254
4149.87859,0.00231
4148.84833,0.00200
4147.81807,0.00222
4146.78782,0.00243
4145.75756,0.00217
4144.72730,0.00191
4143.69704,0.00215
4142.66679,0.00250
4141.63653,0.00251
4140.60627,0.00227
4139.57601,0.00172
4138.54575,0.00123
4137.51550,0.00147
4136.48524,0.00204
4135.45498,0.00212
4134.42472,0.00214
4133.39446,0.00246
4132.36421,0.00245
4131.33395,0.00210
4130.30369,0.00201
4129.27343,0.00234
4128.24318,0.00262
4127.21292,0.00223
4126.18266,0.00155
4125.15240,0.00145
4124.12214,0.00194
4123.09189,0.00247
4122.06163,0.00286
4121.03137,0.00329
4120.00111,0.00335
4118.97085,0.00270
4117.94060,0.00215
4116.91034,0.00219
4115.88008,0.00223
4114.84982,0.00200
4113.81957,0.00180
4112.78931,0.00165
4111.75905,0.00163
4110.72879,0.00166
4109.69853,0.00163
4108.66828,0.00181
4107.63802,0.00217
4106.60776,0.00232
4105.57750,0.00227
4104.54724,0.00210
4103.51699,0.00192
4102.48673,0.00190
4101.45647,0.00171
4100.42621,0.00147
4099.39596,0.00195
4098.36570,0.00272
4097.33544,0.00296
4096.30518,0.00280
4095.27492,0.00257
4094.24467,0.00248
4093.21441,0.00235
4092.18415,0.00204
4091.15389,0.00191
4090.12364,0.00198
4089.09338,0.00185
4088.06312,0.00166
4087.03286,0.00180
4086.00260,0.00216
4084.97235,0.00244
4083.94209,0.00253
4082.91183,0.00255
4081.88157,0.00258
4080.85131,0.00257
4079.82106,0.00253
4078.79080,0.00254
4077.76054,0.00225
4076.73028,0.00141
4075.70003,0.00114
4074.66977,0.00181
4073.63951,0.00217
4072.60925,0.00199
4071.57899,0.00200
4070.54874,0.00247
4069.51848,0.00292
4068.48822,0.00290
4067.45796,0.00274
4066.42770,0.00286
4065.39745,0.00293
4064.36719,0.00294
4063.33693,0.00313
4062.30667,0.00320
4061.27642,0.00300
4060.24616,0.00240
4059.21590,0.00174
4058.18564,0.00188
4057.15538,0.00250
4056.12513,0.00284
4055.09487,0.00268
4054.06461,0.00246
4053.03435,0.00252
4052.00409,0.00268
4050.97384,0.00281
4049.94358,0.00281
4048.91332,0.00269
4047.88306,0.00262
4046.85281,0.00283
4045.82255,0.00304
4044.79229,0.00266
4043.76203,0.00205
4042.73177,0.00194
4041.70152,0.00229
4040.67126,0.00260
4039.64100,0.00261
4038.61074,0.00257
4037.58049,0.00278
4036.55023,0.00314
4035.51997,0.00326
4034.48971,0.00272
4033.45945,0.00217
4032.42920,0.00238
4031.39894,0.00273
4030.36868,0.00285
4029.33842,0.00290
4028.30816,0.00284
4027.27791,0.00293
4026.24765,0.00305
4025.21739,0.00280
4024.18713,0.00259
4023.15688,0.00260
4022.12662,0.00236
4021.09636,0.00218
4020.06610,0.00264
4019.03584,0.00308
4018.00559,0.00291
4016.97533,0.00259
4015.94507,0.00279
4014.91481,0.00353
4013.88455,0.00411
4012.85430,0.00393
4011.82404,0.00333
4010.79378,0.00294
4009.76352,0.00302
4008.73327,0.00332
4007.70301,0.00320
4006.67275,0.00279
4005.64249,0.00283
4004.61223,0.00334
4003.58198,0.00374
4002.55172,0.00349
4001.52146,0.00278
4000.49120,0.00239
3999.46095,0.00260
3998.43069,0.00297
3997.40043,0.00294
3996.37017,0.00257
3995.33991,0.00252
3994.30966,0.00309
3993.27940,0.00347
3992.24914,0.00311
3991.21888,0.00254
3990.18862,0.00238
3989.15837,0.00263
3988.12811,0.00297
3987.09785,0.00338
3986.06759,0.00374
3985.03734,0.00372
3984.00708,0.00336
3982.97682,0.00301
3981.94656,0.00282
3980.91630,0.00302
3979.88605,0.00365
3978.85579,0.00406
3977.82553,0.00398
3976.79527,0.00382
3975.76501,0.00373
3974.73476,0.00344
3973.70450,0.00317
3972.67424,0.00344
3971.64398,0.00375
3970.61373,0.00373
3969.58347,0.00380
3968.55321,0.00369
3967.52295,0.00302
3966.49269,0.00239
3965.46244,0.00252
3964.43218,0.00308
3963.40192,0.00337
3962.37166,0.00329
3961.34140,0.00327
3960.31115,0.00350
3959.28089,0.00378
3958.25063,0.00373
3957.22037,0.00342
3956.19012,0.00342
3955.15986,0.00371
3954.12960,0.00362
3953.09934,0.00305
3952.06908,0.00286
3951.03883,0.00328
3950.00857,0.00380
3948.97831,0.00422
3947.94805,0.00420
3946.91780,0.00372
3945.88754,0.00334
3944.85728,0.00337
3943.82702,0.00357
3942.79676,0.00353
3941.76651,0.00341
3940.73625,0.00350
3939.70599,0.00355
3938.67573,0.00352
3937.64547,0.00340
3936.61522,0.00309
3935.58496,0.00277
3934.55470,0.00281
3933.52444,0.00323
3932.49419,0.00353
3931.46393,0.00342
3930.43367,0.00361
3929.40341,0.00406
3928.37315,0.00376
3927.34290,0.00295
3926.31264,0.00258
3925.28238,0.00266
3924.25212,0.00297
3923.22186,0.00323
3922.19161,0.00317
3921.16135,0.00304
3920.13109,0.00298
3919.10083,0.00283
3918.07058,0.00292
3917.04032,0.00337
3916.01006,0.00349
3914.97980,0.00320
3913.94954,0.00331
3912.91929,0.00352
3911.88903,0.00323
3910.85877,0.00305
3909.82851,0.00320
3908.79825,0.00320
3907.76800,0.00313
3906.73774,0.00331
3905.70748,0.00388
3904.67722,0.00436
3903.64697,0.00416
3902.61671,0.00380
3901.58645,0.00388
3900.55619,0.00393
3899.52593,0.00327
3898.49568,0.00246
3897.46542,0.00236
3896.43516,0.00260
3895.40490,0.00292
3894.37465,0.00318
3893.34439,0.00356
3892.31413,0.00398
3891.28387,0.00393
3890.25361,0.00365
3889.22336,0.00368
3888.19310,0.00390
3887.16284,0.00381
3886.13258,0.00308
3885.10232,0.00234
3884.07207,0.00253
3883.04181,0.00322
3882.01155,0.00376
3880.98129,0.00396
3879.95104,0.00401
3878.92078,0.00394
3877.89052,0.00379
3876.86026,0.00375
3875.83000,0.00343
3874.79975,0.00305
3873.76949,0.00348
3872.73923,0.00411
3871.70897,0.00456
3870.67871,0.00505
3869.64846,0.00491
3868.61820,0.00423
3867.58794,0.00359
3866.55768,0.00298
3865.52743,0.00271
3864.49717,0.00279
3863.46691,0.00292
3862.43665,0.00278
3861.40639,0.00250
3860.37614,0.00269
3859.34588,0.00324
3858.31562,0.00361
3857.28536,0.00373
3856.25510,0.00408
3855.22485,0.00471
3854.19459,0.00495
3853.16433,0.00411
3852.13407,0.00332
3851.10382,0.00299
3850.07356,0.00269
3849.04330,0.00250
3848.01304,0.00274
3846.98278,0.00348
3845.95253,0.00422
3844.92227,0.00441
3843.89201,0.00398
3842.86175,0.00345
3841.83150,0.00360
3840.80124,0.00424
3839.77098,0.00456
3838.74072,0.00460
3837.71046,0.00446
3836.68021,0.00381
3835.64995,0.00315
3834.61969,0.00320
3833.58943,0.00384
3832.55917,0.00417
3831.52892,0.00415
3830.49866,0.00420
3829.46840,0.00416
3828.43814,0.00387
3827.40789,0.00383
3826.37763,0.00395
3825.34737,0.00360
3824.31711,0.00305
3823.28685,0.00277
3822.25660,0.00297
3821.22634,0.00345
3820.19608,0.00399
3819.16582,0.00432
3818.13556,0.00435
3817.10531,0.00449
3816.07505,0.00417
3815.04479,0.00314
3814.01453,0.00298
3812.98428,0.00364
3811.95402,0.00434
3810.92376,0.00471
3809.89350,0.00458
3808.86324,0.00410
3807.83299,0.00385
3806.80273,0.00390
3805.77247,0.00378
3804.74221,0.00365
3803.71195,0.00371
3802.68170,0.00378
3801.65144,0.00377
3800.62118,0.00432
3799.59092,0.00483
3798.56067,0.00475
3797.53041,0.00458
3796.50015,0.00458
3795.46989,0.00476
3794.43963,0.00478
3793.40938,0.00460
3792.37912,0.00440
3791.34886,0.00425
3790.31860,0.00423
3789.28835,0.00421
3788.25809,0.00400
3787.22783,0.00386
3786.19757,0.00398
3785.16731,0.00425
3784.13706,0.00454
3783.10680,0.00452
3782.07654,0.00440
3781.04628,0.00483
3780.01602,0.00517
3778.98577,0.00467
3777.95551,0.00436
3776.92525,0.00466
3775.89499,0.00479
3774.86474,0.00436
3773.83448,0.00400
3772.80422,0.00428
3771.77396,0.00517
3770.74370,0.00627
3769.71345,0.00651
3768.68319,0.00579
3767.65293,0.00541
3766.62267,0.00526
3765.59241,0.00484
3764.56216,0.00454
3763.53190,0.00469
3762.50164,0.00504
3761.47138,0.00520
3760.44113,0.00500
3759.41087,0.00473
3758.38061,0.00496
3757.35035,0.00549
3756.32009,0.00584
3755.28984,0.00609
3754.25958,0.00641
3753.22932,0.00659
3752.19906,0.00624
3751.16880,0.00575
3750.13855,0.00585
3749.10829,0.00599
3748.07803,0.00585
3747.04777,0.00620
3746.01752,0.00681
3744.98726,0.00703
3743.95700,0.00683
3742.92674,0.00703
3741.89648,0.00738
3740.86623,0.00756
3739.83597,0.00742
3738.80571,0.00705
3737.77545,0.00712
3736.74520,0.00765
3735.71494,0.00794
3734.68468,0.00852
3733.65442,0.00893
3732.62416,0.00811
3731.59391,0.00724
3730.56365,0.00761
3729.53339,0.00803
3728.50313,0.00779
3727.47287,0.00725
3726.44262,0.00686
3725.41236,0.00711
3724.38210,0.00791
3723.35184,0.00838
3722.32159,0.00853
3721.29133,0.00882
3720.26107,0.00893
3719.23081,0.00889
3718.20055,0.00914
3717.17030,0.00942
3716.14004,0.00932
3715.10978,0.00904
3714.07952,0.00903
3713.04926,0.00947
3712.01901,0.01022
3710.98875,0.01065
3709.95849,0.01083
3708.92823,0.01108
3707.89798,0.01116
3706.86772,0.01114
3705.83746,0.01143
3704.80720,0.01203
3703.77694,0.01257
3702.74669,0.01290
3701.71643,0.01283
3700.68617,0.01261
3699.65591,0.01303
3698.62565,0.01408
3697.59540,0.01491
3696.56514,0.01487
3695.53488,0.01475
3694.50462,0.01508
3693.47437,0.01529
3692.44411,0.01554
3691.41385,0.01632
3690.38359,0.01734
3689.35333,0.01825
3688.32308,0.01910
3687.29282,0.01944
3686.26256,0.01920
3685.23230,0.01935
3684.20205,0.02047
3683.17179,0.02159
3682.14153,0.02207
3681.11127,0.02267
3680.08101,0.02355
3679.05076,0.02429
3678.02050,0.02512
3676.99024,0.02634
3675.95998,0.02784
3674.92972,0.02869
3673.89947,0.02897
3672.86921,0.02979
3671.83895,0.03082
3670.80869,0.03131
3669.77844,0.03135
3668.74818,0.03231
3667.71792,0.03379
3666.68766,0.03471
3665.65740,0.03558
3664.62715,0.03715
3663.59689,0.03889
3662.56663,0.03982
3661.53637,0.04026
3660.50611,0.04091
3659.47586,0.04172
3658.44560,0.04279
3657.41534,0.04411
3656.38508,0.04539
3655.35483,0.04620
3654.32457,0.04715
3653.29431,0.04891
3652.26405,0.05041
3651.23379,0.05098
3650.20354,0.05229
3649.17328,0.05443
3648.14302,0.05524
3647.11276,0.05514
3646.08250,0.05561
3645.05225,0.05642
3644.02199,0.05696
3642.99173,0.05767
3641.96147,0.05917
3640.93122,0.06085
3639.90096,0.06163
3638.87070,0.06196
3637.84044,0.06309
3636.81018,0.06482
3635.77993,0.06618
3634.74967,0.06683
3633.71941,0.06711
3632.68915,0.06786
3631.65890,0.06898
3630.62864,0.07009
3629.59838,0.07128
3628.56812,0.07194
3627.53786,0.07210
3626.50761,0.07323
3625.47735,0.07483
3624.44709,0.07597
3623.41683,0.07684
3622.38657,0.07793
3621.35632,0.07915
3620.32606,0.08000
3619.29580,0.08083
3618.26554,0.08205
3617.23529,0.08286
3616.20503,0.08323
3615.17477,0.08398
3614.14451,0.08491
3613.11425,0.08519
3612.08400,0.08520
3611.05374,0.08613
3610.02348,0.08781
3608.99322,0.08923
3607.96296,0.09049
3606.93271,0.09208
3605.90245,0.09334
3604.87219,0.09378
3603.84193,0.09372
3602.81168,0.09398
3601.78142,0.09509
3600.75116,0.09626
3599.72090,0.09669
3598.69064,0.09672
3597.66039,0.09697
3596.63013,0.09802
3595.59987,0.09965
3594.56961,0.10098
3593.53936,0.10193
3592.50910,0.10327
3591.47884,0.10484
3590.44858,0.10565
3589.41832,0.10623
3588.38807,0.10730
3587.35781,0.10747
3586.32755,0.10690
3585.29729,0.10768
3584.26703,0.10955
3583.23678,0.11140
3582.20652,0.11260
3581.17626,0.11306
3580.14600,0.11374
3579.11575,0.11524
3578.08549,0.11683
3577.05523,0.11777
3576.02497,0.11850
3574.99471,0.11971
3573.96446,0.12059
3572.93420,0.12101
3571.90394,0.12212
3570.87368,0.12351
3569.84342,0.12433
3568.81317,0.12513
3567.78291,0.12658
3566.75265,0.12803
3565.72239,0.12894
3564.69214,0.13009
3563.66188,0.13153
3562.63162,0.13264
3561.60136,0.13322
3560.57110,0.13382
3559.54085,0.13490
3558.51059,0.13623
3557.48033,0.13750
3556.45007,0.13858
3555.41981,0.13930
3554.38956,0.13994
3553.35930,0.14087
3552.32904,0.14160
3551.29878,0.14242
3550.26853,0.14409
3549.23827,0.14582
3548.20801,0.14731
3547.17775,0.14861
3546.14749,0.14933
3545.11724,0.15010
3544.08698,0.15109
3543.05672,0.15188
3542.02646,0.15307
3540.99621,0.15474
3539.96595,0.15615
3538.93569,0.15682
3537.90543,0.15714
3536.87517,0.15804
3535.84492,0.15956
3534.81466,0.16087
3533.78440,0.16185
3532.75414,0.16302
3531.72388,0.16434
3530.69363,0.16557
3529.66337,0.16709
3528.63311,0.16872
3527.60285,0.16972
3526.57260,0.17033
3525.54234,0.17126
3524.51208,0.17235
3523.48182,0.17349
3522.45156,0.17484
3521.42131,0.17657
3520.39105,0.17838
3519.36079,0.17965
3518.33053,0.18050
3517.30027,0.18152
3516.27002,0.18295
3515.23976,0.18428
3514.20950,0.18519
3513.17924,0.18615
3512.14899,0.18735
3511.11873,0.18862
3510.08847,0.19028
3509.05821,0.19233
3508.02795,0.19382
3506.99770,0.19440
3505.96744,0.19446
3504.93718,0.19466
3503.90692,0.19593
3502.87666,0.19778
3501.84641,0.19917
3500.81615,0.20053
3499.78589,0.20179
3498.75563,0.20258
3497.72538,0.20358
3496.69512,0.20501
3495.66486,0.20639
3494.63460,0.20758
3493.60434,0.20867
3492.57409,0.20995
3491.54383,0.21148
3490.51357,0.21287
3489.48331,0.21433
3488.45306,0.21547
3487.42280,0.21591
3486.39254,0.21672
3485.36228,0.21845
3484.33202,0.22038
3483.30177,0.22159
3482.27151,0.22234
3481.24125,0.22349
3480.21099,0.22493
3479.18073,0.22630
3478.15048,0.22771
3477.12022,0.22927
3476.08996,0.23097
3475.05970,0.23249
3474.02945,0.23364
3472.99919,0.23471
3471.96893,0.23593
3470.93867,0.23711
3469.90841,0.23806
3468.87816,0.23923
3467.84790,0.24068
3466.81764,0.24208
3465.78738,0.24401
3464.75712,0.24621
3463.72687,0.24766
3462.69661,0.24861
3461.66635,0.24977
3460.63609,0.25099
3459.60584,0.25205
3458.57558,0.25322
3457.54532,0.25482
3456.51506,0.25623
3455.48480,0.25694
3454.45455,0.25799
3453.42429,0.25975
3452.39403,0.26168
3451.36377,0.26353
3450.33351,0.26485
3449.30326,0.26590
3448.27300,0.26716
3447.24274,0.26863
3446.21248,0.26998
3445.18223,0.27095
3444.15197,0.27179
3443.12171,0.27297
3442.09145,0.27453
3441.06119,0.27582
3440.03094,0.27694
3439.00068,0.27863
3437.97042,0.28054
3436.94016,0.28167
3435.90991,0.28223
3434.87965,0.28287
3433.84939,0.28369
3432.81913,0.28503
3431.78887,0.28681
3430.75862,0.28847
3429.72836,0.29044
3428.69810,0.29276
3427.66784,0.29416
3426.63758,0.29455
3425.60733,0.29533
3424.57707,0.29713
3423.54681,0.29936
3422.51655,0.30096
3421.48630,0.30177
3420.45604,0.30298
3419.42578,0.30473
3418.39552,0.30602
3417.36526,0.30710
3416.33501,0.30835
3415.30475,0.30938
3414.27449,0.31049
3413.24423,0.31173
3412.21397,0.31266
3411.18372,0.31372
3410.15346,0.31517
3409.12320,0.31665
3408.09294,0.31809
3407.06269,0.31915
3406.03243,0.31976
3405.00217,0.32064
3403.97191,0.32162
3402.94165,0.32230
3401.91140,0.32317
3400.88114,0.32414
3399.85088,0.32500
3398.82062,0.32632
3397.79036,0.32790
3396.76011,0.32895
3395.72985,0.32970
3394.69959,0.33083
3393.66933,0.33173
3392.63908,0.33177
3391.60882,0.33232
3390.57856,0.33410
3389.54830,0.33591
3388.51804,0.33717
3387.48779,0.33789
3386.45753,0.33822
3385.42727,0.33889
3384.39701,0.34024
3383.36676,0.34151
3382.33650,0.34215
3381.30624,0.34288
3380.27598,0.34415
3379.24572,0.34541
3378.21547,0.34617
3377.18521,0.34658
3376.15495,0.34693
3375.12469,0.34733
3374.09443,0.34818
3373.06418,0.34918
3372.03392,0.34927
3371.00366,0.34866
3369.97340,0.34871
3368.94315,0.34940
3367.91289,0.34984
3366.88263,0.35028
3365.85237,0.35144
3364.82211,0.35293
3363.79186,0.35378
3362.76160,0.35396
3361.73134,0.35391
3360.70108,0.35406
3359.67082,0.35466
3358.64057,0.35511
3357.61031,0.35506
3356.58005,0.35503
3355.54979,0.35554
3354.51954,0.35628
3353.48928,0.35680
3352.45902,0.35713
3351.42876,0.35722
3350.39850,0.35742
3349.36825,0.35793
3348.33799,0.35826
3347.30773,0.35821
3346.27747,0.35775
3345.24721,0.35715
3344.21696,0.35730
3343.18670,0.35829
3342.15644,0.35921
3341.12618,0.35974
3340.09593,0.36019
3339.06567,0.36072
3338.03541,0.36108
3337.00515,0.36139
3335.97489,0.36154
3334.94464,0.36133
3333.91438,0.36122
3332.88412,0.36143
3331.85386,0.36189
3330.82361,0.36238
3329.79335,0.36235
3328.76309,0.36162
3327.73283,0.36062
3326.70257,0.36021
3325.67232,0.36106
3324.64206,0.36197
3323.61180,0.36193
3322.58154,0.36191
3321.55128,0.36213
3320.52103,0.36208
3319.49077,0.36164
3318.46051,0.36142
3317.43025,0.36170
3316.40000,0.36188
3315.36974,0.36182
3314.33948,0.36194
3313.30922,0.36221
3312.27896,0.36193
3311.24871,0.36125
3310.21845,0.36100
3309.18819,0.36075
3308.15793,0.36048
3307.12767,0.36061
3306.09742,0.36073
3305.06716,0.36075
3304.03690,0.36073
3303.00664,0.36047
3301.97639,0.36004
3300.94613,0.35997
3299.91587,0.36047
3298.88561,0.36106
3297.85535,0.36112
3296.82510,0.36053
3295.79484,0.36029
3294.76458,0.36099
3293.73432,0.36146
3292.70406,0.36126
3291.67381,0.36131
3290.64355,0.36149
3289.61329,0.36135
3288.58303,0.36108
3287.55278,0.36071
3286.52252,0.36017
3285.49226,0.36017
3284.46200,0.36107
3283.43174,0.36185
3282.40149,0.36195
3281.37123,0.36134
3280.34097,0.36044
3279.31071,0.35987
3278.28046,0.35956
3277.25020,0.35970
3276.21994,0.36038
3275.18968,0.36131
3274.15942,0.36191
3273.12917,0.36167
3272.09891,0.36096
3271.06865,0.36035
3270.03839,0.36010
3269.00813,0.36033
3267.97788,0.36118
3266.94762,0.36197
3265.91736,0.36170
3264.88710,0.36110
3263.85685,0.36098
3262.82659,0.36097
3261.79633,0.36080
3260.76607,0.36073
3259.73581,0.36087
3258.70556,0.36112
3257.67530,0.36165
3256.64504,0.36207
3255.61478,0.36143
3254.58452,0.36058
3253.55427,0.36044
3252.52401,0.35984
3251.49375,0.35885
3250.46349,0.35891
3249.43324,0.35966
3248.40298,0.35958
3247.37272,0.35841
3246.34246,0.35753
3245.31220,0.35735
3244.28195,0.35714
3243.25169,0.35694
3242.22143,0.35717
3241.19117,0.35692
3240.16092,0.35563
3239.13066,0.35492
3238.10040,0.35531
3237.07014,0.35528
3236.03988,0.35419
3235.00963,0.35261
3233.97937,0.35142
3232.94911,0.35141
3231.91885,0.35203
3230.88859,0.35183
3229.85834,0.35104
3228.82808,0.35082
3227.79782,0.35086
3226.76756,0.35040
3225.73731,0.34934
3224.70705,0.34813
3223.67679,0.34759
3222.64653,0.34735
3221.61627,0.34641
3220.58602,0.34515
3219.55576,0.34405
3218.52550,0.34310
3217.49524,0.34256
3216.46498,0.34220
3215.43473,0.34166
3214.40447,0.34073
3213.37421,0.33932
3212.34395,0.33803
3211.31370,0.33733
3210.28344,0.33670
3209.25318,0.33561
3208.22292,0.33459
3207.19266,0.33390
3206.16241,0.33266
3205.13215,0.33094
3204.10189,0.33005
3203.07163,0.32975
3202.04137,0.32872
3201.01112,0.32730
3199.98086,0.32614
3198.95060,0.32481
3197.92034,0.32346
3196.89009,0.32185
3195.85983,0.31940
3194.82957,0.31709
3193.79931,0.31590
3192.76905,0.31524
3191.73880,0.31393
3190.70854,0.31206
3189.67828,0.31062
3188.64802,0.30998
3187.61777,0.30955
3186.58751,0.30847
3185.55725,0.30680
3184.52699,0.30515
3183.49673,0.30326
3182.46648,0.30078
3181.43622,0.29893
3180.40596,0.29823
3179.37570,0.29756
3178.34544,0.29620
3177.31519,0.29402
3176.28493,0.29167
3175.25467,0.29007
3174.22441,0.28918
3173.19416,0.28821
3172.16390,0.28655
3171.13364,0.28439
3170.10338,0.28218
3169.07312,0.28026
3168.04287,0.27866
3167.01261,0.27728
3165.98235,0.27603
3164.95209,0.27462
3163.92183,0.27290
3162.89158,0.27074
3161.86132,0.26816
3160.83106,0.26599
3159.80080,0.26490
3158.77055,0.26411
3157.74029,0.26274
3156.71003,0.26066
3155.67977,0.25824
3154.64951,0.25621
3153.61926,0.25440
3152.58900,0.25224
3151.55874,0.25039
3150.52848,0.24935
3149.49822,0.24823
3148.46797,0.24637
3147.43771,0.24425
3146.40745,0.24235
3145.37719,0.24049
3144.34694,0.23862
3143.31668,0.23690
3142.28642,0.23529
3141.25616,0.23365
3140.22590,0.23214
3139.19565,0.23079
3138.16539,0.22900
3137.13513,0.22674
3136.10487,0.22479
3135.07462,0.22311
3134.04436,0.22146
3133.01410,0.22023
3131.98384,0.21903
3130.95358,0.21724
3129.92333,0.21528
3128.89307,0.21338
3127.86281,0.21146
3126.83255,0.20974
3125.80229,0.20810
3124.77204,0.20613
3123.74178,0.20387
3122.71152,0.20165
3121.68126,0.19963
3120.65101,0.19834
3119.62075,0.19743
3118.59049,0.19571
3117.56023,0.19371
3116.52997,0.19228
3115.49972,0.19085
3114.46946,0.18909
3113.43920,0.18712
3112.40894,0.18524
3111.37868,0.18360
3110.34843,0.18190
3109.31817,0.18036
3108.28791,0.17901
3107.25765,0.17740
3106.22740,0.17546
3105.19714,0.17363
3104.16688,0.17231
3103.13662,0.17112
3102.10636,0.16960
3101.07611,0.16813
3100.04585,0.16713
3099.01559,0.16591
3097.98533,0.16400
3096.95507,0.16172
3095.92482,0.15963
3094.89456,0.15852
3093.86430,0.15774
3092.83404,0.15616
3091.80379,0.15425
3090.77353,0.15263
3089.74327,0.15105
3088.71301,0.14953
3087.68275,0.14826
3086.65250,0.14699
3085.62224,0.14559
3084.59198,0.14422
3083.56172,0.14300
3082.53147,0.14177
3081.50121,0.14044
3080.47095,0.13919
3079.44069,0.13796
3078.41043,0.13684
3077.38018,0.13594
3076.34992,0.13479
3075.31966,0.13332
3074.28940,0.13189
3073.25914,0.13066
3072.22889,0.12936
3071.19863,0.12792
3070.16837,0.12675
3069.13811,0.12578
3068.10786,0.12456
3067.07760,0.12326
3066.04734,0.12210
3065.01708,0.12091
3063.98682,0.11971
3062.95657,0.11863
3061.92631,0.11745
3060.89605,0.11630
3059.86579,0.11550
3058.83553,0.11451
3057.80528,0.11304
3056.77502,0.11159
3055.74476,0.11018
3054.71450,0.10872
3053.68425,0.10744
3052.65399,0.10666
3051.62373,0.10616
3050.59347,0.10528
3049.56321,0.10391
3048.53296,0.10251
3047.50270,0.10171
3046.47244,0.10123
3045.44218,0.10027
3044.41192,0.09913
3043.38167,0.09828
3042.35141,0.09739
3041.32115,0.09644
3040.29089,0.09559
3039.26064,0.09457
3038.23038,0.09349
3037.20012,0.09270
3036.16986,0.09188
3035.13960,0.09081
3034.10935,0.09009
3033.07909,0.08955
3032.04883,0.08847
3031.01857,0.08718
3029.98832,0.08604
3028.95806,0.08505
3027.92780,0.08410
3026.89754,0.08298
3025.86728,0.08193
3024.83703,0.08126
3023.80677,0.08069
3022.77651,0.07981
3021.74625,0.07870
3020.71599,0.07792
3019.68574,0.07757
3018.65548,0.07721
3017.62522,0.07672
3016.59496,0.07624
3015.56471,0.07572
3014.53445,0.07474
3013.50419,0.07325
3012.47393,0.07194
3011.44367,0.07138
3010.41342,0.07113
3009.38316,0.07042
3008.35290,0.06935
3007.32264,0.06850
3006.29238,0.06803
3005.26213,0.06753
3004.23187,0.06686
3003.20161,0.06622
3002.17135,0.06564
3001.14110,0.06521
3000.11084,0.06479
2999.08058,0.06401
2998.05032,0.06297
2997.02006,0.06207
2995.98981,0.06149
2994.95955,0.06094
2993.92929,0.06038
2992.89903,0.05989
2991.86877,0.05909
2990.83852,0.05827
2989.80826,0.05800
2988.77800,0.05782
2987.74774,0.05707
2986.71749,0.05599
2985.68723,0.05512
2984.65697,0.05474
2983.62671,0.05455
2982.59645,0.05399
2981.56620,0.05321
2980.53594,0.05262
2979.50568,0.05229
2978.47542,0.05207
2977.44517,0.05190
2976.41491,0.05167
2975.38465,0.05127
2974.35439,0.05048
2973.32413,0.04950
2972.29388,0.04900
2971.26362,0.04871
2970.23336,0.04816
2969.20310,0.04767
2968.17284,0.04746
2967.14259,0.04721
2966.11233,0.04664
2965.08207,0.04605
2964.05181,0.04564
2963.02156,0.04513
2961.99130,0.04440
2960.96104,0.04366
2959.93078,0.04314
2958.90052,0.04290
2957.87027,0.04251
2956.84001,0.04203
2955.80975,0.04179
2954.77949,0.04146
2953.74923,0.04092
2952.71898,0.04060
2951.68872,0.04062
2950.65846,0.04046
2949.62820,0.03974
2948.59795,0.03887
2947.56769,0.03835
2946.53743,0.03798
2945.50717,0.03768
2944.47691,0.03757
2943.44666,0.03709
2942.41640,0.03623
2941.38614,0.03584
2940.35588,0.03574
2939.32562,0.03533
2938.29537,0.03486
2937.26511,0.03469
2936.23485,0.03471
2935.20459,0.03457
2934.17434,0.03395
2933.14408,0.03318
2932.11382,0.03282
2931.08356,0.03288
2930.05330,0.03292
2929.02305,0.03268
2927.99279,0.03224
2926.96253,0.03171
2925.93227,0.03114
2924.90202,0.03075
2923.87176,0.03056
2922.84150,0.03025
2921.81124,0.02989
2920.78098,0.02967
2919.75073,0.02953
2918.72047,0.02929
2917.69021,0.02890
2916.65995,0.02881
2915.62969,0.02909
2914.59944,0.02887
2913.56918,0.02816
2912.53892,0.02789
2911.50866,0.02785
2910.47841,0.02754
2909.44815,0.02720
2908.41789,0.02688
2907.38763,0.02647
2906.35737,0.02600
2905.32712,0.02577
2904.29686,0.02573
2903.26660,0.02556
2902.23634,0.02538
2901.20608,0.02498
2900.17583,0.02433
2899.14557,0.02401
2898.11531,0.02409
2897.08505,0.02434
2896.05480,0.02448
2895.02454,0.02412
2893.99428,0.02345
2892.96402,0.02287
2891.93376,0.02262
2890.90351,0.02276
2889.87325,0.02284
2888.84299,0.02236
2887.81273,0.02171
2886.78247,0.02137
2885.75222,0.02126
2884.72196,0.02122
2883.69170,0.02119
2882.66144,0.02115
2881.63119,0.02119
2880.60093,0.02121
2879.57067,0.02089
2878.54041,0.02032
2877.51015,0.01982
2876.47990,0.01958
2875.44964,0.01952
2874.41938,0.01933
2873.38912,0.01915
2872.35887,0.01931
2871.32861,0.01950
2870.29835,0.01933
2869.26809,0.01898
2868.23783,0.01872
2867.20758,0.01867
2866.17732,0.01866
2865.14706,0.01832
2864.11680,0.01785
2863.08654,0.01759
2862.05629,0.01749
2861.02603,0.01754
2859.99577,0.01773
2858.96551,0.01780
2857.93526,0.01753
2856.90500,0.01717
2855.87474,0.01703
2854.84448,0.01692
2853.81422,0.01672
2852.78397,0.01641
2851.75371,0.01613
2850.72345,0.01597
2849.69319,0.01583
2848.66293,0.01577
2847.63268,0.01571
2846.60242,0.01543
2845.57216,0.01531
2844.54190,0.01551
2843.51165,0.01553
2842.48139,0.01524
2841.45113,0.01488
2840.42087,0.01458
2839.39061,0.01456
2838.36036,0.01468
2837.33010,0.01444
2836.29984,0.01408
2835.26958,0.01401
2834.23933,0.01402
2833.20907,0.01397
2832.17881,0.01400
2831.14855,0.01396
2830.11829,0.01377
2829.08804,0.01363
2828.05778,0.01354
2827.02752,0.01325
2825.99726,0.01296
2824.96700,0.01299
2823.93675,0.01295
2822.90649,0.01275
2821.87623,0.01282
2820.84597,0.01298
2819.81572,0.01295
2818.78546,0.01275
2817.75520,0.01242
2816.72494,0.01229
2815.69468,0.01238
2814.66443,0.01248
2813.63417,0.01256
2812.60391,0.01240
2811.57365,0.01197
2810.54339,0.01166
2809.51314,0.01174
2808.48288,0.01205
2807.45262,0.01224
2806.42236,0.01217
2805.39211,0.01193
2804.36185,0.01172
2803.33159,0.01177
2802.30133,0.01180
2801.27107,0.01157
2800.24082,0.01134
2799.21056,0.01110
2798.18030,0.01082
2797.15004,0.01080
2796.11978,0.01106
2795.08953,0.01119
2794.05927,0.01087
2793.02901,0.01041
2791.99875,0.01034
2790.96850,0.01063
2789.93824,0.01091
2788.90798,0.01100
2787.87772,0.01079
2786.84746,0.01051
2785.81721,0.01043
2784.78695,0.01029
2783.75669,0.01000
2782.72643,0.00978
2781.69618,0.00983
2780.66592,0.00985
2779.63566,0.00956
2778.60540,0.00941
2777.57514,0.00964
2776.54489,0.00987
2775.51463,0.00982
2774.48437,0.00951
2773.45411,0.00912
2772.42385,0.00884
2771.39360,0.00872
2770.36334,0.00878
2769.33308,0.00903
2768.30282,0.00923
2767.27257,0.00934
2766.24231,0.00938
2765.21205,0.00926
2764.18179,0.00913
2763.15153,0.00925
2762.12128,0.00947
2761.09102,0.00931
2760.06076,0.00875
2759.03050,0.00831
2758.00024,0.00828
2756.96999,0.00837
2755.93973,0.00846
2754.90947,0.00852
2753.87921,0.00855
2752.84896,0.00867
2751.81870,0.00857
2750.78844,0.00810
2749.75818,0.00783
2748.72792,0.00789
2747.69767,0.00793
2746.66741,0.00800
2745.63715,0.00808
2744.60689,0.00810
2743.57663,0.00821
2742.54638,0.00828
2741.51612,0.00813
2740.48586,0.00801
2739.45560,0.00801
2738.42535,0.00787
2737.39509,0.00766
2736.36483,0.00766
2735.33457,0.00785
2734.30431,0.00792
2733.27406,0.00774
2732.24380,0.00746
2731.21354,0.00723
2730.18328,0.00710
2729.15303,0.00723
2728.12277,0.00766
2727.09251,0.00801
2726.06225,0.00795
2725.03199,0.00769
2724.00174,0.00754
2722.97148,0.00747
2721.94122,0.00729
2720.91096,0.00704
2719.88070,0.00684
2718.85045,0.00669
2717.82019,0.00673
2716.78993,0.00705
2715.75967,0.00728
2714.72942,0.00717
2713.69916,0.00701
2712.66890,0.00696
2711.63864,0.00697
2710.60838,0.00704
2709.57813,0.00703
2708.54787,0.00692
2707.51761,0.00689
2706.48735,0.00688
2705.45709,0.00688
2704.42684,0.00692
2703.39658,0.00694
2702.36632,0.00704
2701.33606,0.00723
2700.30581,0.00735
2699.27555,0.00730
2698.24529,0.00699
2697.21503,0.00662
2696.18477,0.00642
2695.15452,0.00634
2694.12426,0.00642
2693.09400,0.00658
2692.06374,0.00651
2691.03348,0.00644
2690.00323,0.00667
2688.97297,0.00690
2687.94271,0.00681
2686.91245,0.00665
2685.88220,0.00671
2684.85194,0.00683
2683.82168,0.00675
2682.79142,0.00656
2681.76116,0.00657
2680.73091,0.00681
2679.70065,0.00692
2678.67039,0.00672
2677.64013,0.00633
2676.60988,0.00590
2675.57962,0.00565
2674.54936,0.00576
2673.51910,0.00597
2672.48884,0.00601
2671.45859,0.00592
2670.42833,0.00601
2669.39807,0.00624
2668.36781,0.00620
2667.33755,0.00614
2666.30730,0.00623
2665.27704,0.00622
2664.24678,0.00621
2663.21652,0.00628
2662.18627,0.00630
2661.15601,0.00626
2660.12575,0.00632
2659.09549,0.00635
2658.06523,0.00615
2657.03498,0.00600
2656.00472,0.00608
2654.97446,0.00618
2653.94420,0.00612
2652.91394,0.00589
2651.88369,0.00582
2650.85343,0.00607
2649.82317,0.00613
2648.79291,0.00575
2647.76266,0.00544
2646.73240,0.00541
2645.70214,0.00533
2644.67188,0.00531
2643.64162,0.00572
2642.61137,0.00601
2641.58111,0.00582
2640.55085,0.00575
2639.52059,0.00584
2638.49033,0.00577
2637.46008,0.00575
2636.42982,0.00588
2635.39956,0.00593
2634.36930,0.00577
2633.33905,0.00565
2632.30879,0.00582
2631.27853,0.00620
2630.24827,0.00646
2629.21801,0.00640
2628.18776,0.00629
2627.15750,0.00623
2626.12724,0.00623
2625.09698,0.00638
2624.06673,0.00627
2623.03647,0.00591
2622.00621,0.00595
2620.97595,0.00632
2619.94569,0.00654
2618.91544,0.00655
2617.88518,0.00632
2616.85492,0.00600
2615.82466,0.00557
2614.79440,0.00509
2613.76415,0.00510
2612.73389,0.00538
2611.70363,0.00549
2610.67337,0.00574
2609.64312,0.00613
2608.61286,0.00626
2607.58260,0.00601
2606.55234,0.00564
2605.52208,0.00550
2604.49183,0.00564
2603.46157,0.00597
2602.43131,0.00635
2601.40105,0.00646
2600.37079,0.00624
2599.34054,0.00587
2598.31028,0.00554
2597.28002,0.00549
2596.24976,0.00560
2595.21951,0.00560
2594.18925,0.00561
2593.15899,0.00590
2592.12873,0.00613
2591.09847,0.00615
2590.06822,0.00631
2589.03796,0.00617
2588.00770,0.00568
2586.97744,0.00553
2585.94718,0.00565
2584.91693,0.00583
2583.88667,0.00600
2582.85641,0.00603
2581.82615,0.00611
2580.79590,0.00637
2579.76564,0.00639
2578.73538,0.00609
2577.70512,0.00598
2576.67486,0.00625
2575.64461,0.00640
2574.61435,0.00606
2573.58409,0.00594
2572.55383,0.00641
2571.52358,0.00675
2570.49332,0.00651
2569.46306,0.00608
2568.43280,0.00565
2567.40254,0.00533
2566.37229,0.00564
2565.34203,0.00636
2564.31177,0.00670
2563.28151,0.00645
2562.25125,0.00602
2561.22100,0.00602
2560.19074,0.00628
2559.16048,0.00641
2558.13022,0.00663
2557.09997,0.00660
2556.06971,0.00611
2555.03945,0.00606
2554.00919,0.00659
2552.97893,0.00670
2551.94868,0.00619
2550.91842,0.00598
2549.88816,0.00625
2548.85790,0.00655
2547.82764,0.00646
2546.79739,0.00587
2545.76713,0.00568
2544.73687,0.00612
2543.70661,0.00625
2542.67636,0.00594
2541.64610,0.00603
2540.61584,0.00663
2539.58558,0.00686
2538.55532,0.00653
2537.52507,0.00625
2536.49481,0.00615
2535.46455,0.00626
2534.43429,0.00637
2533.40403,0.00621
2532.37378,0.00620
2531.34352,0.00641
2530.31326,0.00665
2529.28300,0.00669
2528.25275,0.00636
2527.22249,0.00602
2526.19223,0.00616
2525.16197,0.00662
2524.13171,0.00687
2523.10146,0.00692
2522.07120,0.00719
2521.04094,0.00747
2520.01068,0.00728
2518.98043,0.00685
2517.95017,0.00635
2516.91991,0.00599
2515.88965,0.00626
2514.85939,0.00671
2513.82914,0.00659
2512.79888,0.00626
2511.76862,0.00636
2510.73836,0.00658
2509.70810,0.00656
2508.67785,0.00645
2507.64759,0.00628
2506.61733,0.00611
2505.58707,0.00624
2504.55682,0.00667
2503.52656,0.00687
2502.49630,0.00639
2501.46604,0.00605
2500.43578,0.00669
2499.40553,0.00742
2498.37527,0.00759
2497.34501,0.00770
2496.31475,0.00778
2495.28449,0.00767
2494.25424,0.00751
2493.22398,0.00740
2492.19372,0.00768
2491.16346,0.00809
2490.13321,0.00774
2489.10295,0.00692
2488.07269,0.00682
2487.04243,0.00756
2486.01217,0.00788
2484.98192,0.00722
2483.95166,0.00644
2482.92140,0.00640
2481.89114,0.00685
2480.86088,0.00698
2479.83063,0.00678
2478.80037,0.00688
2477.77011,0.00738
2476.73985,0.00807
2475.70960,0.00871
2474.67934,0.00870
2473.64908,0.00812
2472.61882,0.00798
2471.58856,0.00824
2470.55831,0.00811
2469.52805,0.00778
2468.49779,0.00759
2467.46753,0.00735
2466.43728,0.00736
2465.40702,0.00774
2464.37676,0.00772
2463.34650,0.00728
2462.31624,0.00730
2461.28599,0.00773
2460.25573,0.00783
2459.22547,0.00775
2458.19521,0.00796
2457.16495,0.00810
2456.13470,0.00782
2455.10444,0.00754
2454.07418,0.00769
2453.04392,0.00810
2452.01367,0.00846
2450.98341,0.00854
2449.95315,0.00829
2448.92289,0.00810
2447.89263,0.00818
2446.86238,0.00838
2445.83212,0.00851
2444.80186,0.00836
2443.77160,0.00792
2442.74134,0.00784
2441.71109,0.00826
2440.68083,0.00828
2439.65057,0.00779
2438.62031,0.00778
2437.59006,0.00843
2436.55980,0.00894
2435.52954,0.00896
2434.49928,0.00888
2433.46902,0.00877
2432.43877,0.00857
2431.40851,0.00848
2430.37825,0.00847
2429.34799,0.00847
2428.31774,0.00859
2427.28748,0.00892
2426.25722,0.00945
2425.22696,0.00980
2424.19670,0.00961
2423.16645,0.00917
2422.13619,0.00887
2421.10593,0.00869
2420.07567,0.00882
2419.04541,0.00924
2418.01516,0.00931
2416.98490,0.00893
2415.95464,0.00862
2414.92438,0.00855
2413.89413,0.00870
2412.86387,0.00923
2411.83361,0.00988
2410.80335,0.01002
2409.77309,0.00973
2408.74284,0.00942
2407.71258,0.00929
2406.68232,0.00927
2405.65206,0.00903
2404.62180,0.00879
2403.59155,0.00888
2402.56129,0.00928
2401.53103,0.00980
2400.50077,0.00995
2399.47052,0.00973
2398.44026,0.00964
2397.41000,0.00977
2396.37974,0.01001
2395.34948,0.01029
2394.31923,0.01035
2393.28897,0.00997
2392.25871,0.00960
2391.22845,0.00986
2390.19819,0.01050
2389.16794,0.01073
2388.13768,0.01054
2387.10742,0.01052
2386.07716,0.01062
2385.04691,0.01066
2384.01665,0.01073
2382.98639,0.01080
2381.95613,0.01079
2380.92587,0.01083
2379.89562,0.01101
2378.86536,0.01091
2377.83510,0.01066
2376.80484,0.01074
2375.77459,0.01101
2374.74433,0.01128
2373.71407,0.01124
2372.68381,0.01102
2371.65355,0.01109
2370.62330,0.01123
2369.59304,0.01082
2368.56278,0.00984
2367.53252,0.00940
2366.50226,0.01003
2365.47201,0.01131
2364.44175,0.01256
2363.41149,0.01303
2362.38123,0.01276
2361.35098,0.01211
2360.32072,0.01113
2359.29046,0.01020
2358.26020,0.01004
2357.22994,0.01036
2356.19969,0.01105
2355.16943,0.01210
2354.13917,0.01213
2353.10891,0.01131
2352.07865,0.01110
2351.04840,0.01158
2350.01814,0.01198
2348.98788,0.01218
2347.95762,0.01227
2346.92737,0.01194
2345.89711,0.01146
2344.86685,0.01158
2343.83659,0.01187
2342.80633,0.01197
2341.77608,0.01249
2340.74582,0.01313
2339.71556,0.01296
2338.68530,0.01233
2337.65504,0.01207
2336.62479,0.01215
2335.59453,0.01218
2334.56427,0.01228
2333.53401,0.01279
2332.50376,0.01327
2331.47350,0.01326
2330.44324,0.01329
2329.41298,0.01337
2328.38272,0.01280
2327.35247,0.01189
2326.32221,0.01160
2325.29195,0.01211
2324.26169,0.01261
2323.23144,0.01253
2322.20118,0.01270
2321.17092,0.01368
2320.14066,0.01437
2319.11040,0.01382
2318.08015,0.01304
2317.04989,0.01294
2316.01963,0.01312
2314.98937,0.01344
2313.95911,0.01358
2312.92886,0.01267
2311.89860,0.01152
2310.86834,0.01155
2309.83808,0.01228
2308.80783,0.01269
2307.77757,0.01296
2306.74731,0.01342
2305.71705,0.01351
2304.68679,0.01353
2303.65654,0.01399
2302.62628,0.01412
2301.59602,0.01363
2300.56576,0.01352
2299.53550,0.01378
2298.50525,0.01364
2297.47499,0.01338
2296.44473,0.01357
2295.41447,0.01393
2294.38422,0.01411
2293.35396,0.01441
2292.32370,0.01453
2291.29344,0.01432
2290.26318,0.01440
2289.23293,0.01453
2288.20267,0.01433
2287.17241,0.01410
2286.14215,0.01412
2285.11189,0.01398
2284.08164,0.01338
2283.05138,0.01320
2282.02112,0.01399
2280.99086,0.01444
2279.96061,0.01403
2278.93035,0.01429
2277.90009,0.01480
2276.86983,0.01414
2275.83957,0.01349
2274.80932,0.01422
2273.77906,0.01555
2272.74880,0.01594
2271.71854,0.01510
2270.68829,0.01431
2269.65803,0.01415
2268.62777,0.01407
2267.59751,0.01401
2266.56725,0.01431
2265.53700,0.01486
2264.50674,0.01519
2263.47648,0.01462
2262.44622,0.01385
2261.41596,0.01433
2260.38571,0.01552
2259.35545,0.01600
2258.32519,0.01579
2257.29493,0.01598
2256.26468,0.01622
2255.23442,0.01573
2254.20416,0.01521
2253.17390,0.01560
2252.14364,0.01641
2251.11339,0.01665
2250.08313,0.01682
2249.05287,0.01681
2248.02261,0.01599
2246.99235,0.01506
2245.96210,0.01492
2244.93184,0.01593
2243.90158,0.01703
2242.87132,0.01710
2241.84107,0.01706
2240.81081,0.01724
2239.78055,0.01676
2238.75029,0.01602
2237.72003,0.01525
2236.68978,0.01461
2235.65952,0.01475
2234.62926,0.01547
2233.59900,0.01628
2232.56874,0.01689
2231.53849,0.01717
2230.50823,0.01752
2229.47797,0.01855
2228.44771,0.01963
2227.41746,0.01983
2226.38720,0.01922
2225.35694,0.01836
2224.32668,0.01773
2223.29642,0.01704
2222.26617,0.01658
2221.23591,0.01670
2220.20565,0.01684
2219.17539,0.01735
2218.14514,0.01808
2217.11488,0.01861
2216.08462,0.01939
2215.05436,0.01919
2214.02410,0.01794
2212.99385,0.01759
2211.96359,0.01777
2210.93333,0.01763
2209.90307,0.01688
2208.87281,0.01620
2207.84256,0.01679
2206.81230,0.01772
2205.78204,0.01894
2204.75178,0.02012
2203.72153,0.01982
2202.69127,0.01974
2201.66101,0.02028
2200.63075,0.01949
2199.60049,0.01922
2198.57024,0.01968
2197.53998,0.01813
2196.50972,0.01671
2195.47946,0.01714
2194.44920,0.01787
2193.41895,0.01861
2192.38869,0.01922
2191.35843,0.01944
2190.32817,0.01989
2189.29792,0.02096
2188.26766,0.02107
2187.23740,0.01961
2186.20714,0.01972
2185.17688,0.02183
2184.14663,0.02258
2183.11637,0.02215
2182.08611,0.02166
2181.05585,0.02024
2180.02559,0.01889
2178.99534,0.01867
2177.96508,0.01903
2176.93482,0.02015
2175.90456,0.02167
2174.87431,0.02158
2173.84405,0.02021
2172.81379,0.01923
2171.78353,0.01886
2170.75327,0.01971
2169.72302,0.02118
2168.69276,0.02257
2167.66250,0.02448
2166.63224,0.02451
2165.60199,0.02244
2164.57173,0.02202
2163.54147,0.02212
2162.51121,0.02052
2161.48095,0.01903
2160.45070,0.01886
2159.42044,0.01987
2158.39018,0.02108
2157.35992,0.02154
2156.32966,0.02208
2155.29941,0.02174
2154.26915,0.01939
2153.23889,0.01773
2152.20863,0.01885
2151.17838,0.02142
2150.14812,0.02281
2149.11786,0.02171
2148.08760,0.02032
2147.05734,0.02070
2146.02709,0.02158
2144.99683,0.02210
2143.96657,0.02300
2142.93631,0.02358
2141.90605,0.02281
2140.87580,0.02135
2139.84554,0.02041
2138.81528,0.02083
2137.78502,0.02173
2136.75477,0.02147
2135.72451,0.02011
2134.69425,0.01928
2133.66399,0.01994
2132.63373,0.02079
2131.60348,0.02139
2130.57322,0.02268
2129.54296,0.02363
2128.51270,0.02307
2127.48244,0.02246
2126.45219,0.02274
2125.42193,0.02321
2124.39167,0.02349
2123.36141,0.02317
2122.33116,0.02258
2121.30090,0.02241
2120.27064,0.02214
2119.24038,0.02178
2118.21012,0.02263
2117.17987,0.02400
2116.14961,0.02352
2115.11935,0.02207
2114.08909,0.02203
2113.05884,0.02304
2112.02858,0.02372
2110.99832,0.02339
2109.96806,0.02204
2108.93780,0.02134
2107.90755,0.02204
2106.87729,0.02246
2105.84703,0.02197
2104.81677,0.02150
2103.78651,0.02155
2102.75626,0.02121
2101.72600,0.02029
2100.69574,0.02040
2099.66548,0.02149
2098.63523,0.02217
2097.60497,0.02251
2096.57471,0.02311
2095.54445,0.02359
2094.51419,0.02397
2093.48394,0.02439
2092.45368,0.02419
2091.42342,0.02334
2090.39316,0.02224
2089.36290,0.02159
2088.33265,0.02183
2087.30239,0.02230
2086.27213,0.02198
2085.24187,0.02101
2084.21162,0.02103
2083.18136,0.02203
2082.15110,0.02253
2081.12084,0.02268
2080.09058,0.02296
2079.06033,0.02259
2078.03007,0.02169
2076.99981,0.02154
2075.96955,0.02192
2074.93930,0.02158
2073.90904,0.02109
2072.87878,0.02184
2071.84852,0.02257
2070.81826,0.02213
2069.78801,0.02188
2068.75775,0.02201
2067.72749,0.02140
2066.69723,0.02037
2065.66697,0.02011
2064.63672,0.02063
2063.60646,0.02170
2062.57620,0.02310
2061.54594,0.02340
2060.51569,0.02252
2059.48543,0.02232
2058.45517,0.02369
2057.42491,0.02516
2056.39465,0.02476
2055.36440,0.02341
2054.33414,0.02232
2053.30388,0.02142
2052.27362,0.02105
2051.24336,0.02093
2050.21311,0.02091
2049.18285,0.02131
2048.15259,0.02163
2047.12233,0.02160
2046.09208,0.02128
2045.06182,0.02077
2044.03156,0.02097
2043.00130,0.02223
2041.97104,0.02230
2040.94079,0.02003
2039.91053,0.01875
2038.88027,0.01950
2037.85001,0.01898
2036.81975,0.01725
2035.78950,0.01748
2034.75924,0.01916
2033.72898,0.01966
2032.69872,0.01924
2031.66847,0.01939
2030.63821,0.02009
2029.60795,0.01990
2028.57769,0.01844
2027.54743,0.01681
2026.51718,0.01622
2025.48692,0.01607
2024.45666,0.01432
2023.42640,0.01378
2022.39615,0.01618
2021.36589,0.01701
2020.33563,0.01525
2019.30537,0.01425
2018.27511,0.01433
2017.24486,0.01417
2016.21460,0.01492
2015.18434,0.01594
2014.15408,0.01529
2013.12382,0.01482
2012.09357,0.01644
2011.06331,0.01783
2010.03305,0.01719
2009.00279,0.01683
2007.97254,0.01771
2006.94228,0.01832
2005.91202,0.01807
2004.88176,0.01742
2003.85150,0.01734
2002.82125,0.01773
2001.79099,0.01740
2000.76073,0.01666
1999.73047,0.01693
1998.70021,0.01775
1997.66996,0.01755
1996.63970,0.01622
1995.60944,0.01528
1994.57918,0.01567
1993.54893,0.01614
1992.51867,0.01607
1991.48841,0.01610
1990.45815,0.01650
1989.42789,0.01709
1988.39764,0.01683
1987.36738,0.01624
1986.33712,0.01634
1985.30686,0.01639
1984.27660,0.01664
1983.24635,0.01706
1982.21609,0.01698
1981.18583,0.01675
1980.15557,0.01618
1979.12532,0.01469
1978.09506,0.01262
1977.06480,0.01181
1976.03454,0.01232
1975.00428,0.01255
1973.97403,0.01381
1972.94377,0.01611
1971.91351,0.01701
1970.88325,0.01688
1969.85300,0.01647
1968.82274,0.01552
1967.79248,0.01456
1966.76222,0.01374
1965.73196,0.01296
1964.70171,0.01306
1963.67145,0.01424
1962.64119,0.01563
1961.61093,0.01714
1960.58067,0.01821
1959.55042,0.01799
1958.52016,0.01681
1957.48990,0.01522
1956.45964,0.01369
1955.42939,0.01282
1954.39913,0.01315
1953.36887,0.01397
1952.33861,0.01412
1951.30835,0.01345
1950.27810,0.01349
1949.24784,0.01411
1948.21758,0.01369
1947.18732,0.01377
1946.15706,0.01488
1945.12681,0.01533
1944.09655,0.01485
1943.06629,0.01382
1942.03603,0.01291
1941.00578,0.01238
1939.97552,0.01242
1938.94526,0.01282
1937.91500,0.01250
1936.88474,0.01227
1935.85449,0.01287
1934.82423,0.01364
1933.79397,0.01396
1932.76371,0.01366
1931.73345,0.01348
1930.70320,0.01357
1929.67294,0.01363
1928.64268,0.01360
1927.61242,0.01342
1926.58217,0.01352
1925.55191,0.01395
1924.52165,0.01446
1923.49139,0.01507
1922.46113,0.01540
1921.43088,0.01471
1920.40062,0.01355
1919.37036,0.01305
1918.34010,0.01330
1917.30985,0.01364
1916.27959,0.01366
1915.24933,0.01360
1914.21907,0.01373
1913.18881,0.01385
1912.15856,0.01365
1911.12830,0.01351
1910.09804,0.01365
1909.06778,0.01389
1908.03752,0.01439
1907.00727,0.01486
1905.97701,0.01461
1904.94675,0.01409
1903.91649,0.01400
1902.88624,0.01417
1901.85598,0.01388
1900.82572,0.01322
1899.79546,0.01295
1898.76520,0.01286
1897.73495,0.01280
1896.70469,0.01299
1895.67443,0.01321
1894.64417,0.01340
1893.61391,0.01330
1892.58366,0.01307
1891.55340,0.01315
1890.52314,0.01340
1889.49288,0.01393
1888.46263,0.01414
1887.43237,0.01380
1886.40211,0.01367
1885.37185,0.01362
1884.34159,0.01354
1883.31134,0.01371
1882.28108,0.01388
1881.25082,0.01393
1880.22056,0.01406
1879.19030,0.01424
1878.16005,0.01405
1877.12979,0.01330
1876.09953,0.01259
1875.06927,0.01271
1874.03902,0.01319
1873.00876,0.01310
1871.97850,0.01253
1870.94824,0.01240
1869.91798,0.01289
1868.88773,0.01279
1867.85747,0.01209
1866.82721,0.01204
1865.79695,0.01267
1864.76670,0.01358
1863.73644,0.01445
1862.70618,0.01471
1861.67592,0.01419
1860.64566,0.01362
1859.61541,0.01362
1858.58515,0.01391
1857.55489,0.01400
1856.52463,0.01393
1855.49437,0.01406
1854.46412,0.01439
1853.43386,0.01455
1852.40360,0.01453
1851.37334,0.01436
1850.34309,0.01403
1849.31283,0.01378
1848.28257,0.01362
1847.25231,0.01347
1846.22205,0.01350
1845.19180,0.01380
1844.16154,0.01414
1843.13128,0.01417
1842.10102,0.01396
1841.07076,0.01394
1840.04051,0.01425
1839.01025,0.01451
1837.97999,0.01438
1836.94973,0.01401
1835.91948,0.01359
1834.88922,0.01345
1833.85896,0.01381
1832.82870,0.01426
1831.79844,0.01472
1830.76819,0.01512
1829.73793,0.01493
1828.70767,0.01475
1827.67741,0.01524
1826.64715,0.01574
1825.61690,0.01554
1824.58664,0.01488
1823.55638,0.01475
1822.52612,0.01510
1821.49587,0.01537
1820.46561,0.01534
1819.43535,0.01515
1818.40509,0.01530
1817.37483,0.01576
1816.34458,0.01588
1815.31432,0.01559
1814.28406,0.01537
1813.25380,0.01544
1812.22355,0.01557
1811.19329,0.01565
1810.16303,0.01578
1809.13277,0.01575
1808.10251,0.01567
1807.07226,0.01607
1806.04200,0.01665
1805.01174,0.01696
1803.98148,0.01702
1802.95122,0.01669
1801.92097,0.01644
1800.89071,0.01678
1799.86045,0.01703
1798.83019,0.01700
1797.79994,0.01696
1796.76968,0.01708
1795.73942,0.01754
1794.70916,0.01796
1793.67890,0.01802
1792.64865,0.01788
1791.61839,0.01794
1790.58813,0.01804
1789.55787,0.01774
1788.52761,0.01743
1787.49736,0.01751
1786.46710,0.01789
1785.43684,0.01829
1784.40658,0.01843
1783.37633,0.01851
1782.34607,0.01878
1781.31581,0.01909
1780.28555,0.01944
1779.25529,0.01976
1778.22504,0.01988
1777.19478,0.01957
1776.16452,0.01912
1775.13426,0.01925
1774.10400,0.01988
1773.07375,0.02056
1772.04349,0.02094
1771.01323,0.02076
1769.98297,0.02055
1768.95272,0.02062
1767.92246,0.02087
1766.89220,0.02124
1765.86194,0.02163
1764.83168,0.02196
1763.80143,0.02233
1762.77117,0.02255
1761.74091,0.02253
1760.71065,0.02272
1759.68040,0.02302
1758.65014,0.02319
1757.61988,0.02344
1756.58962,0.02376
1755.55936,0.02410
1754.52911,0.02454
1753.49885,0.02492
1752.46859,0.02513
1751.43833,0.02537
1750.40807,0.02562
1749.37782,0.02566
1748.34756,0.02582
1747.31730,0.02641
1746.28704,0.02702
1745.25679,0.02750
1744.22653,0.02802
1743.19627,0.02841
1742.16601,0.02868
1741.13575,0.02912
1740.10550,0.02970
1739.07524,0.03022
1738.04498,0.03080
1737.01472,0.03141
1735.98446,0.03180
1734.95421,0.03182
1733.92395,0.03198
1732.89369,0.03303
1731.86343,0.03403
1730.83318,0.03478
1729.80292,0.03550
1728.77266,0.03615
1727.74240,0.03665
1726.71214,0.03715
1725.68189,0.03789
1724.65163,0.03881
1723.62137,0.03961
1722.59111,0.04032
1721.56085,0.04107
1720.53060,0.04170
1719.50034,0.04231
1718.47008,0.04300
1717.43982,0.04373
1716.40957,0.04468
1715.37931,0.04609
1714.34905,0.04761
1713.31879,0.04867
1712.28853,0.04943
1711.25828,0.05035
1710.22802,0.05162
1709.19776,0.05296
1708.16750,0.05416
1707.13725,0.05533
1706.10699,0.05659
1705.07673,0.05801
1704.04647,0.05958
1703.01621,0.06100
1701.98596,0.06218
1700.95570,0.06332
1699.92544,0.06475
1698.89518,0.06630
1697.86492,0.06791
1696.83467,0.06967
1695.80441,0.07135
1694.77415,0.07274
1693.74389,0.07416
1692.71364,0.07576
1691.68338,0.07745
1690.65312,0.07934
1689.62286,0.08137
1688.59260,0.08315
1687.56235,0.08481
1686.53209,0.08664
1685.50183,0.08873
1684.47157,0.09108
1683.44131,0.09282
1682.41106,0.09430
1681.38080,0.09637
1680.35054,0.09895
1679.32028,0.10119
1678.29003,0.10288
1677.25977,0.10474
1676.22951,0.10684
1675.19925,0.10904
1674.16899,0.11102
1673.13874,0.11286
1672.10848,0.11504
1671.07822,0.11759
1670.04796,0.12025
1669.01771,0.12269
1667.98745,0.12467
1666.95719,0.12647
1665.92693,0.12859
1664.89667,0.13101
1663.86642,0.13335
1662.83616,0.13536
1661.80590,0.13731
1660.77564,0.13964
1659.74538,0.14210
1658.71513,0.14436
1657.68487,0.14667
1656.65461,0.14912
1655.62435,0.15133
1654.59410,0.15333
1653.56384,0.15545
1652.53358,0.15735
1651.50332,0.15866
1650.47306,0.16018
1649.44281,0.16187
1648.41255,0.16369
1647.38229,0.16574
1646.35203,0.16778
1645.32177,0.16911
1644.29152,0.17016
1643.26126,0.17128
1642.23100,0.17241
1641.20074,0.17351
1640.17049,0.17471
1639.14023,0.17571
1638.10997,0.17611
1637.07971,0.17630
1636.04945,0.17650
1635.01920,0.17597
1633.98894,0.17537
1632.95868,0.17516
1631.92842,0.17468
1630.89816,0.17404
1629.86791,0.17340
1628.83765,0.17264
1627.80739,0.17140
1626.77713,0.16976
1625.74688,0.16839
1624.71662,0.16724
1623.68636,0.16512
1622.65610,0.16208
1621.62584,0.15993
1620.59559,0.15795
1619.56533,0.15564
1618.53507,0.15374
1617.50481,0.15180
1616.47456,0.14822
1615.44430,0.14502
1614.41404,0.14296
1613.38378,0.14070
1612.35352,0.13841
1611.32327,0.13616
1610.29301,0.13371
1609.26275,0.13119
1608.23249,0.12885
1607.20223,0.12639
1606.17198,0.12374
1605.14172,0.12120
1604.11146,0.11885
1603.08120,0.11644
1602.05095,0.11408
1601.02069,0.11201
1599.99043,0.11012
1598.96017,0.10834
1597.92991,0.10648
1596.89966,0.10433
1595.86940,0.10220
1594.83914,0.10051
1593.80888,0.09918
1592.77862,0.09785
1591.74837,0.09617
1590.71811,0.09427
1589.68785,0.09247
1588.65759,0.09095
1587.62734,0.08961
1586.59708,0.08825
1585.56682,0.08697
1584.53656,0.08592
1583.50630,0.08494
1582.47605,0.08398
1581.44579,0.08296
1580.41553,0.08178
1579.38527,0.08071
1578.35501,0.07991
1577.32476,0.07934
1576.29450,0.07801
1575.26424,0.07617
1574.23398,0.07530
1573.20373,0.07471
1572.17347,0.07407
1571.14321,0.07339
1570.11295,0.07232
1569.08269,0.07108
1568.05244,0.07039
1567.02218,0.06988
1565.99192,0.06951
1564.96166,0.06908
1563.93141,0.06841
1562.90115,0.06793
1561.87089,0.06766
1560.84063,0.06747
1559.81037,0.06716
1558.78012,0.06592
1557.74986,0.06416
1556.71960,0.06356
1555.68934,0.06359
1554.65908,0.06351
1553.62883,0.06307
1552.59857,0.06265
1551.56831,0.06238
1550.53805,0.06202
1549.50780,0.06136
1548.47754,0.06076
1547.44728,0.06046
1546.41702,0.06030
1545.38676,0.05998
1544.35651,0.05960
1543.32625,0.05944
1542.29599,0.05909
1541.26573,0.05850
1540.23547,0.05796
1539.20522,0.05750
1538.17496,0.05720
1537.14470,0.05705
1536.11444,0.05696
1535.08419,0.05675
1534.05393,0.05630
1533.02367,0.05585
1531.99341,0.05567
1530.96315,0.05553
1529.93290,0.05540
1528.90264,0.05537
1527.87238,0.05537
1526.84212,0.05530
1525.81186,0.05490
1524.78161,0.05428
1523.75135,0.05398
1522.72109,0.05374
1521.69083,0.05320
1520.66058,0.05288
1519.63032,0.05320
1518.60006,0.05347
1517.56980,0.05313
1516.53954,0.05246
1515.50929,0.05225
1514.47903,0.05211
1513.44877,0.05198
1512.41851,0.05203
1511.38826,0.05202
1510.35800,0.05175
1509.32774,0.05134
1508.29748,0.05106
1507.26722,0.05113
1506.23697,0.05134
1505.20671,0.05138
1504.17645,0.05130
1503.14619,0.05117
1502.11593,0.05097
1501.08568,0.05069
1500.05542,0.05048
1499.02516,0.05043
1497.99490,0.05045
1496.96465,0.05035
1495.93439,0.05003
1494.90413,0.04981
1493.87387,0.04974
1492.84361,0.04971
1491.81336,0.04981
1490.78310,0.04989
1489.75284,0.04969
1488.72258,0.04932
1487.69232,0.04900
1486.66207,0.04891
1485.63181,0.04913
1484.60155,0.04923
1483.57129,0.04903
1482.54104,0.04887
1481.51078,0.04882
1480.48052,0.04882
1479.45026,0.04896
1478.42000,0.04905
1477.38975,0.04893
1476.35949,0.04860
1475.32923,0.04829
1474.29897,0.04825
1473.26871,0.04828
1472.23846,0.04828
1471.20820,0.04835
1470.17794,0.04840
1469.14768,0.04815
1468.11743,0.04767
1467.08717,0.04747
1466.05691,0.04754
1465.02665,0.04747
1463.99639,0.04745
1462.96614,0.04769
1461.93588,0.04771
1460.90562,0.04743
1459.87536,0.04717
1458.84511,0.04699
1457.81485,0.04692
1456.78459,0.04695
1455.75433,0.04702
1454.72407,0.04710
1453.69382,0.04707
1452.66356,0.04699
1451.63330,0.04707
1450.60304,0.04727
1449.57278,0.04727
1448.54253,0.04689
1447.51227,0.04672
1446.48201,0.04697
1445.45175,0.04698
1444.42150,0.04674
1443.39124,0.04663
1442.36098,0.04667
1441.33072,0.04669
1440.30046,0.04669
1439.27021,0.04665
1438.23995,0.04664
1437.20969,0.04675
1436.17943,0.04660
1435.14917,0.04628
1434.11892,0.04612
1433.08866,0.04619
1432.05840,0.04642
1431.02814,0.04638
1429.99789,0.04606
1428.96763,0.04594
1427.93737,0.04605
1426.90711,0.04625
1425.87685,0.04645
1424.84660,0.04656
1423.81634,0.04652
1422.78608,0.04633
1421.75582,0.04609
1420.72556,0.04598
1419.69531,0.04606
1418.66505,0.04605
1417.63479,0.04599
1416.60453,0.04595
1415.57428,0.04594
1414.54402,0.04583
1413.51376,0.04569
1412.48350,0.04571
1411.45324,0.04585
1410.42299,0.04589
1409.39273,0.04580
1408.36247,0.04589
1407.33221,0.04611
1406.30196,0.04611
1405.27170,0.04598
1404.24144,0.04613
1403.21118,0.04629
1402.18092,0.04613
1401.15067,0.04595
1400.12041,0.04599
1399.09015,0.04597
1398.05989,0.04592
1397.02963,0.04608
1395.99938,0.04614
1394.96912,0.04587
1393.93886,0.04563
1392.90860,0.04566
1391.87835,0.04569
1390.84809,0.04560
1389.81783,0.04545
1388.78757,0.04531
1387.75731,0.04539
1386.72706,0.04570
1385.69680,0.04592
1384.66654,0.04597
1383.63628,0.04598
1382.60602,0.04599
1381.57577,0.04601
1380.54551,0.04610
1379.51525,0.04611
1378.48499,0.04587
1377.45474,0.04562
1376.42448,0.04557
1375.39422,0.04554
1374.36396,0.04532
1373.33370,0.04517
1372.30345,0.04531
1371.27319,0.04544
1370.24293,0.04536
1369.21267,0.04536
1368.18241,0.04555
1367.15216,0.04557
1366.12190,0.04553
1365.09164,0.04571
1364.06138,0.04585
1363.03113,0.04571
1362.00087,0.04564
1360.97061,0.04564
1359.94035,0.04539
1358.91009,0.04513
1357.87984,0.04522
1356.84958,0.04556
1355.81932,0.04572
1354.78906,0.04559
1353.75881,0.04545
1352.72855,0.04551
1351.69829,0.04564
1350.66803,0.04565
1349.63777,0.04546
1348.60752,0.04523
1347.57726,0.04524
1346.54700,0.04541
1345.51674,0.04553
1344.48648,0.04554
1343.45623,0.04541
1342.42597,0.04538
1341.39571,0.04547
1340.36545,0.04547
1339.33520,0.04547
1338.30494,0.04560
1337.27468,0.04575
1336.24442,0.04587
1335.21416,0.04582
1334.18391,0.04542
1333.15365,0.04494
1332.12339,0.04490
1331.09313,0.04515
1330.06287,0.04539
1329.03262,0.04548
1328.00236,0.04543
1326.97210,0.04541
1325.94184,0.04556
1324.91159,0.04582
1323.88133,0.04588
1322.85107,0.04574
1321.82081,0.04568
1320.79055,0.04572
1319.76030,0.04582
1318.73004,0.04588
1317.69978,0.04571
1316.66952,0.04555
1315.63927,0.04559
1314.60901,0.04565
1313.57875,0.04574
1312.54849,0.04579
1311.51823,0.04576
1310.48798,0.04590
1309.45772,0.04619
1308.42746,0.04634
1307.39720,0.04620
1306.36694,0.04594
1305.33669,0.04576
1304.30643,0.04573
1303.27617,0.04570
1302.24591,0.04560
1301.21566,0.04573
1300.18540,0.04599
1299.15514,0.04593
1298.12488,0.04565
1297.09462,0.04557
1296.06437,0.04579
1295.03411,0.04602
1294.00385,0.04597
1292.97359,0.04554
1291.94333,0.04499
1290.91308,0.04489
1289.88282,0.04531
1288.85256,0.04568
1287.82230,0.04564
1286.79205,0.04547
1285.76179,0.04557
1284.73153,0.04575
1283.70127,0.04574
1282.67101,0.04573
1281.64076,0.04575
1280.61050,0.04570
1279.58024,0.04567
1278.54998,0.04573
1277.51972,0.04568
1276.48947,0.04553
1275.45921,0.04552
1274.42895,0.04555
1273.39869,0.04551
1272.36844,0.04551
1271.33818,0.04568
1270.30792,0.04593
1269.27766,0.04603
1268.24740,0.04586
1267.21715,0.04555
1266.18689,0.04540
1265.15663,0.04552
1264.12637,0.04560
1263.09612,0.04552
1262.06586,0.04546
1261.03560,0.04559
1260.00534,0.04575
1258.97508,0.04567
1257.94483,0.04553
1256.91457,0.04565
1255.88431,0.04581
1254.85405,0.04580
1253.82379,0.04571
1252.79354,0.04554
1251.76328,0.04534
1250.73302,0.04526
1249.70276,0.04528
1248.67251,0.04532
1247.64225,0.04543
1246.61199,0.04564
1245.58173,0.04572
1244.55147,0.04552
1243.52122,0.04533
1242.49096,0.04538
1241.46070,0.04548
1240.43044,0.04534
1239.40018,0.04502
1238.36993,0.04498
1237.33967,0.04532
1236.30941,0.04564
1235.27915,0.04576
1234.24890,0.04582
1233.21864,0.04586
1232.18838,0.04587
1231.15812,0.04581
1230.12786,0.04560
1229.09761,0.04533
1228.06735,0.04526
1227.03709,0.04540
1226.00683,0.04548
1224.97657,0.04542
1223.94632,0.04548
1222.91606,0.04566
1221.88580,0.04565
1220.85554,0.04545
1219.82529,0.04544
1218.79503,0.04562
1217.76477,0.04574
1216.73451,0.04579
1215.70425,0.04586
1214.67400,0.04572
1213.64374,0.04548
1212.61348,0.04551
1211.58322,0.04570
1210.55297,0.04588
1209.52271,0.04591
1208.49245,0.04567
1207.46219,0.04520
1206.43193,0.04479
1205.40168,0.04473
1204.37142,0.04488
1203.34116,0.04504
1202.31090,0.04531
1201.28064,0.04561
1200.25039,0.04559
1199.22013,0.04544
1198.18987,0.04547
1197.15961,0.04541
1196.12936,0.04524
1195.09910,0.04522
1194.06884,0.04527
1193.03858,0.04531
1192.00832,0.04542
1190.97807,0.04552
1189.94781,0.04553
1188.91755,0.04549
1187.88729,0.04542
1186.85703,0.04522
1185.82678,0.04497
1184.79652,0.04489
1183.76626,0.04500
1182.73600,0.04514
1181.70575,0.04524
1180.67549,0.04531
1179.64523,0.04545
1178.61497,0.04555
1177.58471,0.04547
1176.55446,0.04536
1175.52420,0.04526
1174.49394,0.04517
1173.46368,0.04506
1172.43342,0.04491
1171.40317,0.04497
1170.37291,0.04523
1169.34265,0.04537
1168.31239,0.04531
1167.28214,0.04527
1166.25188,0.04529
1165.22162,0.04525
1164.19136,0.04523
1163.16110,0.04514
1162.13085,0.04504
1161.10059,0.04516
1160.07033,0.04533
1159.04007,0.04548
1158.00982,0.04566
1156.97956,0.04568
1155.94930,0.04536
1154.91904,0.04503
1153.88878,0.04500
1152.85853,0.04510
1151.82827,0.04522
1150.79801,0.04526
1149.76775,0.04523
1148.73749,0.04526
1147.70724,0.04537
1146.67698,0.04533
1145.64672,0.04519
1144.61646,0.04534
1143.58621,0.04547
1142.55595,0.04534
1141.52569,0.04534
1140.49543,0.04546
1139.46517,0.04550
1138.43492,0.04559
1137.40466,0.04572
1136.37440,0.04577
1135.34414,0.04585
1134.31388,0.04582
1133.28363,0.04553
1132.25337,0.04535
1131.22311,0.04534
1130.19285,0.04539
1129.16260,0.04567
1128.13234,0.04583
1127.10208,0.04572
1126.07182,0.04582
1125.04156,0.04591
1124.01131,0.04559
1122.98105,0.04537
1121.95079,0.04570
1120.92053,0.04591
1119.89027,0.04571
1118.86002,0.04575
1117.82976,0.04597
1116.79950,0.04580
1115.76924,0.04553
1114.73899,0.04562
1113.70873,0.04573
1112.67847,0.04554
1111.64821,0.04537
1110.61795,0.04555
1109.58770,0.04590
1108.55744,0.04594
1107.52718,0.04572
1106.49692,0.04571
1105.46667,0.04587
1104.43641,0.04600
1103.40615,0.04610
1102.37589,0.04612
1101.34563,0.04625
1100.31538,0.04648
1099.28512,0.04656
1098.25486,0.04638
1097.22460,0.04607
1096.19434,0.04606
1095.16409,0.04636
1094.13383,0.04638
1093.10357,0.04609
1092.07331,0.04608
1091.04306,0.04662
1090.01280,0.04707
1088.98254,0.04686
1087.95228,0.04633
1086.92202,0.04596
1085.89177,0.04592
1084.86151,0.04627
1083.83125,0.04661
1082.80099,0.04661
1081.77073,0.04641
1080.74048,0.04631
1079.71022,0.04651
1078.67996,0.04672
1077.64970,0.04661
1076.61945,0.04657
1075.58919,0.04675
1074.55893,0.04656
1073.52867,0.04611
1072.49841,0.04627
1071.46816,0.04692
1070.43790,0.04715
1069.40764,0.04691
1068.37738,0.04680
1067.34712,0.04704
1066.31687,0.04724
1065.28661,0.04714
1064.25635,0.04700
1063.22609,0.04711
1062.19584,0.04747
1061.16558,0.04775
1060.13532,0.04776
1059.10506,0.04775
1058.07480,0.04777
1057.04455,0.04792
1056.01429,0.04823
1054.98403,0.04833
1053.95377,0.04819
1052.92352,0.04820
1051.89326,0.04837
1050.86300,0.04836
1049.83274,0.04813
1048.80248,0.04794
1047.77223,0.04804
1046.74197,0.04825
1045.71171,0.04838
1044.68145,0.04850
1043.65119,0.04860
1042.62094,0.04858
1041.59068,0.04871
1040.56042,0.04917
1039.53016,0.04958
1038.49991,0.04970
1037.46965,0.04965
1036.43939,0.04956
1035.40913,0.04954
1034.37887,0.04962
1033.34862,0.04989
1032.31836,0.05016
1031.28810,0.05000
1030.25784,0.04987
1029.22758,0.05006
1028.19733,0.05001
1027.16707,0.04977
1026.13681,0.04981
1025.10655,0.05012
1024.07630,0.05043
1023.04604,0.05066
1022.01578,0.05091
1020.98552,0.05110
1019.95526,0.05117
1018.92501,0.05144
1017.89475,0.05188
1016.86449,0.05198
1015.83423,0.05172
1014.80397,0.05157
1013.77372,0.05166
1012.74346,0.05170
1011.71320,0.05155
1010.68294,0.05143
1009.65269,0.05176
1008.62243,0.05250
1007.59217,0.05298
1006.56191,0.05298
1005.53165,0.05304
1004.50140,0.05317
1003.47114,0.05312
1002.44088,0.05310
1001.41062,0.05312
1000.38037,0.05323
999.35011,0.05360
998.31985,0.05397
997.28959,0.05410
996.25933,0.05416
995.22908,0.05446
994.19882,0.05481
993.16856,0.05498
992.13830,0.05523
991.10804,0.05561
990.07779,0.05599
989.04753,0.05620
988.01727,0.05613
986.98701,0.05605
985.95676,0.05625
984.92650,0.05661
983.89624,0.05703
982.86598,0.05739
981.83572,0.05745
980.80547,0.05743
979.77521,0.05767
978.74495,0.05816
977.71469,0.05876
976.68443,0.05903
975.65418,0.05897
974.62392,0.05909
973.59366,0.05928
972.56340,0.05943
971.53315,0.05976
970.50289,0.06009
969.47263,0.06043
968.44237,0.06074
967.41211,0.06069
966.38186,0.06074
965.35160,0.06136
964.32134,0.06208
963.29108,0.06257
962.26082,0.06306
961.23057,0.06353
960.20031,0.06383
959.17005,0.06426
958.13979,0.06479
957.10954,0.06486
956.07928,0.06476
955.04902,0.06500
954.01876,0.06536
952.98850,0.06560
951.95825,0.06592
950.92799,0.06644
949.89773,0.06684
948.86747,0.06712
947.83722,0.06742
946.80696,0.06772
945.77670,0.06812
944.74644,0.06887
943.71618,0.06981
942.68593,0.07048
941.65567,0.07095
940.62541,0.07163
939.59515,0.07231
938.56489,0.07255
937.53464,0.07253
936.50438,0.07286
935.47412,0.07333
934.44386,0.07349
933.41361,0.07361
932.38335,0.07420
931.35309,0.07510
930.32283,0.07565
929.29257,0.07615
928.26232,0.07693
927.23206,0.07748
926.20180,0.07787
925.17154,0.07832
924.14128,0.07877
923.11103,0.07950
922.08077,0.08052
921.05051,0.08150
920.02025,0.08202
918.99000,0.08230
917.95974,0.08319
916.92948,0.08421
915.89922,0.08455
914.86896,0.08481
913.83871,0.08547
912.80845,0.08624
911.77819,0.08691
910.74793,0.08769
909.71768,0.08867
908.68742,0.08980
907.65716,0.09107
906.62690,0.09203
905.59664,0.09239
904.56639,0.09257
903.53613,0.09308
902.50587,0.09376
901.47561,0.09429
900.44535,0.09495
899.41510,0.09603
898.38484,0.09716
897.35458,0.09813
896.32432,0.09891
895.29407,0.09932
894.26381,0.09978
893.23355,0.10087
892.20329,0.10225
891.17303,0.10342
890.14278,0.10439
889.11252,0.10516
888.08226,0.10571
887.05200,0.10646
886.02174,0.10747
884.99149,0.10826
883.96123,0.10898
882.93097,0.10981
881.90071,0.11058
880.87046,0.11141
879.84020,0.11254
878.80994,0.11389
877.77968,0.11522
876.74942,0.11629
875.71917,0.11699
874.68891,0.11751
873.65865,0.11816
872.62839,0.11888
871.59813,0.11966
870.56788,0.12079
869.53762,0.12234
868.50736,0.12406
867.47710,0.12534
866.44685,0.12597
865.41659,0.12646
864.38633,0.12732
863.35607,0.12869
862.32581,0.13032
861.29556,0.13180
860.26530,0.13284
859.23504,0.13369
858.20478,0.13481
857.17453,0.13580
856.14427,0.13639
855.11401,0.13743
854.08375,0.13914
853.05349,0.14065
852.02324,0.14182
850.99298,0.14310
849.96272,0.14432
848.93246,0.14525
847.90220,0.14601
846.87195,0.14691
845.84169,0.14807
844.81143,0.14924
843.78117,0.15025
842.75092,0.15131
841.72066,0.15245
840.69040,0.15388
839.66014,0.15560
838.62988,0.15694
837.59963,0.15797
836.56937,0.15943
835.53911,0.16102
834.50885,0.16232
833.47859,0.16340
832.44834,0.16395
831.41808,0.16446
830.38782,0.16557
829.35756,0.16709
828.32731,0.16864
827.29705,0.16964
826.26679,0.17040
825.23653,0.17162
824.20627,0.17316
823.17602,0.17449
822.14576,0.17550
821.11550,0.17654
820.08524,0.17789
819.05498,0.17944
818.02473,0.18117
816.99447,0.18287
815.96421,0.18393
814.93395,0.18478
813.90370,0.18619
812.87344,0.18773
811.84318,0.18905
810.81292,0.19033
809.78266,0.19137
808.75241,0.19203
807.72215,0.19293
806.69189,0.19463
805.66163,0.19631
804.63138,0.19752
803.60112,0.19908
802.57086,0.20087
801.54060,0.20193
800.51034,0.20227
799.48009,0.20321
798.44983,0.20524
797.41957,0.20728
796.38931,0.20884
795.35905,0.20979
794.32880,0.21017
793.29854,0.21120
792.26828,0.21347
791.23802,0.21562
790.20777,0.21639
789.17751,0.21666
788.14725,0.21767
787.11699,0.21940
786.08673,0.22133
785.05648,0.22272
784.02622,0.22376
782.99596,0.22551
781.96570,0.22777
780.93544,0.22926
779.90519,0.22989
778.87493,0.23102
777.84467,0.23302
776.81441,0.23512
775.78416,0.23696
774.75390,0.23780
773.72364,0.23796
772.69338,0.23893
771.66312,0.24020
770.63287,0.24079
769.60261,0.24164
768.57235,0.24308
767.54209,0.24459
766.51183,0.24637
765.48158,0.24811
764.45132,0.24958
763.42106,0.25121
762.39080,0.25302
761.36055,0.25494
760.33029,0.25629
759.30003,0.25664
758.26977,0.25743
757.23951,0.25957
756.20926,0.26187
755.17900,0.26346
754.14874,0.26467
753.11848,0.26592
752.08823,0.26739
751.05797,0.26898
750.02771,0.27010
748.99745,0.27083
747.96719,0.27231
746.93694,0.27422
745.90668,0.27559
744.87642,0.27658
743.84616,0.27776
742.81590,0.27927
741.78565,0.28084
740.75539,0.28249
739.72513,0.28403
738.69487,0.28498
737.66462,0.28548
736.63436,0.28621
735.60410,0.28778
734.57384,0.28967
733.54358,0.29094
732.51333,0.29210
731.48307,0.29398
730.45281,0.29634
729.42255,0.29831
728.39229,0.29989
727.36204,0.30158
726.33178,0.30278
725.30152,0.30341
724.27126,0.30453
723.24101,0.30647
722.21075,0.30813
721.18049,0.30915
720.15023,0.31015
719.11997,0.31137
718.08972,0.31287
717.05946,0.31417
716.02920,0.31510
714.99894,0.31640
713.96868,0.31838
712.93843,0.32093
711.90817,0.32364
710.87791,0.32498
709.84765,0.32467
708.81740,0.32443
707.78714,0.32528
706.75688,0.32728
705.72662,0.32959
704.69636,0.33137
703.66611,0.33276
702.63585,0.33341
701.60559,0.33380
700.57533,0.33525
699.54508,0.33756
698.51482,0.33992
697.48456,0.34170
696.45430,0.34239
695.42404,0.34312
694.39379,0.34457
693.36353,0.34565
692.33327,0.34682
691.30301,0.34874
690.27275,0.35034
689.24250,0.35151
688.21224,0.35293
687.18198,0.35448
686.15172,0.35597
685.12147,0.35704
684.09121,0.35740
683.06095,0.35771
682.03069,0.35870
681.00043,0.36061
679.97018,0.36300
678.93992,0.36557
677.90966,0.36830
676.87940,0.37083
675.84914,0.37297
674.81889,0.37437
673.78863,0.37479
672.75837,0.37424
671.72811,0.37391
670.69786,0.37547
669.66760,0.37844
668.63734,0.38133
667.60708,0.38044
666.57682,0.37963
665.54657,0.38198
664.51631,0.38478
663.48605,0.38619
662.45579,0.38721
661.42553,0.38821
660.39528,0.38889
659.36502,0.39029
658.33476,0.39194
657.30450,0.39285
656.27425,0.39405
655.24399,0.39604
654.21373,0.39776
653.18347,0.39899
652.15321,0.40001
651.12296,0.40037
650.09270,0.40103
649.06244,0.40292
648.03218,0.40516
647.00193,0.40635
645.97167,0.40603
644.94141,0.40590
643.91115,0.40737
642.88089,0.41053
641.85064,0.41405
640.82038,0.41604
639.79012,0.41658
638.75986,0.41674
637.72960,0.41755
636.69935,0.41863
635.66909,0.41842
634.63883,0.41853
633.60857,0.42100
632.57832,0.42397
631.54806,0.42647
630.51780,0.42913
629.48754,0.43074
628.45728,0.43078
627.42703,0.43003
626.39677,0.42991
625.36651,0.43180
624.33625,0.43423
623.30599,0.43548
622.27574,0.43579
621.24548,0.43634
620.21522,0.43809
619.18496,0.44008
618.15471,0.44141
617.12445,0.44243
616.09419,0.44334
615.06393,0.44395
614.03367,0.44509
613.00342,0.44743
611.97316,0.44950
610.94290,0.44949
609.91264,0.44900
608.88238,0.45168
607.85213,0.45557
606.82187,0.45642
605.79161,0.45619
604.76135,0.45766
603.73110,0.45902
602.70084,0.45932
601.67058,0.45956
600.64032,0.46012
599.61006,0.46094
598.57981,0.46190
597.54955,0.46256
596.51929,0.46296
595.48903,0.46387
594.45878,0.46596
593.42852,0.46927
592.39826,0.47131
591.36800,0.47032
590.33774,0.46994
589.30749,0.47341
588.27723,0.47712
587.24697,0.47704
586.21671,0.47530
585.18645,0.47531
584.15620,0.47707
583.12594,0.47859
582.09568,0.47976
581.06542,0.48064
580.03517,0.48058
579.00491,0.48015
577.97465,0.48080
576.94439,0.48412
575.91413,0.48883
574.88388,0.49100
573.85362,0.49019
572.82336,0.48940
571.79310,0.49025
570.76284,0.49224
569.73259,0.49355
568.70233,0.49378
567.67207,0.49327
566.64181,0.49282
565.61156,0.49426
564.58130,0.49678
563.55104,0.49840
562.52078,0.49941
561.49052,0.50119
560.46027,0.50269
559.43001,0.50294
558.39975,0.50245
557.36949,0.50142
556.33924,0.50157
555.30898,0.50354
554.27872,0.50535
553.24846,0.50583
552.21820,0.50523
551.18795,0.50529
550.15769,0.50849
549.12743,0.51212
548.09717,0.51270
547.06691,0.51337
546.03666,0.51593
545.00640,0.51736
543.97614,0.51641
542.94588,0.51579
541.91563,0.51690
540.88537,0.51920
539.85511,0.52177
538.82485,0.52177
537.79459,0.52114
536.76434,0.52272
535.73408,0.52297
534.70382,0.52195
533.67356,0.52329
532.64330,0.52745
531.61305,0.53088
530.58279,0.52847
529.55253,0.52406
528.52227,0.52581
527.49202,0.53041
526.46176,0.53188
525.43150,0.53240
524.40124,0.53296
523.37098,0.53216
522.34073,0.53168
521.31047,0.53377
520.28021,0.53632
519.24995,0.53580
518.21969,0.53204
517.18944,0.52890
516.15918,0.53099
515.12892,0.53431
514.09866,0.53443
513.06841,0.53592
512.03815,0.54063
511.00789,0.54179
509.97763,0.53809
508.94737,0.53505
507.91712,0.53329
506.88686,0.53315
505.85660,0.53561
504.82634,0.53874
503.79609,0.54279
502.76583,0.54744
501.73557,0.54892
500.70531,0.54950
499.67505,0.55310
498.64480,0.55525
497.61454,0.55233
496.58428,0.54904
495.55402,0.54966
494.52376,0.55040
493.49351,0.54863
492.46325,0.54938
491.43299,0.55318
490.40273,0.55469
489.37248,0.55460
488.34222,0.55538
487.31196,0.55558
486.28170,0.55461
485.25144,0.55196
484.22119,0.54774
483.19093,0.54933
482.16067,0.55765
481.13041,0.56483
480.10015,0.56829
479.06990,0.56697
478.03964,0.56516
477.00938,0.56668
475.97912,0.56624
474.94887,0.56447
473.91861,0.56457
472.88835,0.56612
471.85809,0.56967
470.82783,0.56790
469.79758,0.56047
468.76732,0.55602
467.73706,0.55504
466.70680,0.55746
465.67654,0.56339
464.64629,0.56618
463.61603,0.56421
462.58577,0.56405
461.55551,0.56792
460.52526,0.57273
459.49500,0.57588
458.46474,0.57714
457.43448,0.57836
456.40422,0.57660
455.37397,0.57232
454.34371,0.57388
453.31345,0.58281
452.28319,0.58500
451.25294,0.57512
450.22268,0.57004
449.19242,0.57695
448.16216,0.58361
447.13190,0.58635
446.10165,0.58911
445.07139,0.58463
444.04113,0.57496
443.01087,0.57237
441.98061,0.57641
440.95036,0.57740
439.92010,0.57324
438.88984,0.56908
437.85958,0.57036
436.82933,0.57342
435.79907,0.56968
434.76881,0.56627
433.73855,0.57208
432.70829,0.57851
431.67804,0.57882
430.64778,0.57948
429.61752,0.58057
428.58726,0.57701
427.55700,0.57610
426.52675,0.58198
425.49649,0.58706
424.46623,0.58717
423.43597,0.58557
422.40572,0.58617
421.37546,0.59077
420.34520,0.59558
419.31494,0.59335
418.28468,0.58694
417.25443,0.59313
416.22417,0.60094
415.19391,0.59941
414.16365,0.59823
413.13339,0.60047
412.10314,0.59558
411.07288,0.59285
410.04262,0.59431
409.01236,0.58749
407.98211,0.58452
406.95185,0.59081
405.92159,0.59419
404.89133,0.59032
403.86107,0.58252
402.83082,0.57506
401.80056,0.56814
400.77030,0.56501
399.74004,0.56726
